11595.906209457662,11590.541790788388,11499.503135621922,11519.016208531406,11667.230626014547,11640.63205011273,11532.650772649142,11556.589490960776,11677.221855786069,11689.582370469854,11656.457085187089,11699.327731052368,11888.289378677533,11893.743204324628,11707.262600334001,11664.235492257536,11786.253665239057,11795.015549065536,11569.57585448931,11430.100969088195,11469.55179805181,11539.088075052272,11539.736275641475,11573.710927213542,11674.07025981787,11729.03319943347,11672.617396428275,11623.600020837786,11655.11598051977,11756.99523174706,11745.349972885844,11656.993527054015,11667.230626014547,11771.054479009448,11758.157522458736,11644.655364114686,11689.98470187005,11730.441359334154,11774.742516844573,11701.272332819979,11691.392861770733,11747.629850820285,11821.189441822702,11699.908876408206,11657.887596832228,11772.417935421221,11856.05816317298,11773.088487754881,11698.143088596236,11707.530821267464,11833.102921617381,11822.128215089824,11754.357725901333,11783.99613904907,11886.791811799028,11890.122221722868,11783.549104159965,11759.833903292883,11856.72871550664,11898.817050315984,11835.047523384992,11834.57813675143,11928.723684397184,11986.346481602965,11884.802506542506,11849.240881114112,11963.726516214194,12011.402787137366,11944.973402616191,11913.949181312226,11986.36883334742,12076.379308268943,12030.737046091206,12010.218144681234,12077.00515711369,12146.250861436232,12147.144931214445,12064.041145329613,12045.37743870943,12017.102481973468,12017.393054651388,11970.521446528608,11985.430060080298,12065.762229652672,12083.889494405925,11977.182266376289,11936.367981000898,12033.016924025647,12028.94890653478,11904.337931196444,11849.10677064738,11900.40402417231,11943.118207826401,11910.484660921653,11872.933730236737,11889.96575951168,11968.688603483273,11915.893783079837,11828.3420000484,11900.247561961123,12014.66614182784,11987.553475803552,11924.40979771731,11973.896559941359,11969.783838961583,11977.450487309754,11946.538024728063,11931.227079776178,12040.95179330728,12075.641700701917,11986.502943814152,12006.75362429066,12119.182898900855,12127.229526904766,12058.855540615981,12068.645604687406,12154.83393130707,12173.45293443834,12103.715491737783,12099.580419013551,12142.40636138992,12192.138992802977,12166.658004123927,12104.430747560353,12151.83879755006,12229.108778132055,12165.003975034235,12118.221773889278,12195.290588771175,12325.601258945617,12315.185346029442,12238.205938125366,12226.873603686525,12290.57607538415,12348.601203990127,12412.88482104359,12320.39330248753,12436.264745743842,12457.968289609944,12339.0123056188,12300.366139455575,12377.278492126286,12428.866318329136,12382.017061950812,12287.603293371594,12374.909207214023,12483.18105735553,12422.719588603924,12321.376779243563,12360.849959951634,12450.659269173058,12455.710763419958,12343.437951020951,12376.004442692334,12510.137261168631,12449.541681950293,12367.39902107704,12377.010271192823,12486.690281235014,12483.85160968919,12362.280471596774,12356.848997694135,12470.619376971648,12503.632903532136,12434.677771887515,12386.643873053059,12454.682583175014,12522.76599678588,12505.398691344106,12442.545585935783,12508.438528590028,12579.807648635824,12542.279069695363,12473.145124095097,12503.699958765503,12627.461567814538,12655.133027450209,12565.524883928882,12530.186775945042,12621.471300300516,12638.279812130906,12566.06132579581,12500.257790119385,12608.373178049706,12663.224358943029,12589.955340618533,12580.947587603045,12635.239974884984,12704.575086185347,12639.777379009412,12585.462639983016,12700.03768206092,12769.663366039202,12696.66256864817,12638.100998175263,12718.433167747638,12800.86640129881,12752.385467575248,12659.424562385628,12689.55471391138,12795.256113440528,12812.265790971016,12727.195051574117,12751.7596187305,12862.7360299511,12871.609672499857,12789.422308137693,12710.163022299173,12824.939230077176,12857.885701404299,12776.659462053713,12763.203711891618,12841.390113996282,12880.59507377089,12817.227878240095,12766.064735181897,12869.709774221155,12944.185786746239,12891.815649487455,12837.925593605709,12910.658170063278,12894.184934399716,13446.720057334907,13520.43611054851,13497.95025562647,13378.703698957408,13390.952454918917,13446.228318956892,13438.069932230705,13328.68049486643,13281.205389643359,13363.303347027702,13442.80850205523,13315.515317382255,13243.945031636362,13303.82535503213,13371.998175620816,13361.403448749,13305.099404466082,13350.629907921542,13439.947478764949,13409.660865028009,13320.946791284894,13374.143943088526,13453.13500799358,13452.464455659921,13365.113838328582,13369.69594594192,13471.306976235746,13493.032871846304,13406.911600460006,13377.653166968008,13454.587871383175,13511.473061021932,13462.768609853818,13421.149661678037,13503.71700569594,13543.3466486152,13452.978545782393,13385.900960672017,13469.89881633506,13543.748980015396,13583.669195612574,13555.416590621066,13589.16772474858,13618.984951851959,13639.816777684306,13574.01324200788,13531.991962431905,13591.179381749556,13658.27931860439,13525.91228794006,13516.412796546556,13640.50968176242,13670.148094910157,13570.504018128398,13559.037573222826,13646.455245787532,13607.585562179753,13592.811059094794,13566.3018901708,13646.589356254264,13700.85939179175,13598.533105675353,13522.559526271765,13580.003509521905,13675.42310660161,13646.611707998718,13560.244567423411,13595.627378896163,13673.32204262281,13654.635984258173,13588.273654970368,13625.042274599347,13685.146115439667,13671.288033877378,13629.132643834668,13611.139489548146,13655.84297845876,13707.833136061805,13640.2191090845,13576.941320531527,13638.140396850158,13714.784528587405,13627.880946145171,13600.54476267633,13676.406583357642,13730.207232261568,13661.810894228327,13581.992814778427,13659.50866454943,13727.368560715744,13691.47165912052,13601.461184198999,13613.329960504767,13716.66207512165,13722.115900768746,13616.146280306135,13605.149222034124,13709.621275618229,13704.14509822668,13632.306591547322,13639.615611984207,13707.52021163943,13758.593947719806,13673.925539723105,13655.150074380646,13721.490051923998,13777.034136895436,13746.278136524932,13676.652452546652,13733.828214863326,13769.322785058355,13720.57363040133,13712.884630308705,13774.73190721654,13818.518974604485,13775.335404316833,13672.696193778062,13741.561918444862,13855.68992563366,13846.860986573814,13744.400589990688,13770.216854836566,13873.303100264444,13890.804516172948,13753.229529050534,13693.416260888132,13799.698805773116,13840.557794637418,13758.01280236397,13740.936069600115,13789.975796935058,13844.73757085056,13864.474161204596,13772.519084515463,13808.997131466525,13880.098030578856,13817.043759470434,13756.045848851902,13775.782439205937,13857.858044845825,13812.618114068284,13715.723301854528,13750.48026448253,13903.477955279108,13949.835473279414,13894.604312730351,14050.731247750671,14159.651298481382,14065.1704746688,13930.501214325574,13882.46731549112,13952.137702958311,13919.146528142277,13687.001310229458,13559.551663345297,13670.885702477182,13854.773504110994,13873.861893875826,13838.1661579807,13929.1377579138,14005.312503017487,13942.302935397976,13871.93964385267,13913.871516450825,13988.034604553533,13984.39127020732,13916.84429846338,13956.071609982446,14023.797395682026,14030.704084718715,13953.501159370086,13952.607089591873,14056.296832120042,14062.957651967723,13981.642005639316,13964.654679853284,14075.0722974625,14140.562908716549,14048.339611093952,13992.81787786697,14079.676756820292,14144.206243062765,14097.714614595727,14016.734244434148,14078.82739053099,14151.202339077276,14114.143146770377,14031.553451008018,14085.801134801048,14179.097316157498,14149.794179176592,14107.817603089525,14147.290783797596,14238.0612180306,14253.662735660404,14180.28195861363,14162.825246194036,14259.027154329677,14331.871489509522,14231.936840049844,14221.610334111492,14276.483866749271,14311.665512521926,14251.874596103979,14244.900851833923,14323.9813237168,14420.56321150818,14368.662460882959,14316.649951535459,14362.672193368935,14459.611709071603,14414.237667827329,14313.990093945276,14376.664385397959,14468.418296386993,14444.747799008823,14357.598347377581,14347.718876328336,14453.912014235499,14478.029546502776,14326.529422584705,14287.480925021282,14313.78892824518,14334.576050588616,14222.727921334259,14189.356766862486,14245.794921612136,14274.20398881483,14215.776528808658,14142.485158739706,14149.056571609566,14225.566592880083,14170.894225942402,14081.196675443254,14120.088710795488,14167.9437956743,14173.71054574377,14081.487248121173,14109.292818223576,14217.452909642805,14233.501462161716,14104.822469332514,14115.394844459874,14182.025394681144,14208.42280488286,14121.541574185083,14190.921388974357,14168.94962417479,14116.870059593924,14122.122719540921,14134.930269113813,14228.226450470263,14283.077631363587,14216.29061893113,14165.28393808412,14252.858072860012,14326.775291773713,14276.707384193825,14205.628836825948,14254.690915905347,14339.828710535612,14307.105756653042,14244.945555322833,14299.707329238336,14378.474876698838,14364.773257347735,14260.234148530264,14268.68310793437,14399.239647297818,14491.77586934279,14403.08414734413,14374.9433010749,14449.53107232226,14476.286110435261,14418.171574851463,14359.855873567567,14430.487386046338,14464.462037618405,14372.998699307287,14293.851172191045,14420.943191163922,14498.079061279186,14425.927630177455,14383.258150012274,14413.745929449313,14492.736994354367,14511.065424807719,14411.71192070388,14358.60417587807,14452.593261312637,14467.546578353236,14387.236760525318,14382.028804067231,14469.602938843125,14470.80993304371,14425.748816221812,14412.874211415556,14471.502837121825,14509.143174784564,14438.802234983712,14386.007414580276,14447.519415321281,14551.656192738557,14486.992596029353,14444.211357141896,14537.351076287161,14627.965048308975,14560.887463198598,14357.46423691085,14446.513586820793,14557.98173641941,14494.301616466239,14429.638019757036,14474.900302279033,14543.58721299019,14555.254823595862,14469.155903954019,14483.349261683139,14584.870884999144,14623.94173430702,14543.49780601237,14475.973186012887,14613.816394068766,14607.624960854646,14538.088683854186,14497.140288012062,14539.563898988235,14580.802867508277,14570.990451692398,14529.483262238893,14584.401498365582,14666.611214472201,14644.505339205902,14556.283003840805,14592.246960669394,14717.461433108025,14684.805534458821,14589.184771679018,14600.807678795778,14683.844409447243,14679.351708811726,14566.587158034703,14572.97975694892,14679.441115789548,14705.458546335525,14586.770783277845,14536.434654764493,14624.634638385134,14664.599557471223,14577.047774439787,14554.36075381765,14623.047664528807,14670.969804640987,14606.954408520987,14579.618225052147,14644.28182176135,14693.343900840748,14672.109743608207,14643.477158960959,14741.601317119756,14893.056737548917,15021.847489100397,14932.99930489055,14825.800338482899,14868.983908770551,14817.21726861206,14732.302991426348,14589.7435652904,14545.196538590973,14524.431767991993,14462.316270150695,14487.931369296477,14655.323583522271,14770.457419211558,14723.228183177494,14692.606293273724,14755.012363792941,14806.197858595593,14735.76751181692,14671.752115696921,14784.896646129686,14821.374693080747,14730.559555358835,14691.265188606405,14696.651959020133,14805.728471962033,14802.062785871361,14734.739331571976,14766.769381376433,14849.694353305622,14851.527196350957,14777.92290185963,14783.64494844019,14881.925568810175,14901.32688299738,14837.043265943918,14786.707137430567,14863.08304823435,14913.03919709196,14848.330896893847,14803.426242283136,14890.821563103387,14976.62991006731,14909.798194145942,14823.02872217044,14907.160688300215,14979.669747313232,14968.918558230229,14902.779746386976,14927.612534476822,15033.73861715062,15048.803692913496,14936.530880514489,14965.25287213956,15077.346870582924,15107.566429086499,15034.342114250912,15046.993201612617,15099.586856315955,15149.878281340396,15074.93288218175,15050.256556303091,15128.912345041317,15137.651877123342,15001.842677812896,14928.640714721765,15060.4042482858,15166.262110026135,15115.881278023873,15062.527664009056,15098.089289437448,15184.277616057112,15161.702354157253,15056.269175561569,15061.879463419851,15144.133883015382,15118.876411780884,15004.658997614266,14989.772735807031,15054.704553449697,15024.619105412854,14891.693281137143,14864.111228479294,14979.334471146401,14978.239235668092,14843.145292180216,14818.26780060146,14889.793382858443,14949.472540554112,14905.059624321417,14843.972306725063,14912.882734880774,14949.472540554112,14895.604836416822,14831.231812385538,14884.47366767808,14993.237256197603,14954.948717945663,14851.057809717395,14897.124755039784,15005.463660414656,14965.901072728762,14902.288008008958,14908.680606923177,14987.135229961305,15037.158434052282,14913.419176747702,14904.389071987758,15014.963151808162,15038.007800341584,14946.678572497198,14927.634886221276,15010.78337559502,15064.919300665773,15003.295541202491,14991.78439280801,15149.18537726228,15208.886886702407,15135.126129999893,15077.637443260843,15124.889031039362,15201.466107543243,15117.691769324752,15046.83673940143,15061.343021552924,15138.18831899027,15117.937638513762,15037.873689874852,15051.843530159418,15139.819996335507,15153.879243597896,15108.639312820354,15071.356603068902,15081.571350284978,15128.241792707659,15046.88144289034,15008.592904638399,15140.311734713523,15131.594554375954,15044.199233555704,15026.362541480368,15062.348850053413,15141.049342280548,15107.409966875312,15037.940745108217,15004.368424936347,15094.267141135591,15084.588835786444,15017.131271020327,15072.831818202952,15155.466217454223,15098.513972582099,14986.688195072198,14993.39371840879,15094.93769346925,15126.94539152925,14976.987537978595,14959.754343003553,15058.683163962742,15079.894969450828,14997.484087644112,14961.833055237897,15041.74054166562,15107.879353508873,15008.615256382855,14991.382061407812,15024.484994946122,15056.716210450675,15009.665788372255,14943.705790484642,15016.25955298657,15090.690862022742,15060.918338408273,15000.434517912212,15033.939782850717,15110.248638421135,15110.516859354599,15005.6424743703,14986.375270649824,15080.587873528943,15117.982342002671,15037.873689874852,15017.466547187156,15116.060091979516,15186.378680035912,15096.658777792309,15045.987373112128,15142.725723114698,15202.740156977197,15079.738507239641,15025.088492046416,15093.641292290842,15141.943412058761,15089.014481188595,15042.567556210466,15073.949405425717,15174.889883385884,15185.752831191163,15102.693748795242,15106.605304074921,15203.477764544221,15208.19398262429,15089.103888166415,15116.283609424068,15222.63320954242,15213.468994315745,15111.366225643902,15051.463550503679,15158.081371555492,15262.374611183955,15253.188044212824,15248.941212766316,15435.064188845658,15562.200911307445,15400.150764006468,15256.361991925478,15334.235469607767,15438.14872958049,15260.273547205157,15015.678407630732,14938.363723559825,15066.908605922295,15157.455522710745,15151.018220307617,15197.241627841191,15290.224884775269,15291.74480339823,15193.10655511696,15148.067790039515,15256.071419247559,15292.303597009612,15218.006398440171,15185.059927113049,15276.724431124263,15338.370542331999,15246.080189476037,15203.05308139957,15297.757422656707,15337.208251620325,15273.237558989234,15208.350444835478,15252.696305834808,15343.377333089988,15294.449364477321,15209.87036345844,15252.897471534905,15331.016818406204,15317.494013010742,15241.4980818627,15266.040297274627,15357.615394308019,15357.03424895218,15296.013986589192,15319.617428733996,15365.99729847876,15368.187769435379,15323.104300869025,15280.613634659487,15366.533740345687,15416.735758392306,15346.081894169081,15314.07419610908,15401.268351229233,15448.810511685671,15388.527856889708,15302.250123292224,15398.09440351658,15516.35748342961,15443.423741271943,15399.65902562845,15400.687205873395,15424.581220696118,15342.349152845045,15256.786675070129,15312.084890852559,15438.372247025043,15450.375133797543,15347.959440703326,15356.117827429514,15480.01354694528,15509.11551822609,15413.070072301636,15352.787417505673,15434.974781867837,15466.401334571998,15349.054676181637,15296.148097055924,15323.03724563566,15288.97318708577,15213.96073269376,15163.557548947043,15188.010357381148,15222.968485709249,15166.418572237322,15056.112713350381,15071.088382135438,15164.786894892086,15129.09115899696,15040.868823631863,15041.06998933196,15126.61011536242,15137.651877123342,15024.909678090773,15022.182765267225,15103.587818573455,15166.418572237322,15048.021381857561,15004.703701103175,15108.773423287086,15157.634336666386,15088.478039321666,15041.852300387896,15087.114582909893,15158.304889000046,15094.870638235885,15008.704663360675,15052.089399348426,15145.89967082735,15118.138804213859,15026.966038580662,15081.325481095968,15166.686793170786,15146.279650483091,15047.283774290536,15059.465475018678,15233.116177691958,15265.414448429878,15140.08821726897,15110.807432032518,15194.380604550912,15223.504927576178,15161.255319268146,15122.877374038384,15197.085165630004,15188.792668437085,15166.776200148608,15149.543005173566,15271.360012454988,15361.526949587698,15269.057782776092,15162.551720446554,15195.565247007044,15249.276488933147,15226.164785166358,15171.738287417686,15167.782028649097,15188.300930059067,15213.334883849013,15182.71299394524,15142.211632992225,15151.532310430088,15164.71983965872,15127.101853740438,15125.783100817574,15136.80251083404,15188.032709125604,15167.491455971178,15160.741229145675,15119.815185048008,15114.540173356554,15096.390556858845,15045.585041711933,15056.671506961764,15076.810428715997,15083.515952052589,15096.79288825904,15090.087364922449,15105.688882552253,15065.813370443986,15044.623916700355,15095.295321380536,15122.340932171457,15101.196181916737,15044.06512308897,15047.328477779447,15064.02523088756,15094.065975435493,15064.204044843204,14974.864122255341,15020.595791410899,15045.11565507837,15012.102128517883,14984.743593304587,15017.310084975968,15032.822195627952,14977.412221123246,14976.138171689294,14998.914599289252,15051.955288881694,15042.589907954922,14982.798991536974,15018.651189643288,15101.911437739307,15077.570388027478,14975.802895522464,14994.35484342037,15118.787004803064,15089.439164333246,14978.06042171245,14926.964333887618,15034.766797395563,15054.16811158277,14970.952566975662,14956.982726691096,15027.770701381052,15057.83379767344,14919.85647915083,14864.334745923847,14941.358857316836,15036.957268352184,14959.307308114447,14870.012089015496,14915.788461659964,15021.40045421129,14996.344148676892,14888.251112491025,14924.95267688664,15000.21100046766,14990.73386081861,14924.326828041892,14886.440621190146,14972.405430365257,14967.800971007464,14896.409499217214,14930.76413044502,15125.17960371728,15243.509738863677,15253.791541313118,15280.591282915031,15270.912977565882,15259.06655300457,15170.933624617295,15075.156399626303,15018.15945126527,14937.760226459532,14841.625373557255,14832.014123441473,14949.606651020844,15065.83572218844,15050.077742347448,14968.136247174294,14993.751346320076,15110.069824465494,15111.61209483291,14994.198381209182,14993.6395875978,15079.738507239641,15108.818126775996,15043.59573645541,15009.509326161067,15110.069824465494,15164.786894892086,15029.044750815005,14988.319872417436,15103.051376706528,15148.201900506247,15070.239015846137,15027.21190776967,15115.680112323775,15200.884962187405,15153.342801730967,15106.158269185815,15158.640165166875,15160.897691356862,15176.230988053203,15102.85021100643,15093.373071357379,15184.85876141295,15194.380604550912,15104.615998818399,15082.040736918538,15203.72363373323,15219.168689151848,15113.422586133789,15092.143725412338,15154.23687150918,15073.70353623671,15009.621084883343,14991.918503274741,15108.728719798175,15164.138694302881,15109.108699453915,15071.088382135438,15101.777327272574,15184.523485246122,15146.749037116651,15072.250672847114,15109.578086087477,15213.62545652693,15222.63320954242,15152.09110404147,15149.587708662477,15226.29889563309,15256.049067503103,15171.939453117784,15156.80732212154,15264.296861207113,15256.473750647754,15172.900578129362,15126.364246173413,15161.881168112895,15201.779031965618,15119.904592025829,15001.797974323987,15020.215811755159,15068.294414078524,14988.319872417436,14901.975083586585,14957.094485413372,14971.086677442394,14929.065397866416,14843.927603236152,14872.604891372312,14943.951659673652,14934.027485135495,14843.860548002785,14836.305658376892,14954.702848756653,14977.658090312254,14852.644783573722,14828.259030372981,14969.76792451953,14974.260625155048,14881.836161832352,14817.17256512315,14894.062566049406,14984.16244794875,14903.718519654098,14829.22015538456,14914.71557792611,15000.3898144233,14933.20047059065,14814.065672643861,14875.108286751305,14991.404413152268,14956.356877846347,14852.108341706795,14876.47174316308,14950.34425858787,15041.159396309782,14971.91369198724,14970.617290808832,15030.74348339361,15033.962134595173,14934.832147935886,14904.90316211023,14985.883532271808,14992.63375909731,14913.374473258791,14907.987702845063,14930.38415078928,14957.76503774703,14880.763278098499,14821.575858780845,14897.28121725097,14987.045822983484,14964.716430272632,14834.159890909183,14863.127751723261,14939.43660729368,14914.827336648386,14824.45923381558,14876.203522229616,14974.841770510886,14963.397677349769,14857.696277820622,14885.904179323219,14931.121758356305,14936.732046214587,14882.126734510271,14815.496184289,14889.592217158344,14919.409444261724,14843.301754391403,14850.923699250663,14880.360946698303,14922.873964652297,14865.765257568986,14822.581687281334,14874.393030928735,14918.448319250147,14865.18411221315,14801.682806215622,14843.972306725063,14908.90412436773,14871.576711127367,14781.432125739113,14808.477736530036,14899.89637135224,14898.644673662744,14834.31635312037,14783.756707162465,14854.03059172995,14877.812847830397,14814.423300555147,14809.729434219533,14883.892522322241,14914.335598270369,14811.227001098037,14768.244596510482,14857.159835953695,14895.291911994447,14796.11722184625,14782.750878661976,14860.691411577633,14946.566813774922,14920.817604162408,14859.640879588233,14855.7069725641,14913.57563895889,14861.071391233372,14773.474904713024,14760.645003395679,14822.626390770245,14855.639917330733,14748.418599178625,14765.808256364853,14901.036310319461,14905.797231888442,14790.931617132619,14755.012363792941,14858.344478409825,14884.09368802234,14810.064710386361,14735.141662972173,14775.30774775836,14836.238603143527,14818.670132001655,14703.849220734743,14692.852162462732,14830.248335629503,14817.485489545525,14835.858623487786,14979.468581613135,15148.693638884264,15118.09410072495,14928.90893565523,14889.413403202701,14955.86513946833,14863.328917423358,14625.931039563542,14516.54160219927,14598.706614816978,14598.617207839157,14583.999166965386,14682.123325124185,14811.003483653485,14858.858568532298,14760.39913420667,14704.944456213052,14796.027814868428,14891.04508054794,14793.792640422898,14753.671259125622,14844.195824169616,14881.523237409978,14779.956910605064,14667.170008083584,14725.016322733918,14854.6564405747,14868.313356436893,14777.609977437256,14796.206628824071,14872.023746016474,14860.400838899714,14734.851090294254,14734.672276338611,14858.344478409825,14869.408591915202,14848.330896893847,14863.775952312464,14899.225819018582,14808.12010861875,14702.66457827861,14680.983386156964,14744.641154365678,14793.30090204488,14746.719866600022,14690.304063594827,14758.92391907262,14831.097701918807,14815.295018588904,14706.978464958485,14721.082415709785,14848.487359105035,14839.45725434509,14741.623668864211,14756.889910327187,14857.092780720328,14877.835199574853,14852.153045195706,14866.636975602743,14943.236403851082,14979.043898468484,14915.162612815217,14915.274371537493,14989.504514873566,15030.765835138063,14978.19453217918,14924.013903619518,15030.341151993412,15114.093138467448,14972.807761765453,14920.14705182875,14974.148866432772,15056.64915521731,15003.049672013483,14834.539870564924,14856.578690597857,14937.067322381417,14854.477626619057,14757.426352194114,14774.883064613708,14837.110321177284,14812.433995298625,14702.016377689408,14694.57324678579,14771.329137245315,14788.741146175998,14715.360369129226,14687.107764137718,14719.651904064645,14803.090966116306,14683.57618851378,14554.45016079547,14687.800668215832,14781.566236205845,14699.043595676852,14616.722120847955,14691.756926984423,14793.859695656265,14749.670296868122,14653.982478854952,14664.286633048849,14731.230107692494,14726.044502978863,14650.808531142298,14673.316737808793,14771.284433756404,14774.145457046683,14708.073700436797,14680.201075101028,14730.470148381013,14749.022096278919,14691.555761284324,14657.245833545428,14718.243744163961,14770.6362331672,14740.729599086,14708.297217881349,14771.82087562333,14790.395175265692,14750.653773624155,14779.331061760315,14901.28217950847,14953.875834211807,14923.388054774769,14823.74397799301,14883.445487433135,14969.05266869696,14930.361799044824,14785.723660674532,14833.087007175329,14909.977008101585,14869.22977795956,14766.92584358762,14783.197913551083,14908.591199945355,14948.042028908972,14893.548475926933,14869.028612259463,14922.561040229923,14971.466657098134,14930.652371722743,14812.970437165552,14867.933376781151,14977.367517634335,14901.975083586585,14852.443617873625,14931.412331034224,14965.141113417283,14931.658200223232,14850.409609128192,14839.613716556278,14935.905031669741,14949.33843008738,14850.096684705817,14815.496184289,14920.303514039937,14930.473557767102,14773.050221568374,14813.082195887828,14907.115984811306,14925.690284453665,14807.06957662935,14804.767346950453,14908.546496456445,14922.09165359636,14877.27640596347,14822.089948903316,14882.439658932646,14919.029464605985,14854.343516152325,14804.186201594615,14888.89931308023,14958.994383692074,14901.393938230747,14776.425334981124,14797.145402091195,14802.845096927298,14816.971399423051,14706.754947513933,14709.191287659562,14841.580670068344,14897.437679462157,14789.21053280956,14744.216471221027,14832.192937397116,14868.626280859267,14590.727042046434,14681.564531512802,14785.388384507703,14870.235606460048,14943.504624784546,14824.101605904294,14980.206189180159,15025.982561824629,14972.427782109713,14921.979894874084,14881.232664732059,14873.834237317353,14716.097976696252,14478.29776743624,14508.472622450903,14721.82002327681,14723.406997133137,14583.865056498655,14574.07499242723,14589.274178656839,14521.660151679534,14482.209322715918,14468.597110342636,14537.239317564883,14586.793135022299,14491.373537942594,14428.229859856352,14342.130940214509,14454.068476446686,14419.870307430067,14349.864643796045,14356.570167132637,14413.388301538027,14333.190242432385,14287.615035488016,14363.365097447051,14455.633098558557,14459.410543371505,14365.823789337133,14401.22895255434,14505.075157293697,14484.310386694717,14379.123077288043,14335.26895466673,14461.869235261589,14556.662983496546,14475.727316823879,14443.294935619228,14589.542399590302,14697.188400887062,14594.973873492941,14554.427809051014,14677.00477564392,14666.298290049826,14602.37230090765,14539.742712943878,14606.149745720595,14644.728856650456,14623.584106395736,14588.581274578724,14660.352726024716,14709.548915570846,14615.693940603012,14448.257022888307,14448.793464755234,14519.49203246737,14322.751977771757,14124.737873642192,14045.63505001486,14079.766163798115,14031.553451008018,13856.874568089792,13723.702874625073,13688.409470130144,13590.26296022689,13407.425690582479,13213.390196965956,13108.672274192844,13006.994188665652,12774.558398074914,12535.439435892038,12437.807016111257,12404.257047683841,12276.472124632852,12109.996331929724,12133.957401985814,12232.863871200547,12279.735479323326,12356.558425016216,12481.392917799107,12554.639584379147,12572.520979943392,12493.552266782794,12693.980359313531,12957.350964230414,13211.13267077597,13278.05379367516,13469.451781445954,13782.711479987083,14037.789587711048,14146.955507630768,14325.434187106393,14565.715440000946,14793.323253789336,14885.770068856487,15009.531677905523,15205.86940120094,15419.417967726944,15509.339035670644,15512.64709385003,15618.035568956802,15775.280091199887,15856.148702639188,15826.756158680459,16017.260076673041,16321.936705343333,16335.884193883443,16335.392455505427,16479.494152008792,16595.589112709655,16553.254908711304,16474.420306017437,16483.763335199754,16549.99155402083,16578.28886250125,16511.390091346515,16414.539982621667,16464.518483223736,16498.336672584614,16293.862914307467,16054.833359102413,16002.664387543726,15985.54295129096,15833.931068650612,15655.251223474888,15497.582018087152,15446.575337240141,15266.286166463635,15029.558840937478,14940.040104393973,14972.96422397664,14862.6583650897,14693.120383396195,14603.132260219129,14542.514329256337,14443.853729230612,14273.77930567018,14152.923423400334,14217.408206153896,14192.486011086228,13987.699328386705,13746.76987490295,13727.167395015646,13749.474435982042,13630.071417101792,13500.319540538734,13555.617756321164,13704.14509822668,13710.850621563271,13588.251303225912,13562.479741868943,13646.075266131791,13615.229858783468,13465.227301743902,13450.028115514293,13520.570221015243,13550.566262074264,13433.912507762017,13406.062234170704,13493.725775924418,13502.085328350704,13333.01673329076,13255.500883519755,13356.530768457744,13409.258533627813,13347.321849742157,13280.937168709896,13345.466654952366,13445.289545689768,13345.846634608108,13219.246354013248,13238.133578077983,13260.306508577647,13211.244429498247,13084.666500647843,13019.421758582803,12968.124505057873,12882.942006938698,12667.113562478253,12509.176136157053,12497.66498776257,12439.50574868986,12323.589601944639,12204.812431909137,12235.300211346175,12253.203958654876,12092.24904683221,12042.359953207964,12004.943132989782,11866.071744688958,11833.81817743995,11805.543220703987,11980.669138511317,12367.711945499415,12450.07812381722,12351.328116813675,12291.537200395727,12304.47886043535,12312.436081461441,12257.450790101384,12172.067126282112,12106.01772141668,12082.079003105046,12105.168355127378,12280.450735145896,12485.148010867599,12613.894058930167,12542.10025573972,12532.131377712652,12657.211739684552,12797.111308230318,12824.15691902124,12872.50374227807,13092.064928062551,13308.407462645468,13345.712524141374,13352.21688177787,13511.62952323312,13691.069327720325,13714.42690067612,13689.415298630633,13814.83093676936,13927.550784057474,13900.572228499917,13852.225405243089,13862.574262925895,13674.149057167657,13026.261392386126,12781.643901067246,13624.192908310046,14157.99726939169,14159.740705459202,13992.996691822613,13962.061877496468,14093.445431404762,14220.939781777834,14127.218917276732,13996.550619191006,14037.54371852204,14232.428578427862,14400.200772309396,14419.780900452246,14493.116974010109,14568.241187124395,14536.233489064394,14489.317177452705,14533.21600356293,14600.919437518054,14571.437486581504,14505.455136949437,14558.898157942076,14643.723028149967,14635.98932456843,14565.69308825649,14663.034935359352,14859.238548188037,14952.490026055579,14896.633016661766,14880.070374020384,15021.981599567129,15142.211632992225,15087.136934654349,15047.663753946275,15125.358417672924,15237.765340538663,15211.792613481595,15118.652894336332,15169.05607808305,15266.107352507992,15277.394983457922,15146.413760949823,15169.816037394528,15320.958533401315,15276.12093402397,15180.544874733076,15220.420386841344,15346.953612202838,15349.367600604011,15231.059817202071,15239.754645795185,15386.695013844374,15440.786235426216,15350.775760504695,15292.862390620994,15415.28289500271,15520.82783232067,15467.764790983772,15438.10402609158,15527.73452135736,15621.209516669454,15577.154228348045,15467.720087494861,15527.175727745978,15616.225077655921,15580.931673160992,15508.333207170155,15549.013382078814,15631.066635974246,15622.37180738113,15572.281548056788,15622.66238005905,15690.790497158827,15638.688580833505,15545.392399477054,15510.076643237668,15620.538964335796,15711.77878520236,15604.624522283617,15494.855105263605,15587.883065686592,15739.964334960501,15863.18950214261,15793.720280375515,15839.630763486715,15886.234150676031,15802.437460713085,15689.382337258141,15686.476610478952,15768.507512629929,15682.67681392155,15579.143533604567,15677.96059584148,15793.273245486409,15782.432649425586,15662.493188678407,15619.287266646299,15710.080052623756,15730.107215655711,15600.578856537208,15528.583887646662,15618.99669396838,15677.647671419105,15536.988143561859,15556.680030426984,15705.475593265963,15747.78744551986,15617.923810234524,15496.039747719735,15551.136797802068,15606.680882773506,15634.441749386997,15510.791899060237,15507.729710069862,15600.623560026117,15576.66248997003,15506.813288547193,15547.381704733576,15635.514633120853,15637.123958721633,15539.178614518478,15500.465393121887,15547.672277411495,15579.70232721595,15505.941570513436,15434.01365685626,15476.414916087977,15585.1785046075,15533.680085382473,15487.479029593353,15552.07557106919,15588.933597675992,15495.302140152711,15391.791211580183,15483.455715591397,15634.240583686898,15584.776173207305,15505.963922257892,15520.269038709288,15553.327268758687,15506.388605402542,15423.62009568454,15446.262412817767,15553.953117603436,15534.55180341623,15428.872755631539,15366.690202556874,15495.480954108352,15594.700347745462,15464.568491526663,15427.889278875504,15522.146585243534,15530.059102780713,15444.58603198362,15395.970987793326,15495.771526786271,15582.31748131722,15507.461489136398,15402.207124496357,15437.321715035645,15553.439027480965,15512.982370016858,15420.468499716342,15472.548064297209,15611.37474910912,15638.308601177765,15612.604095054163,15779.303405201843,15864.754124254481,15754.224747922988,15639.940278523003,15663.901348579091,15677.357098741186,15544.833605865671,15383.94574927637,15282.804105616106,15370.847627025561,15544.87830935458,15541.749065130838,15473.732706753339,15599.483621058896,15652.770179840349,15552.120274558101,15460.67928799144,15537.993972062348,15642.264859946354,15601.741147248882,15534.082416782669,15589.067708142724,15677.379450485641,15652.747828095893,15512.535335127752,15522.526564899275,15634.061769731257,15673.803171372792,15602.702272260462,15567.386516021075,15647.606926871173,15673.914930095068,15579.299995815754,15549.460416967919,15620.695426546983,15685.269616278365,15624.47287135993,15578.383574293088,15665.085991035223,15753.0177537224,15693.025671604357,15607.172621151522,15680.598101687207,15723.222878363476,15717.701997483016,15625.56810683824,15692.668043693073,15853.220624115542,15787.238274483476,15744.099407684733,15737.036256436857,15785.628948882693,15788.199399495054,15708.604837489705,15793.966149564523,15880.66856630666,15963.995869636045,15917.414834191184,15828.119615092233,15925.349703472819,16002.463221843627,15919.538249914438,15777.761134834425,15693.29389253782,15831.047693615878,15890.279816422442,15744.032352451368,15739.517300071395,15888.67049082166,15841.217737343042,15719.73600622845,15758.538634602863,15854.9417084386,15835.85331867377,15663.72253462345,15615.666284044539,15690.164648314078,15760.349125903742,15684.420249989063,15604.624522283617,15671.188017271521,15642.130749479622,15550.086265812668,15502.566457100686,15571.32042304521,15625.411644627053,15554.333097259176,15556.009478093325,15562.022097351803,15616.873278245126,15590.98995816588,15608.51372581884,15605.205667639455,15652.18903448451,15583.613882495629,15523.867669566593,15538.865690096103,15643.404798913574,15625.90338300507,15586.541961019275,15549.348658245643,15583.435068539986,15608.647836285572,15577.55655974824,15571.901568401048,15658.827502587737,15615.174545666523,15523.800614333228,15516.82687006317,15630.932525507515,15655.67590661954,15532.763663859805,15581.46811502792,15850.203138614075,15870.654984790683,15814.641513185683,15693.405651260096,15697.58542747324,15779.526922646395,15731.157747645111,15612.671150287528,15614.61575205514,15754.35885838972,15726.083901653756,15637.973325010935,15632.586554597206,15734.376398846674,15727.82733772127,15641.661362846062,15607.172621151522,15709.834183434748,15757.711620058015,15661.442656689009,15567.78884742127,15614.436938099498,15744.92642222958,15679.502866208895,15601.94231294898,15659.676868877039,15728.833166221759,15669.444581204009,15599.70713850345,15642.846005302192,15714.572753259274,15692.288064037331,15589.51474303183,15537.681047639973,15669.66809864856,15711.689378224539,15633.234755186411,15635.581688354217,15733.482329068464,15770.183893464076,15691.729270425949,15624.025836470824,15668.461104447975,15709.163631101088,15642.533080879819,15584.84322844067,15652.993697284903,15691.662215192584,15638.420359900041,15618.437900356997,15762.137265460166,15828.454891259062,15729.146090644133,15604.959798450447,15628.406778384064,15763.478370127485,15743.473558839985,15664.460142190474,15674.451371961997,15716.472651537973,15673.57965392824,15595.505010545852,15591.615807010628,15675.524255695851,15664.52719742384,15584.887931929581,15559.719867672906,15642.488377390908,15708.895410167625,15586.810181952738,15575.075516113702,15662.269671233855,15680.709860409483,15606.457365328952,15506.813288547193,15546.509986699819,15650.490301905907,15674.429020217542,15620.024874213324,15696.356081528198,15856.036943916912,15971.68486972867,15834.869841917736,15741.707771028015,15762.517245115907,15760.684402070572,15595.952045434959,15474.403259087,15430.973819610337,15481.466410334875,15424.223592784834,15429.565659709653,15570.471056755909,15662.649650889594,15665.778895113337,15603.842211227682,15643.784778569316,15700.737023441437,15657.218176986955,15572.996803879358,15643.293040191298,15703.620398476172,15696.691357695026,15679.81579063127,15685.24726453391,15733.30351511282,15714.930381170558,15640.342609923198,15645.125883236633,15757.801027035837,15781.851504069748,15661.822636344748,15627.75857779486,15723.289933596843,15765.087695728267,15682.900331366103,15620.538964335796,15710.01299739039,15817.994274853978,15739.271430882387,15621.835365514204,15660.280365977333,15797.162449021633,15792.826210597303,15689.315282024776,15731.895355212137,15806.952513093058,15829.125443592722,15749.508529842919,15730.107215655711,15827.359655780752,15856.215757872555,15774.766001077414,15777.448210412053,15832.768777938936,15719.981875417458,15559.69751592845,15604.937446705992,15730.643657522638,15775.83888481127,15677.848837119203,15654.781836841326,15808.584190438294,15877.159342427176,15787.774716350403,15734.599916291229,15801.252818256953,15877.069935449355,15805.276132258909,15716.606762004705,15761.377306148686,15839.876632675725,15820.363559766241,15686.409555245586,15640.208499456467,15718.931343428058,15690.09759308071,15593.001615166857,15563.027925852291,15629.591420840195,15602.143478649079,15480.661747534485,15440.115683092557,15495.771526786271,15548.298126256244,15500.532448355252,15447.827034929638,15532.048408037235,15590.140591876578,15524.35940794461,15449.302250063689,15510.59073336014,15565.151341575545,15503.058195478701,15399.457859928354,15434.952430123381,15560.368068262109,15537.569288917697,15389.28781620119,15453.862005932571,15625.031664971313,15594.387423323087,15476.72784051035,15452.565604754163,15555.875367626593,15563.36320201912,15447.402351784987,15430.392674254499,15551.315611757711,15590.855847699147,15485.914407481481,15446.642392473506,15707.219029333477,15870.699688279592,15724.943962686535,15610.614789797639,15637.883918033114,15722.239401607443,15687.840066890725,15628.987923739902,15641.706066334971,15727.02267492088,15686.655424434593,15570.873388156104,15583.613882495629,15671.322127738254,15669.981023070935,15554.668373426006,15495.2574366638,15636.296944176787,15684.174380800056,15588.46421104243,15540.139739530057,15612.559391565252,15665.309508479777,15571.298071300755,15522.459509665909,15592.643987255573,15634.084121475713,15561.798579907248,15478.895959722515,15554.444855981454,15668.371697470153,15608.200801396466,15496.263265164289,15536.295239483743,15593.89568494507,15577.198931836956,15424.804738140672,15428.693941675896,15560.83745489567,15602.545810049274,15501.627683833562,15433.186642311412,15514.636399106552,15557.819969394204,15477.890131222026,15466.423686316453,15545.012419821314,15583.569179006718,15525.678160867474,15481.108782423591,15565.285452042277,15650.222080972444,15607.887876974093,15523.197117232934,15564.592547964163,15646.846967559692,15607.731414762906,15515.910448540504,15551.98616409137,15604.89274321708,15587.212513352933,15504.198134445924,15516.82687006317,15629.703179562472,15643.985944269412,15533.657733638018,15523.264172466299,15614.36988286613,15629.390255140097,15515.821041562682,15472.43630557493,15551.673239668995,15629.345551651188,15536.094073783646,15464.121456637557,15538.485710440364,15617.90145849007,15564.994879364358,15483.120439424569,15507.819117047682,15598.164868136033,15585.46907728542,15471.676346263452,15458.824093201649,15517.340960185644,15512.244762449833,15487.613140060084,15513.809384561704,15674.250206261899,15816.362597508742,15750.64846881014,15687.996529101913,15677.804133630292,15713.589276503239,15637.705104077471,15489.11070693859,15456.655973989486,15418.546249693187,15319.192745589346,15324.803033447628,15457.974726912347,15571.946271889958,15555.450684481943,15435.287706290212,15432.58314521112,15528.829756835672,15473.419782330964,15250.058799989081,15140.311734713523,15287.74384114073,15315.325893798577,15211.367930336944,15242.392151640912,15385.443316154877,15442.686133704918,15326.390007303955,15292.54946619862,15410.633732156008,15460.768694969262,15312.397815274933,15152.202862763746,15206.763470979151,15334.50369054123,15303.010082603703,15237.541823094109,15306.251085549724,15419.328560749122,15394.42871742591,15310.07323385158,15338.102321398535,15458.600575757097,15455.180758855435,15328.356960816021,15335.330705086079,15449.704581463884,15480.661747534485,15382.224664953312,15360.163493175924,15453.81730244366,15505.695701324428,15404.397595452976,15354.709667528829,15437.366418524554,15473.509189308787,15334.391931818955,15298.673844179375,15407.99622631028,15512.512983383296,15458.801741457195,15402.318883218633,15452.945584409903,15545.727675643884,15531.444910936942,15441.76971218225,15467.071886905658,15584.79852495176,15556.590623449163,15447.759979696273,15464.456732804387,15543.69366689845,15548.521643700797,15428.202203297878,15393.825220325616,15441.903822648983,15431.286744032712,15320.265629323201,15281.731221882252,15372.769877048717,15389.980720279304,15253.076285490548,15164.630432680899,15239.77699753964,15307.994521617238,15233.183232925325,15128.46531015221,15187.853895169961,15271.047088032616,15230.143395679403,15121.312751926513,15136.511938156122,15254.596204113508,15243.666201074864,15124.732568828174,15135.908441055828,15232.266811402656,15234.524337592644,15140.110569013426,15124.710217083719,15220.219221141246,15256.049067503103,15166.127999559403,15093.931864968761,15199.946188920283,15450.330430308633,15380.548284119164,15256.518454136665,15292.97414934327,15392.439412169388,15336.045960908648,15218.006398440171,15268.029602531149,15355.290812884667,15294.605826688508,15186.848066669472,15228.221145656247,15328.692236982852,15332.737902729263,15228.712884034263,15218.699302518286,15276.947948568815,15289.911960352894,15208.641017513397,15178.5332177321,15275.539788668131,15333.386103318466,15223.862555487462,15155.510920943132,15223.236706642712,15303.993559359737,15222.63320954242,15168.4302292383,15230.657485801876,15298.919713368383,15229.763416023663,15148.648935395353,15176.633319453398,15267.962547297782,15215.972389694738,15110.47215586569,15116.887106524362,15218.833412985017,15223.236706642712,15113.601400089432,15109.980417487672,15204.640055255897,15217.24643912869,15100.4138708608,15064.762838454586,15128.84528980795,15135.863737566917,15091.339062611945,15019.344093721402,15102.380824372867,15191.854857427463,15108.438147120256,15077.4586293052,15164.831598380995,15208.886886702407,15130.5216706421,15059.018440129572,15108.281684909069,15184.747002690674,15166.843255381973,15066.975661155662,15044.243937044614,15132.935659043273,15136.064903267015,15073.010632158594,15074.642309503832,15160.80828437904,15185.752831191163,15113.601400089432,15062.929995409251,15127.526536885089,15166.150351303859,15090.89202772284,15017.198326253692,15125.961914773217,15214.050139671583,15135.99784803365,15069.36729781238,15085.41585033129,15181.729517189207,15122.229173449181,15001.954436535174,15058.347887795913,15158.48370295569,15169.614871694432,15092.836629490452,15092.657815534809,15173.593482207476,15150.66059239633,15039.550070709,15021.467509444656,15088.433335832757,15114.137841956359,15006.827116826431,14985.212979938147,15053.586966226932,15108.125222697881,15058.057315117994,15002.11089874636,15029.894117104306,15108.929885498274,15079.26912060608,14964.336450616891,14960.871930226318,15001.865029557352,14916.481365738078,14843.905251491697,14855.550510352912,14997.662901599753,15120.642199592854,15148.268955739613,15217.469956573244,15332.93906842936,15188.524447503622,15018.40532045428,14946.253889352547,14973.612424565843,14851.482492862046,14592.179905436029,14615.358664436182,14839.233736900538,15042.232280043636,15038.656000930787,14893.771993371487,14873.096629750327,14961.318965115424,14881.970272299084,14756.44287543808,14814.6468179997,14935.413293291724,14939.57071776041,14822.469928559058,14824.325123348848,14903.830278376376,14885.971234556584,14823.185184381628,14828.191975139616,14925.846746664853,14951.953584188652,14828.728417006543,14785.991881607997,14878.393993186235,14854.142350452228,14627.8532895867,14639.18562402554,14697.546028798346,14741.601317119756,14702.217543389504,14667.52763599487,14751.190215491084,14810.802317953387,14803.40389053868,14738.58383161829,14788.003538608973,14836.216251399072,14851.482492862046,14870.816751815886,14947.86321495333,15041.762893410076,14986.196456694182,14899.89637135224,14944.733970729587,15042.858128888385,15103.61017031791,15024.97673332414,14969.38794486379,15179.404935765855,15228.243497400701,15131.818071820508,15069.389649556835,15174.95693861925,15254.797369813607,15194.134735361904,15130.767539831108,15170.19601705027,15207.702244246275,15174.688717685785,15100.011539460605,15121.245696693148,15187.876246914417,15169.994851350171,15100.70444353872,15078.911492694795,15164.563377447532,15150.213557507224,14992.052613741473,14951.48419755509,15025.35671297988,15042.701666677198,14918.157746572228,14886.440621190146,14931.322924056403,14920.996418118051,14814.60211451079,14734.672276338611,14792.205666566571,14883.289025221948,14807.114280118261,14709.52656382639,14742.070703753318,14795.603131723778,14770.323308744826,14737.578003117802,14810.824669697842,14860.870225533276,14780.627462938723,14621.527745905847,14644.035952572342,14749.15620674565,14824.101605904294,14753.224224236516,14718.422558119602,14798.598265480789,14751.525491657912,14628.412083198082,14628.412083198082,14733.130005971196,14846.498053848512,14749.424427679114,14667.080601105763,14768.222244766028,14816.971399423051,14723.138776199672,14622.958257550987,14685.587845514758,14814.803280210886,14959.307308114447,14824.258068115481,14819.474794802047,14906.579542944377,14871.219083216081,14749.089151512284,14745.222299721516,14825.643876271712,14777.386459992704,14709.303046381838,14741.333096186292,14799.648797470189,14818.848945957297,14741.243689208472,14694.90852295262,14763.170750519128,14855.841083030831,14750.6314218797,14658.318717279282,14718.601372075245,14788.629387453722,14710.91237198262,14649.199205541518,14723.406997133137,14764.288337741893,14739.388494418681,14686.973653670986,14640.034990314842,14704.09508992375,14730.090168725274,14702.619874789701,14695.713185753011,14799.112355603262,14789.657567698667,14620.99130403892,14582.367489620148,14703.648055034644,14776.604148936767,14691.95809268452,14606.395614909605,14686.504267037424,14796.944236391097,14727.989104746475,14619.51608890487,14670.388659285149,14740.461378152535,14688.784144971865,14571.035155181307,14621.773615094855,14742.495386897968,14712.34288362776,14593.275140914338,14617.906763304087,14749.759703845944,14751.6819538691,14586.055527455275,14549.488073526392,14720.098938953752,14789.568160720846,14641.174929282062,14488.244293718852,14580.042908196798,14655.837673644743,14614.308132446782,14568.531759802314,14598.013710738864,14671.99798488593,14614.285780702327,14539.273326310316,14589.497696101393,14697.791897987354,14690.080546150273,14600.22653343994,14625.551059907802,14661.38090626966,14619.918420305065,14550.292736326783,14553.69020148399,14666.09712434973,14671.662708719101,14603.579295108235,14604.540420119814,14675.23898783195,14671.014508129896,14654.09423757723,14585.809658266266,14625.774577352355,14669.628699973668,14583.306262887272,14484.064517505709,14542.223756578418,14614.41989116906,14541.374390289116,14505.701006138446,14595.197390937496,14643.499510705413,14565.290756856295,14466.67486031948,14542.268460067327,14696.920179953597,14663.481970248458,14552.12557937212,14539.318029799228,14568.576463291225,14546.649401980569,14427.805176711701,14457.912976492998,14624.32171396276,14766.456456954058,14747.904509056152,14733.353523415748,14790.037547354406,14755.749971359966,14677.518865766391,14606.216800953962,14591.039966468808,14550.40449504906,14429.10157789011,14319.622733548014,14358.067734011143,14559.322841086727,14612.385882423627,14533.506576240849,14521.235468534884,14626.311019219283,14599.80185029529,14497.29675022325,14453.487331090848,14515.960456843432,14533.595983218669,14476.554331368725,14435.561232037691,14548.906928170554,14451.76624676779,14220.403339910907,14192.374252363952,14283.301148808141,14387.393222736506,14353.329164186618,14263.072820076088,14280.30601505113,14339.627544835514,14316.292323624173,14301.271951350207,14381.626472667036,14446.625345543069,14396.244513540807,14294.812297202623,14309.899724709956,14409.968484636365,14464.216168429395,14357.397181677483,14325.702408039859,14458.918804993487,14487.752555340834,14373.445734196393,14369.444771938894,14504.471660193403,14584.60266406568,14509.880782351589,14446.647697287524,14515.468718465414,14600.494754373403,14600.092422973208,14527.8292331492,14511.333645741182,14600.517106117859,14562.675602755024,14541.374390289116,14615.22455396945,14714.555706328834,14739.030866507395,14624.500527918402,14655.457693989003,14788.562332220357,14776.760611147954,14691.309892095316,14689.43234556107,14734.359351916237,14695.512020052913,14649.534481708346,14679.485819278458,14660.129208580162,14609.927190533543,14536.367599531128,14511.043073063263,14539.228622821407,14503.219962503907,14443.786673997245,14392.064737327664,14490.7700408423,14518.530907455792,14469.9158632655,14379.458353454871,14366.896673070989,14402.681815943935,14400.08901358712,14278.987262128267,14325.925925484411,14390.56717044916,14401.743042676813,14341.527443114215,14333.637277321492,14380.352423233084,14406.682778201435,14261.172921797386,14186.451040083295,14256.970793839788,14309.251524120751,14228.114691747987,14213.027264240654,14248.186558268853,14206.455851370794,14086.874018534902,14035.35324756542,14126.615420176438,14248.074799546577,14200.018548967666,13947.242670922598,14078.939149253269,14286.318634309608,14180.684290013825,14056.587404797961,14043.131654635867,14086.762259812625,14132.203356290265,14052.49703556264,14025.563183493994,14055.939204208757,14096.820544817514,14047.82552097148,13969.080325255434,14000.1045465594,14031.44169228574,14014.454366499707,13873.548969453452,13901.399243044763,14026.479605016662,13912.239839105589,13770.596834492308,13805.309093631398,13891.251551062054,13796.480154571553,13581.59048337823,13700.255894691456,13951.467150624652,13820.217707183088,13721.534755412908,13831.728855577572,13882.199094557654,13867.066963561412,13824.732759563061,13789.886389957237,13790.78045973545,13754.123598828746,13753.497749983997,13757.141084330213,13728.709665383061,13735.661057908663,13665.253062874444,13575.309643186289,13593.526314917364,13674.193760656568,13705.508554638453,13528.05805540777,13533.221308376946,13554.835445265227,13490.23890378939,13409.526754561277,13470.703479135453,13642.878966674682,13611.65357967062,13465.361412210634,13427.788129781262,13655.12772263619,13708.414281417643,13583.825657823762,13489.881275878106,13536.350552600688,13580.517599644376,13546.744113772407,13455.794865583763,13449.335211436179,13542.541985814809,13531.634334520619,13464.087362776681,13577.50011414291,13682.463906105031,13660.246272116456,13607.362044735199,13642.677800974585,13709.487165151497,13545.604174805187,13405.771661492785,13507.00271213087,13676.540693824374,13651.439684801066,13492.630540446109,13461.583967397686,13609.507812202908,13661.766190739418,13578.55064613231,13482.23697927439,13569.766410561373,13562.457390124488,13362.4539807384,13298.125660196027,13338.40350370449,13448.798769569252,13482.505200207854,13385.74449846083,13364.420934250467,13327.406445432478,13180.980167505762,13069.690831862788,13138.802425718597,13180.443725638836,13070.227273729715,12945.817464091477,12970.85141788142,13225.437787227367,13210.082138786573,13104.40309100188,13087.460468704758,13238.178281566892,13365.627928451053,13364.040954594728,13358.475370225355,13505.125165596624,13601.751756876918,13457.404191184545,13281.428907087911,13203.153098005427,13131.225184348248,12745.925813427666,12340.174596330477,12189.970873590813,12209.327484289108,12345.807235933213,12559.95929955951,12905.874896749843,13117.635323719422,13103.106689823473,13000.288665329059,13059.051401502062,13217.324103990091,13185.472868141278,13029.10006393195,13156.974393960762,13426.603487325132,13553.047305708804,13510.735453454907,13496.162116070047,13571.107515228692,13732.28594449591,13755.978793618537,13720.886554823705,13776.520046772963,14036.426131299273,14041.20940461271,13868.206902528633,13794.200276637112,13771.043869381414,13556.131846443635,13291.218971159336,13381.497667014322,13549.135750429125,13608.390224980143,13605.484498200954,13650.880891189683,13731.48128169552,13712.86227856425,13445.110731734125,13387.957321161906,13568.15708496059,13668.270548375911,13651.640850501162,13745.048790579891,13860.74141988056,14022.791567181537,13953.992897748101,13816.440262370143,13951.958889002668,14009.425223997263,13931.507042826062,13879.159257311734,13930.970600959135,13971.091982256412,13933.988086460602,13952.76355180306,13978.356299204386,14047.222023871187,14053.860491974414,14022.791567181537,14069.886692748869,14107.750547856158,14059.224910643687,13954.886967526314,14080.123791709399,14214.390720652429,14186.674557527847,14126.436606220796,14115.819527604524,14180.818400480557,14104.621303632415,14005.893648373325,13917.313685096942,13904.819059946425,13886.13300158179,13858.394486712754,13791.227494624556,13809.041834955435,13851.398390698241,13840.64720161524,13816.082634458857,13781.057450897391,13754.213005806567,13774.396631049709,13654.27835634689,13644.823568442294,13776.475343284053,13699.361824913243,13575.577864119752,13508.835555176205,13613.709940160506,13683.46973460552,13578.26007345439,13481.544075196276,13578.34948043221,13706.939066283592,13668.516417564919,13620.638980941652,13652.087885390269,13667.801161742349,13661.721487250506,13613.68758841605,13458.074743518204,13296.002244472773,13152.83932123653,13038.934831492286,13238.245336800259,13417.439272098456,13489.210723544446,13575.376698419655,13697.2831126789,13724.19461300309,13675.04312694587,13621.354236764222,13700.032377246902,13771.379145548242,13819.234230427055,13866.061135060923,13886.311815537432,13886.624739959805,13822.274067672977,13757.34225003031,13777.861151440282,13832.444111400142,13911.70339723866,13903.746176212571,13820.150651949723,13796.904837716203,13820.441224627642,13812.953390235114,13746.233433036023,13719.14311875619,13853.36534421031,13815.032102469457,13778.911683429682,13856.092257033857,13818.183698437655,13775.894197928215,13786.019538166469,13824.97862875207,13848.202091241134,13813.556887335408,13784.499619543509,13694.46679287753,13711.252952963467,13737.96328758756,13730.877784595226,13823.011675240003,13830.007771254514,13798.424756339164,13789.193485879123,13718.561973400352,13829.1137014763,13894.313740052432,13908.685911737193,13864.98825132707,13873.325452008898,13936.603240561873,13974.601206135894,13950.640136079805,13924.153318900266,13925.829699734415,13985.464153941173,14074.40174512884,14016.376616522863,13984.43597369623,13923.259249122055,13880.835638145882,13722.965267058047,13576.561340875787,13610.804213381316,13535.635296778119,13365.024431350761,13296.225761917325,13280.870113476529,13313.458956892367,13366.991384862828,13434.4713013734,13451.436275414977,13450.631612614587,13484.606264186654,13594.129812017658,13649.94211792256,13670.438667588076,13690.711699809039,13777.458820040087,13845.095198761845,13820.709445561106,13802.515125574486,13877.706393922139,13893.486725507586,13907.545972769973,13842.725913849583,13855.578166911384,13915.033807162501,13915.860821707347,13934.725694027627,13910.585810015895,13918.744196742082,13955.937499515714,13968.208607221677,14022.053959614512,13951.645964580293,13974.176522991243,14034.079198131467,13921.962847943647,13839.797835325937,13885.730670181594,13925.00268518957,13934.837452749904,13947.510891856062,13920.442929320685,13829.381922409764,13777.659985740183,13864.250643760044,13948.561423845462,14010.609866453395,13980.636177138827,13946.505063355573,13957.18919720521,13967.403944421285,14034.794453954037,14139.735894171703,14202.81251702458,14271.030041102176,14235.535470907149,14188.328586617541,14231.713322605292,14289.179657599887,14242.464511688295,14158.511359514161,14027.35132305042,14071.227797416186,14060.498960077639,14076.54751259655,14198.677444300349,14265.06212533261,14267.766686411702,14229.701665604314,14257.306070006618,14350.624603107526,14349.46231239585,14304.758823485236,14223.219659712275,14258.043677573643,14443.943136208432,14410.683740458935,14367.522521915738,14349.55171937367,14220.649209099915,14079.185018442276,14159.919519414845,14304.8258787186,14234.239069728741,14252.791017626647,14305.876410708,14365.309699214662,14321.522631826716,14284.977529642289,14282.094154607554,14283.323500552595,14292.174791356898,14327.378788874006,14262.804599142624,14255.29441300564,14409.454394513894,14474.117991223096,14397.540914719215,14401.586580465626,14620.208992982984,14762.768419118933,14773.474904713024,14724.144604700161,14663.70548769301,14644.103007805707,14660.285670791349,14627.56271690878,14667.70644995051,14691.086374650762,14685.118458881196,14637.263374002383,14613.503469646392,14687.800668215832,14792.49623924449,14794.932579390119,14761.315555729338,14723.898735511153,14577.338347117704,14395.37279550705,14435.181252381952,14510.283113751784,14591.50935310237,14557.02061140783,14512.54063994177,14558.741695730889,14550.672715982524,14489.652453619536,14406.168688078964,14314.303018367651,14389.360176248572,14415.556420750192,14371.277614984228,14362.806303835667,14335.760693044745,14309.050358420654,14291.928922167888,14362.51573115775,14311.39729158846,14283.077631363587,14290.87839017849,14339.560489602149,14306.144631641464,14315.822936990613,14201.985502479733,14280.194256328852,14328.898707496966,14427.067569144676,14391.841219883112,14362.22515847983,14411.71192070388,14436.723522749367,14386.297987258195,14339.851062280068,14381.246493011296,14399.239647297818,14398.144411819509,14330.575088331116,14305.943465941367,14360.861702068056,14452.213281656896,14427.559307522692,14388.108478559076,14449.352258366616,14504.53871542677,14470.541712110247,14470.429953387971,14661.157388825106,14713.7733952729,14542.11199785614,14600.494754373403,14634.692923390023,14570.476361569925,14532.813672162732,14492.28995946526,14520.721378412412,14543.229585078907,14454.001421213321,14444.948964708921,14456.124836936575,14425.61470575508,14417.053987628698,14437.23761287184,14385.158048290974,14418.395092296016,14449.307554877705,14410.147298592008,14394.478725728837,14419.08799637413,14405.095804345108,14408.917952646965,14435.67299075997,14415.891696917022,14439.8080634842,14414.28237131624,14384.532199446227,14326.283553395697,14373.758658618768,14401.251304298796,14348.009449006255,14353.12799848652,14327.937582485389,14294.029986146688,14296.511029781226,14327.959934229844,14377.133772031519,14392.936455361421,14376.55262667568,14239.692895375836,14204.734767047736,14292.68888147937,14343.807321048656,14282.496486007749,14283.926997652889,14244.587927411549,14216.312970675584,14305.719948496813,14325.814166762135,14281.557712740627,14241.793959354634,14241.43633144335,14310.726739254802,14264.548035210139,14216.76000556469,14173.37526957694,14219.688084088337,14356.212539221353,14336.543004100682,14308.40215783145,14287.302111065641,14282.049451118643,14302.858925206534,14341.616850092036,14319.510974825738,14348.478835639817,14354.312640942651,14349.574071118126,14330.239812164285,14396.51273447427,14420.451452785905,14356.03372526571,14345.975440260821,14413.254191071295,14382.632301167525,14313.855983478545,14319.22040214782,14378.22900750983,14443.540804808237,14435.449473315415,14392.288254772218,14397.719728674858,14431.716731991379,14399.016129853266,14371.299966728684,14345.394294904983,14365.779085848224,14472.553369111225,14480.15296222603,14531.606677962147,14541.21792807793,14498.369633957105,14449.665182788991,14412.494231759816,14453.397924113027,14482.63400586057,14490.658282120025,14492.938160054466,14497.654378134535,14480.890569793055,14444.390171097539,14501.454174691937,14608.22845795494,14553.042000894786,14473.939177267453,14476.286110435261,14472.598072600136,14428.609839512092,14322.439053349382,14377.066716798154,14445.32894436466,14384.263978512763,14293.0241576462,14312.179602644397,14278.808448172624,14212.893153773923,14117.60766716095,13982.446668439707,13982.178447506243,14104.420137932319,14166.647394495893,14153.817493178547,14144.586222718504,14331.402102875962,14408.269752057762,14262.446971231338,14214.278961930153,14226.371255680473,14133.432702235306,13930.389455603297,13754.43652325112,13761.566729732363,13966.800447320993,14096.284102950587,14027.753654450615,13950.66248782426,13981.418488194764,14017.24833455662,13960.81017980697,14017.427148512263,14074.424096873296,14020.288171802542,13950.61778433535,13881.014452101525,13903.187382601189,13971.00257527859,13843.195300483145,13855.555815166928,13790.936921946637,13857.925100079192,13998.919904103268,14002.518534960573,14055.760390253114,14083.990643500167,14111.326826969007,14135.042027836089,14151.448208266283,14145.480292496717,14106.923533311312,14042.237584857654,14010.945142620223,14091.769050570614,14186.272226127652,14152.252871066676,14118.233516005697,14154.8903769124,14166.71444972926,14177.577397534538,14122.122719540921,14075.161704440321,14115.148975270866,14154.644507723393,14168.189664863308,14176.19158937831,14159.405429292374,14229.589906882038,14231.087473760543,14288.710270966325,14332.02795172071,14280.574235984594,14259.608299685515,14302.50129729525,14315.599419546059,14279.188427828363,14236.988334296744,14208.132232204944,14266.604395700026,14299.126183882498,14324.942448728378,14350.669306596435,14387.773202392245,14313.230134633797,14289.246712833252,14316.873468980011,14301.383710072483,14257.976622340277,14287.033890132177,14242.218642499285,14154.666859467849,14080.392012642862,14018.365921779387,14050.015991928101,14087.321053424008,14098.318111696019,14054.732210008171,13991.812049366481,13954.551691359484,13878.779277655993,13932.42346434873,13904.461432035141,13938.32432488493,13974.489447413618,13990.090965043422,13850.07963777538,13798.603570294807,13828.68901833165,13823.078730473368,13842.50239640503,13911.792804216482,13945.186310432711,13880.478010234596,13825.135090963257,13915.32437984042,13916.46431880764,13884.389565514275,13899.856972677348,13861.501379192041,13872.163161297221,13851.107818020322,13815.143861191735,13821.044721727934,13779.24695959651,13769.255729824989,13726.42978744862,13822.45288162862,13836.869756802293,13842.010658027013,13816.149689692224,13762.371392532754,13920.666446765239,13973.058935768478,13881.41678350172,13962.643022852306,13983.161924262276,13912.999798417068,13882.579074213396,13862.730725137082,13848.716181363605,13825.246849685533,13776.184770606134,13728.66496189415,13756.068200596357,13736.823348620337,13670.796295499362,13681.61453981573,13644.89062367566,13610.714806403495,13642.856614930228,13706.156755227657,13652.423161557099,13540.195052647001,13555.461294109977,13557.2494336664,13480.426487973511,13613.352312249222,13646.432894043077,13626.718655433495,13637.93923115006,13628.327981034277,13635.927574149082,13606.490326701443,13577.567169376276,13510.176659843524,13589.435945682044,13647.50577777693,13634.586469481763,13543.547814315298,13545.403009105088,13566.860683782183,13604.858649356205,13631.770149680395,13702.46871739253,13688.431821874598,13649.785655711372,13656.2229581145,13608.814908124794,13743.14889230119,13737.493900953998,13700.52411562492,13716.974999544025,13701.306426680856,13664.090772162768,13687.247179418468,13719.903078067671,13720.66303737915,13669.455190832043,13640.107350362225,13615.185155294557,13685.391984628677,13680.116972937223,13642.811911441317,13712.437595419598,13667.75645825344,13655.574757525297,13663.911958207127,13614.067568071792,13741.696028911594,13812.215782668089,13793.283855114443,13746.971040603048,13723.300543224877,13775.022479894458,13788.858209712293,13811.858154756805,13815.076805958368,13796.435451082642,13735.705761397572,13692.097507965269,13761.320860543354,13858.394486712754,13906.428385547208,13910.719920482627,13835.036913756958,13793.060337669891,13863.155408281733,13858.573300668395,13860.964937325114,13895.744251697572,13883.093164335867,13813.623942568773,13833.226422456077,13913.357426328354,13897.398280787264,13824.084558973856,13812.551058834919,13893.710242952138,13913.737405984093,13887.049423104458,13829.896012532237,13792.255674869499,13839.93194579267,13880.2768445345,13898.962902899135,13814.696826302628,13844.290535961454,13956.988031505112,14044.584518025462,14047.669058760293,14064.477570590685,14214.256610185697,14317.11933816902,14358.89474855599,14205.67354031486,14171.56477827606,14228.472319659271,14143.669801195838,13985.575912663451,13933.541051571496,13927.193156146188,13948.986106990113,13993.1531540338,14104.1295652544,14219.173993965864,14208.512211860683,14172.9952899212,14073.440620117262,14141.546385472582,14272.77347716969,14237.72594186377,14223.711398090292,14267.25259628923,14321.679094037903,14322.662570793937,14282.83176217458,14218.212868954286,14256.367296739496,14349.328201929118,14329.41279761944,14272.952291125333,14278.137895838965,14312.514878811227,14364.169760247441,14428.252211600806,14469.357069654116,14448.122912421575,14457.085961948153,14416.04815912821,14412.76245269328,14422.32899932015,14441.462092573893,14461.33279339466,14456.728334036869,14520.564916201225,14593.141030447607,14576.913663973053,14597.276103171838,14604.451013141992,14562.742657988389,14565.603681278668,14589.162419934562,14586.077879199729,14573.739716260401,14557.422942808027,14458.158845682008,14368.930681816422,14513.010026575332,14542.11199785614,14606.037986998319,14631.966010566475,14658.89986263512,14660.911519636098,14665.605385971712,14714.086319695274,14694.014453174408,14662.207920814506,14722.557630843834,14798.307692802871,14830.673018774156,14866.234644202548,14860.065562732883,14825.50976580498,14835.41158859868,14824.526289048945,14764.78007611991,14736.192194961572,14795.983111379519,14759.706230128555,14697.367214842703,14680.581054756769,14663.23610105945,14638.93975483653,14708.140755670162,14705.05621493533,14674.411973287104,14630.893126832621,14665.985365627452,14728.212622191028,14731.051293736851,14746.049314266362,14751.793712591376,14692.226313617983,14665.605385971712,14716.321494140804,14661.157388825106,14645.7570368954,14668.868740662187,14696.33903459776,14742.517738642424,14789.12112583174,14737.265078695427,14716.656770307634,14740.953116530553,14816.5467162784,14883.557246155411,14841.021876456962,14820.502975046991,14781.387422250204,14760.555596417857,14773.609015179756,14776.246521025483,14706.129098669184,14744.507043898946,14802.241599827004,14803.940332405607,14760.846169095776,14767.037602309896,14814.959742422074,14824.392178582213,14844.776969525454,14882.439658932646,14903.495002209545,14883.557246155411,14872.18020822766,14827.208498383583,14816.256143600482,14882.41730718819,14854.455274874601,14824.101605904294,14856.578690597857,14872.604891372312,14837.691466533122,14823.811033226375,14817.485489545525,14792.987977622508,14795.044338112395,14836.752693265998,14831.812957741377,14815.160908122172,14855.326992908358,14817.530193034434,14794.127916589729,14800.609922481766,14812.322236576349,14802.666282971655,14815.809108711375,14865.94407152463,15063.354678553902,15008.145869749293,14954.188758634182,14906.691301666655,14915.85551689333,14933.71456071312,14922.359874529824,14974.77471527752,14932.842842679363,14885.479496178568,14823.162832637172,14864.334745923847,14855.729324308555,14849.023800971961,14804.02973938343,14759.505064428457,14729.531375113891,14700.988197444463,14645.891147362132,14661.269147547382,14682.324490824281,14687.130115882173,14630.803719854799,14613.436414413025,14571.50454181487,14674.076697120274,14752.128988758206,14740.975468275008,14752.7324858585,14808.097756874295,14789.54580897639,14773.139628546194,14701.256418377927,14665.38186852716,14776.380631492215,14767.194064521083,14806.421376040147,14823.252239614993,14728.525546613402,14642.806606627299,14687.912426938108,14785.097811829784,14838.272611888959,14768.713983144044,14630.13316752114,14560.507483542859,14593.677472314534,14534.467701252426,14594.504486859381,14616.409196425582,14591.062318213264,14476.040241246254,14402.190077565918,14347.473007139328,14324.02602720571,14364.549739903181,14386.633263425025,14466.987784741854,14544.190710090485,14552.393800305583,14616.185678981028,14714.28748539537,14802.107489360273,14844.88872824773,14781.387422250204,14774.860712869253,14829.398969340202,14849.023800971961,14816.5467162784,14802.6439312272,14887.737022368554,14861.429019144658,14901.572752186388,15171.425362995311,15424.62592418503,15507.036805991747,15336.403588819932,15295.969283100283,15440.316848792656,15475.811418987683,15321.830251435073,15098.402213859823,15073.971757170173,15225.605991554976,15360.141141431468,15442.842595916105,15564.056106097236,15632.497147619386,15587.03369939729,15499.727785554862,15457.907671678982,15408.800889110673,15245.074360975548,15162.775237891108,15224.734273521219,15284.324024239068,15241.408674884877,15195.140563862393,15234.122006192447,15214.653636771875,15156.159121532337,15080.409059573301,15088.947425955228,15096.837591747952,15061.991222142127,15086.086402664949,15160.025973323105,15134.61203987742,14861.406667400202,14791.624521210733,14824.950972193596,14923.388054774769,15034.297410762003,15047.104960334893,15012.772680851542,14990.756212563065,14986.039994482995,14963.375325605313,15024.037960057016,15028.195384525703,15052.849358659907,14988.342224161892,14960.71546801513,15045.763855667576,15055.822140672462,14978.462753112646,14939.995400905062,14960.827226737409,14978.865084512841,14904.925513854685,14919.923534384196,15017.377140209335,15114.495469867645,15039.661829431276,14966.862197740342,14930.875889167297,14992.566703863944,15075.536379282044,15018.047692542994,15037.650172430298,15102.023196461583,15053.497559249112,14972.181912920703,14934.362761302324,14987.403450894768,14981.212017680647,14973.29950014347,14961.4307238377,14918.873002394797,14869.90033029322,14792.16096307766,14776.201817536572,14751.100808513262,14768.423410466125,14759.147436517173,14661.358554525204,14607.110870732175,14585.250864654883,14568.487056313403,14469.401773143027,14457.130665437064,14549.7339427154,14571.906873215064,14583.21685590945,14426.24055459983,14433.169595380974,14398.636150197524,14314.034797434188,14337.571184345627,14431.940249435933,14444.434874586448,14427.268734844773,14359.654707867468,14441.484444318348,14434.533051792749,14371.814056851157,14321.477928337805,14338.956992501855,14520.8778406236,14691.175781628584,14707.358444614227,14642.314868249283,14679.642281489645,14630.826071599255,14552.438503794492,14496.82736358969,14513.099433553152,14545.889442669088,14593.36454789216,14600.070071228753,14555.612451507146,14534.691218696978,14577.003070950876,14504.896343338054,14537.976925131909,14599.779498550834,14612.497641145903,14548.102265370164,14468.194778942441,14590.280007157327,14577.31599537325,14509.210230017929,14477.850732547133,14504.024625304297,14504.561067171226,14508.047939306252,14482.522247138293,14487.752555340834,14523.090663324674,14502.124727025597,14431.76143548029,14446.938269965443,14496.894418823054,14545.062428124242,14480.331776181672,14468.8653312761,14494.05574727723,14524.811747647733,14453.017944457288,14470.541712110247,14445.910089720499,14367.991908549298,14419.780900452246,14505.499840438348,14524.677637181001,14551.41032354955,14479.191837214452,14431.269697102272,14486.187933228963,14466.63015683057,14452.548557823726,14488.356052441128,14490.546523397748,14520.96724760142,14442.982011196855,14495.173334499996,14594.437431626015,14557.35588757466,14487.14905824054,14474.073287734187,14570.699879014479,14696.473145064492,14644.438283972537,14612.698806846001,14604.540420119814,14619.493737160414,14598.12546946114,14679.61992974519,14763.6848406416,14777.20764603706,14758.901567328165,14740.036695007884,14761.226148751515,14810.779966208931,14770.278605255915,14712.588752816768,14688.694737994045,14663.99606037093,14803.180373094126,14832.192937397116,14800.051128870384,14762.008459807452,14766.121180787228,14789.858733398765,14815.630294755734,14878.61751063079,14900.52222019699,14910.424042990691,14797.21245732456,14772.223207023528,14793.367957278248,14744.976430532508,14745.848148566265,14810.534097019923,14852.264803917982,14822.425225070147,14773.16198029065,14770.144494789183,14856.60104234231,14864.5582633684,14841.915946235174,14796.988939880008,14864.088876734839,14855.125827208261,14747.524529400413,14789.769326420943,14853.427094629658,14856.623394086766,14867.240472703037,14953.562909789433,15087.27104512108,15181.19307532228,15137.338952700968,15023.92620133474,15062.102980864405,15055.710381950186,15019.321741976946,14839.636068300733,14656.24000504494,14648.7074671635,14771.373840734226,14942.09646488386,14981.547293847478,14948.153787631249,14883.087859521851,14847.168606182171,14860.311431921893,14942.990534662073,14970.326718130913,14988.5880933509,14966.549273317967,14984.408317137757,14929.937115900173,14934.519223513511,14954.14405514527,14995.628892854322,14998.132288233315,14979.379174635313,14926.740816443065,14928.23838332157,15009.174049994237,15027.256611258581,14989.660977084754,14930.160633344727,14954.188758634182,15044.556861466988,15083.784172986052,15083.27008286358,15048.446065002212,15017.73476812062,14989.280997429014,14982.553122347967,14960.871930226318,15023.30035248999,15063.444085531723,15037.806634641485,15006.134212748315,15035.705570662687,15016.371311708846,14976.987537978595,15037.69487591921,15070.641347246332,15157.455522710745,15079.783210728552,15024.820271112952,15034.11859680636,15002.557933635466,14918.515374483512,14861.250205189015,14895.403670716725,14966.05753493995,14984.140096204294,14926.986685632073,14679.6646332341,14751.816064335831,14823.431053570635,14859.864397032787,14989.772735807031,15155.220348265213,15180.4331160108,15180.455467755255,15179.896674143873,15172.207674051248,15195.207619095758,15133.494452654655,15124.03966475006,15126.386597917868,15126.006618262127,15083.806524730508,15064.919300665773,15106.337083141458,15091.003786445117,15042.522852721555,15021.601619911387,15001.328587690425,15125.224307206192,15138.054208523537,15107.18644943076,15115.99303674615,15053.40815227129,15023.032131556527,15035.102073562393,15057.342059295424,15101.598513316932,15076.139876382338,15046.389704512323,15104.101908695926,15077.235111860648,15045.987373112128,15126.90068804034,15115.724815812686,15140.110569013426,15117.870583280395,15114.60722858992,15075.692841493232,15140.579955646988,15161.43413322379,15167.782028649097,15135.014371277615,15067.60151000041,15070.864864690884,15088.858018977407,15084.857056719908,15156.80732212154,15148.201900506247,15155.3768104764,15171.62652869541,15245.767265053662,15393.959330792348,15383.94574927637,15295.097565066526,15242.079227218537,15247.622459843453,15317.046978121636,15323.908963669415,15300.014948846692,15331.776777717683,15316.957571143816,15299.858486635505,15352.69801052785,15331.173280617391,15283.474657949766,15268.722506609263,15258.708925093286,15223.504927576178,15247.86832903246,15349.077027926092,15332.067350395602,15329.027513149682,15361.549301332154,15326.211193348312,15318.388082788955,15320.913829912404,15348.585289548075,15344.763141246218,15306.98869311675,15289.286111508145,15334.883670196972,15366.153760689946,15396.552133149164,15346.439522080365,15356.073123940603,15388.438449911888,15425.810566641161,15370.691164814374,15372.255786926245,15387.365566178032,15415.551115936176,15380.99531900827,15411.416043211942,15424.312999762655,15370.42294388091,15330.145100372447,15450.621002986552,15531.511966170308,15431.19733705489,15364.209158922335,15391.321824946623,15478.247759133312,15541.480844197375,15508.936704270447,15522.392454432542,15522.97359978838,15507.372082158576,15489.714204038884,15558.17759730549,15591.191123865978,15519.665541608996,15474.87264572056,15465.171988626957,15526.192250989945,15641.728418079427,15605.160964150546,15568.392344521564,15542.30785874222,15530.237916736356,15543.35839073162,15593.60511226715,15594.298016345265,15592.532228533297,15597.695481502473,15601.025891426312,15551.69559141345,15560.144550817557,15621.053054458269,15581.691632472472,15577.623614981607,15591.392289566076,15617.297961389777,15615.062786944245,15601.85290597116,15598.969530936425,15653.843063574204,15662.359078211675,15592.107545388646,15624.182298682012,15605.809164739749,15589.827667454205,15641.504900634875,15638.509766877864,15595.795583223771,15590.453516298952,15557.261175782822,15478.627738789051,15501.135945455546,15686.923645368059,15712.784613702848,15696.758412928393,15727.425006321075,15787.193570994565,15866.296394621897,16013.572038837916,16053.089923034899,15966.946299904144,15920.678188881659,15917.213668491087,15886.994109987512,15724.54163128634,15595.013272167835,15650.087970505712,15654.021877529845,15705.408538032598,15815.423824241618,15789.629911140193,15832.813481427847,15955.30104104293,15934.178642532665,15858.339173595808,15835.22746982902,15911.268104465975,15928.76952037448,15929.216555263587,15892.582046101339,15882.836685518825,15929.797700619425,15936.100892555822,15916.744281857525,15902.617979361772,15881.987319229524,15909.547020142916,15886.591778587315,15867.9951272005,15907.155383486199,15917.079558024356,15875.326499381841,15872.040792946911,15872.286662135919,15899.399328160207,15910.172868987665,15882.456705863084,15921.594610404327,15725.659218509105,15597.159039635544,15633.48062437542,15706.526125255363,15774.274262699399,15795.664882143126,15773.156675476632,15770.586224864272,15810.819364883826,15791.798030352358,15813.211001540543,15812.69691141807,15895.465421136072,15930.803529119914,15950.182491562664,15957.424456766184,15947.388523505751,15958.720857944592,15975.551721519438,16018.310608662441,16025.597277354871,16021.372797652817,16033.375684425317,16051.74881836758,16067.37268774184,16037.019018771533,16085.455249006183,16138.160662431797,16119.943990700722,16138.42888336526,16144.19563343473,16069.876083120835,16021.864536030835,16019.092919718376,16038.002495527566,16019.227030185108,16009.012282969034,15969.96378540561,15888.894008266212,15836.903850663168,15850.828987458824,15862.787170742415,15817.793109153881,15836.836795429803,15859.814388729857,15844.458740289063,15831.539431993895,15807.019568326423,15827.583173225305,15882.456705863084,15900.807488060891,15873.203083658587,15807.779527637904,15769.468637641507,15800.090527545277,15815.043844585878,15789.473448929008,15773.603710365738,15751.1178554437,15693.696223938015,15674.67488940655,15724.787500475348,15702.748680442415,15654.088932763212,15686.29779652331,15647.294002448798,15694.143258827122,15731.940058701046,15767.07700098479,15701.54168624183,15707.509602011396,15817.167260309132,15972.623642995793,16102.911961425778,16068.758495898068,16068.84790287589,16027.854803544857,15990.706204260136,15969.181474349676,15870.766743512959,15771.636756853672,15693.651520449106,15645.23764195891,15707.710767711493,15729.011980177402,15670.875092849148,15507.886172281049,15429.029217842724,15454.510206521774,15375.161513705436,15295.87987612246,15311.928428641371,15360.588176320574,15325.562992759109,15270.242425232223,15239.039389972615,15159.645993667364,15031.749311894097,15006.201267981682,15018.427672198733,15113.4672896227,15267.359050197489,15391.277121457711,15429.208031798367,15563.653774697039,15628.071502217235,15605.56329555074,15648.031610015823,15731.20245113402,15740.679590783071,15815.692045175081,15912.877430066757,15959.212596322608,15955.502206743027,15909.904648054202,15952.037686352454,16111.986769674633,16118.535830800038,16026.379588410806,16061.65064116128,16135.232583908151,16105.460060293683,16075.888702379312,16122.67090352427,16171.8670930704,16205.171192308808,16257.854253989966,16263.710411037257,16234.139053122886,16278.976652500232,16276.942643754799,16256.669611533835,16315.454699451293,16407.163906951417,16426.945200794366,16409.935523263877,16321.892001854421,16383.135781661962,16370.797618722632,16352.603298736012,16433.78483459769,16404.124069705496,16386.510895074713,16343.796711420622,16332.911411870888,16391.67414804389,16382.57698805058,16423.748901337254,16544.090693484628,16512.999416947296,16485.12679161153,16445.20657601435,16433.874241575508,16404.19112493886,16425.022950771207,16466.708954180354,16486.110268367564,16469.50292223727,16505.26571336576,16470.084067593107,16446.50297719276,16484.143314855493,16526.9022019985,16527.662161309978,16482.4892857658,16435.550622409657,16423.145404236962,16466.86541639154,16471.5369309827,16575.47254269988,16708.510125697867,16706.319654741248,16748.340934317224,16673.708459580954,16410.941351764366,16367.735429732256,16450.83921561709,16369.970604177786,16263.442190103793,16226.338294307983,16214.313055791028,16302.647149878401,16359.152359861419,16372.786923979154,16348.80350217861,16363.555653519114,16441.093855034575,16448.894613849476,16405.800450539642,16391.45063059934,16414.741148321766,16405.01813948371,16424.687674604378,16419.904401290943,16475.627300218024,16511.524201813245,16472.989794372297,16395.5186480902,16362.907452929909,16373.546883290635,16429.49329966227,16501.60002727509,16544.627135351555,16523.884716497032,16558.060533769196,16628.848508459152,16691.25457897837,16713.852192622686,16735.51103299988,16910.905171740673,17017.32182709239,17018.662931759707,17115.13306082881,17133.461491282163,17078.38679294429,17065.534539882487,16995.104193103816,17013.61143751281,17069.915481795728,17130.91339241426,17173.269948157067,17184.19995119571,17219.515707435097,17225.75184413813,17212.497259676133,17333.688418112804,17417.798032498125,17445.000105500236,17421.486070333252,17464.043791776156,17387.131439105444,17217.571105667485,17159.143645661312,17218.2640097456,17212.40785269831,17196.202837968212,17220.253315002123,17292.047118192568,17373.183950565333,17297.188019417288,17249.645858960852,17239.5205187226,17271.57292027151,17347.01005780817,17301.345443885977,17214.97830331067,17160.484750328633,17138.11065412887,17150.270003112557,17147.341924588913,17093.250703007066,16972.75244864851,16902.478564081022,16984.956501121105,17074.65405162025,17019.735815493565,16980.575559207864,16921.231677679025,16970.964309092084,16942.577593633843,16951.16066350468,17040.165309925713,17010.526896777978,16972.953614348604,16987.16932382218,16967.54449219042,16955.608660651287,16961.800093865408,16982.207236553102,17014.23728635756,17015.332521835866,16951.227718738046,16943.605773878786,16928.831270793828,16983.436582498143,17037.170176168704,17013.902010190726,16980.284986529947,16960.950727576106,16930.038264994415,16947.517329158465,16985.537646476943,16985.671756943673,16996.914684404695,17140.3458285744,17121.503307998577,17074.51994115352,17054.38101939929,17010.973931667082,16912.179221174625,16882.49610453798,16876.036450390395,16886.3853080732,16877.75753471345,16844.073455819303,16772.994908451426,16834.104577792237,16890.989767430994,16887.838171462798,16900.82453499133,16904.06553793735,16852.075380334303,16831.51177543542,16871.81197068834,16906.948912972082,16845.23574653098,16828.717807378507,16814.144469993647,16824.113348020717,16833.232859758482,16843.402903485647,16874.963566656537,16888.06168890735,16847.51562446542,16803.773260566388,16856.366915269722,16808.020092012895,16796.955978507518,16850.711923922532,16842.084150562783,16737.947373145507,16730.3477800307,16735.443977766514,16810.501135647435,16837.122063293704,16818.14543225115,16946.712666358075,17122.933819643717,17112.741424172094,17062.94173752567,17002.659082729708,16960.12371303126,17002.614379240797,16971.67956491465,16875.209435845547,16829.366007967714,16801.068699487292,16889.358090085756,16932.049921995393,16826.639095144164,16790.473972615477,16784.439001612547,16809.584714124765,16772.614928795687,16781.75679227791,16819.218315985003,16768.524559560366,16722.703483426987,16725.810375906276,16712.086404810718,16661.996145486373,16650.596755814167,16621.539488022267,16625.853374702143,16665.05833447675,16714.142765300603,16683.520875396833,16701.22345700544,16665.505369365856,16676.05539274876,16693.44504993499,16659.49275010738,16681.4868666514,16654.932994238497,16573.550292676722,16422.988942025775,16407.34272090706,16546.66114409699,16570.868083342088,16451.82269237312,16448.224061515815,16513.044120436207,16475.69435545139,16477.97423338583,16489.865361436052,16512.977065202842,16440.557413167648,16392.657624799922,16398.111450447017,16406.605113340036,16307.519830169658,16401.978302237785,16514.049948936696,16558.440513424935,16556.674725612967,16599.388909267058,16686.493657409388,16756.544024532323,16810.791708325352,16741.300134813802,16671.272119435325,16669.01459324534,16649.121540680117,16448.44757896037,16318.94157158632,16388.857828242522,16516.776861760245,16573.550292676722,16566.57654840667,16555.51243490129,16565.74953386182,16566.57654840667,16404.794622039153,16360.09113312854,16362.549825018625,16284.31871942505,16274.930986753821,16332.71024617079,16412.170697709407,16435.036532287184,16392.948197477843,16388.030813697675,16374.865636213499,16419.39031116847,16368.271871599183,16391.7188515328,16441.227965501304,16462.17155005593,16479.047117119684,16443.30667773565,16444.379561469505,16466.150160568974,16450.950974339365,16428.509822906235,16415.970494266807,16441.11620677903,16448.984020827298,16449.96749758333,16469.16764607044,16530.12085320006,16504.818678476655,16454.817826130133,16491.49703878129,16513.088823925118,16542.101388228108,16541.766112061276,16498.11315514006,16537.072245725663,16479.292986308694,16447.508805693247,16578.959414834906,16595.81263015421,16572.924443831973,16557.971126791374,16535.351161402603,16518.22972514984,16604.686272702966,16651.5802325702,16613.828136185188,16625.29458109076,16598.696005188944,16575.450190955424,16525.27052465326,16553.076094755663,16624.601677012644,16623.66290374552,16617.605580998134,16557.881719813555,16516.754510015788,16462.52917796721,16507.456184322382,16490.55826551417,16427.883974061486,16432.73430260829,16419.949104779855,16347.976487633765,16328.686932168834,16347.037714366641,16295.22637071924,16242.900936949365,16271.645280318891,16299.070870765552,16218.135204092885,16143.569784589981,16121.9556477017,16147.593098591937,16189.68143340128,16194.978796837187,16150.610584093403,16175.264558227607,16182.685337386769,16153.29279342804,16165.362735433906,16210.043872600065,16177.67854662878,16135.925487986266,16131.43278735075,16133.131519929353,16087.936292640721,16045.289164219996,16061.22595801663,16065.003402829578,16041.17644324022,16000.8762479873,16027.944210522677,16057.403809714773,16061.382420227817,16070.189007543207,15996.830582240891,15957.469160255094,15996.137678162775,16020.366969152328,15985.699413502147,16033.040408258488,16249.002963185665,16193.592988680959,16133.28798214054,16129.689351283236,16057.962603326156,16039.142434494786,16079.934368125721,16126.023665192566,16097.033452634032,16046.049123531477,16017.774166795512,16026.334884921896,16003.200829410653,15938.961915846101,15910.888124810235,15967.460390026617,15955.97159337659,15941.532366458461,15967.527445259982,16001.300931131951,15947.25441303902,15886.234150676031,15958.9667271336,15978.323337831896,15982.033727411477,15982.167837878209,15981.474933800095,15980.156180877231,15932.457558209606,15936.413816978196,15981.340823333363,15953.02116310849,15969.49439877205,15952.68588694166,15911.066938765878,15929.216555263587,16010.35338763635,15976.468143042106,15927.271953495974,15910.86577306578,15929.328313985863,15959.793741678446,16026.580754110904,16020.232858685597,15979.172704121198,15962.58770973536,15922.891011582735,15911.335159699342,15914.9561423011,15895.532476369439,15920.789947603937,15886.770592542958,15829.572478481829,15930.736473886547,15954.9657648761,15905.031967762945,15923.583915660849,15908.496488153516,15927.808395362903,15951.791817163446,15900.71808108307,15871.817275502359,15958.653802711226,16031.74400708008,15961.693639957148,15951.747113674535,15965.359326047817,15963.973517891589,15920.208802248098,15916.766633601981,15977.473971542595,15997.83641074138,15960.464294012107,15920.991113304033,15885.295377408907,15932.837537865345,15979.820904710401,15975.551721519438,15953.155273575221,15915.336121956841,15886.122391953755,15951.121264829788,15887.418793132163,15652.032572273323,15620.382502124608,15718.707825983505,15769.781562063881,15775.704774344538,15763.143093960654,15764.283032927875,15768.21693995201,15854.695839249593,15889.76572629997,15821.45879524455,15842.312972821353,15859.367353840753,15881.42852561814,15876.622900560249,15854.494673549496,15902.461517150585,15985.386489079774,16066.500969708082,16198.175096294297,16295.405184674883,16252.042800431587,16150.610584093403,16140.9099269998,16116.479470310149,16052.352315467873,15905.09902299631,15854.718190994048,15920.655837137205,15990.505038560039,16080.381403014828,16159.841854553444,16159.037191753054,16197.124564304897,16222.247925072663,16189.748488634646,16141.446368866727,16170.973023292188,16253.160387654352,16264.336259882006,16222.359683794939,16265.096219193485,16363.868577941488,16334.788958405134,16258.569509812536,16228.953448409255,16194.375299736894,16186.663947899813,16173.118790759898,16178.39380245135,16192.453049713738,16201.505506218136,16191.246055513151,16152.24226143864,16189.972006079199,16192.944788091754,16175.8680553279,16286.062155492564,16306.89398132491,16246.164291639841,16225.846555929968,16166.86030231241,16162.300546443528,16209.10509933294,16228.327599564505,16197.482192216183,16247.415989329338,16242.342143337983,16227.455881530748,16212.010826112131,16266.280861649617,16260.402352857871,16225.623038485413,16216.995265125664,16225.086596618487,16261.095256935985,16241.06809390403,16259.508283079658,16280.720088567745,16303.161240000874,16296.075737008541,16300.03199577713,16275.109800709464,16279.870722278443,16332.41967349287,16366.126104131474,16343.66260095389,16346.702438199813,16382.845208984043,16353.787941192144,16310.537315671125,16261.586995314003,16266.79495177209,16314.828850606544,16269.968899484742,16196.319901504507,16186.30631998853,16157.494921385638,16108.075214394954,16091.579626986937,16020.009341241044,16071.217187788152,16064.51166445156,16012.0297684705,16001.658559043237,16026.491347133084,16051.838225345402,16135.009066463599,16127.543583815526,16153.315145172495,16240.97868692621,16342.813234664589,16430.990866540775,16468.944128625888,16428.44276767287,16442.59142191308,16522.297742640705,16654.597718071665,16771.162065406093,16745.41285579358,16735.756902188885,16810.27761820288,16862.401886272655,16848.14147331017,16822.973409053495,16820.335903207768,16846.28627852038,16861.217243816525,16838.887851105672,16889.67101450813,16921.92458175714,16948.389047192224,16919.53294510042,16924.02564573594,16949.752503603995,16989.963291879092,16994.545399492432,16992.489039002543,16997.920512905184,16948.567861147865,16915.241410165003,16964.437599711135,16960.526044431455,16944.611602379275,16953.686410628132,16929.52417487194,16890.565084286343,16915.375520631733,16977.89334987323,16974.16060854919,16967.4550852126,16983.704803431607,17029.90585922073,16952.993506550018,17070.742496340572,17060.997135758058,17043.60747857183,17073.201188230658,17059.43251364619,17047.295516406957,17082.544217412975,17192.581855366454,17276.602062773953,17529.780272219214,17880.143866556155,17925.942590945077,17996.819972612855,18039.824728944866,18411.17661132534,19200.46141153114,19354.956669206225,19428.896239864378,19483.635662035427,19327.62048573738,19164.45275121364,19099.766802759983,19013.62317962923,18900.433945707555,18865.34170691272,18785.99301409638,18727.498498856843,18731.3206471587,18697.569513031187,18623.540535395212,18559.569842764122,18394.189285539305,18159.183044336205,18017.361225767283,17885.821209647802,17722.474661168417,17560.893900501003,17534.340028088096,17498.71134742634,17449.202233457832,17439.345114153042,17491.670547922917,17501.55001897216,17519.90080116997,17558.32344988864,17522.89593492698,17566.437133125917,17555.8424062541,17525.62284775053,17590.085278759634,17685.773096772802,17675.781867001282,17652.20077660093,17648.73625621036,17748.536795203305,17804.349101108208,17792.56973178026,17729.76132986085,17769.74860069139,17845.49866265043,17928.825965979813,17932.938686959587,17962.621803596237,18019.238772301527,18037.835423688346,18014.41079549918,18024.51378399298,18051.84996746182,18096.508752883525,18100.017976763007,18032.09102536333,18105.6729681102,18162.58050949341,18134.953753346654,18122.77205261851,18235.715417351177,18372.150465506373,18455.589527558033,18515.55925793162,18613.281084690225,18560.35215382006,18467.79358003063,18502.79641184764,18598.685395560908,18572.69031675939,18526.735130159275,18528.09858657105,18741.28952518577,18990.645586329174,19059.37720052924,18919.1647075611,18945.673876485096,19016.4394994306,18954.81573996732,18875.958785528994,18895.896541583126,18890.777992102863,18868.806227303296,18904.4125562206,18957.430894068588,19058.19255807311,19071.022459390457,19071.804770446393,19068.67552622265,19058.72899994004,19043.663924177163,19025.380197212722,18992.299615418866,19019.255819231967,19094.514142812986,19121.26918092599,19077.236244349035,19058.080799350835,19071.670659979663,19070.597776245806,18976.273414644413,18978.083905945292,19039.10416830828,18999.04984224437,18961.253042370445,18941.292934571855,18950.45714979853,18973.792371009873,18974.597033810263,18953.474635299997,18950.792425965363,19009.2869412049,19053.05165684839,18996.18881895409,18976.586339066787,19012.170316239633,19048.693066679607,19023.81557510085,19029.2917524924,19039.215927030556,19058.751351684496,19026.006046057468,19052.314049281365,19065.43452327663,19022.027435544423,18988.633929328196,19053.92337488215,19140.98341953557,19113.89310525574,19043.44040673261,19088.792096232428,19058.259613306476,18987.71750780553,18925.84787915324,18952.111178888223,18939.057760126325,18911.3639487462,18915.78959414835,18812.94921790948,18837.379674599135,18943.550460761842,18953.005248666435,18894.93541657155,18883.111343754692,19025.693121635097,19094.469439324075,18957.02856266839,18906.603027177218,18966.148074406156,18834.093968164205,18537.66513319792,18440.680914006345,18633.464709933367,18840.30775312278,18833.445767574998,18684.806666947206,18735.589830349665,18907.295931255332,18877.948090785514,18706.33139685767,18671.59678597412,18826.270857604846,18839.793663000306,18628.234401730824,18629.866079076062,18827.500203549887,18872.74013432743,18646.339314739624,18583.977947709318,18687.913559426495,18799.918150892037,18687.712393726397,18599.758279294765,18680.202207589413,18779.108676804146,18733.265248926313,18624.68047436243,18694.41791706299,18815.67613073303,18731.94649600345,18617.393805670003,18682.727954712864,18837.78200599933,18743.14471997556,18677.65410872151,18752.733618346887,18809.998787641383,18832.574049541243,18737.28856292827,18720.725920286885,18707.89601896954,18600.853514773073,18588.425944855924,18666.83586440514,18736.059216983227,18815.787889455307,18843.325238624246,18853.227061417947,18849.96370672747,18845.962744469973,18843.280535135335,18771.732601133896,18828.21545937246,18924.305608785824,18885.994718789425,18848.421436360055,18941.4717485275,19006.42591791462,18945.22684159599,18842.408817101576,18840.195994400503,18845.269840391855,18876.472875651467,19100.50441032701,19638.779120299714,19875.238224892408,19744.70403727341,19594.276797089195,19615.935637466388,19726.554420775705,19802.43859320147,19764.91001426101,19710.908199656988,19649.440902404895,19637.37096039903,19541.750197619225,19442.57550747103,19385.153875965345,19404.197562241265,19418.390919970385,19305.380500004354,19242.102711451378,19231.530336324016,19182.31179503343,19100.817334749383,19127.326503673376,19157.926041832692,19060.539491240917,18939.32598105979,18924.97616111948,19040.199403786588,19048.91658412416,18873.41068666109,18768.15632202105,18762.635441140585,18558.385200307992,18027.71008345009,17666.528244796784,17809.869981988668,18113.429023436194,17969.282623443916,17754.1917865505,18034.884993420244,18316.874601468397,18265.264423521094,17988.549827164392,18059.18133964316,18330.33035163049,18304.20116236224,17983.65479512868,17949.12134994523,18155.852634412364,18039.780025455955,17728.040245537788,17690.623425319605,17913.000930905455,17957.860882027257,17855.221671488485,17781.729135719437,17948.048466211374,18117.76526186052,18068.569072314393,17917.538335029883,18044.09391213583,18222.23731544463,18135.758416147044,17971.02605951143,18026.77131018297,18264.035077576053,18279.010746361106,18112.154974002242,18273.556920714014,18613.996340512793,18741.915374030516,18632.570640155154,18515.827478865085,18631.87773607704,18724.99510347785,18505.70213862683,18198.298597132994,18144.72146567362,18121.363892717825,17893.465506251516,17790.468667801462,18044.42918830266,18197.449230843693,18032.04632187442,17984.079478273332,18142.419235994726,18370.138808505395,18323.825993994,18149.571794220425,18253.88738559334,18467.03362071915,18358.404142666357,18124.046102052464,18208.46864086016,18429.817966201063,18443.519585552167,18232.47441440516,18174.628099754824,18353.687924586287,18435.40590231489,18365.087314258493,18336.54413658907,18603.759241552263,18854.43405561853,18868.06861973627,18875.467047150978,19015.366615696745,19121.3138844149,18998.781621310907,18876.24935820691,18917.398919749132,19039.73001715303,18957.69911500205,18798.420584013533,18907.54180044434,19098.895084726228,19061.321802296854,18893.035518292847,18858.613831831673,19039.90883110867,19103.2089714061,18877.389297174133,18818.24658134539,19063.311107553378,19182.89294038927,18961.342449348267,18852.332991639734,18975.75932452194,19110.58504707635,18983.045993214368,18909.687567912053,18992.031394485402,19095.87759922476,19044.15566255518,18922.383358762665,18966.3268883618,19219.058062917957,19178.51199847603,19006.269455703434,19004.213095213545,19129.584029863363,19145.520823659997,18920.751681417427,18886.17353274507,19051.732903925527,19016.52890640842,18799.985206125406,18711.829925993672,18811.742223708898,18881.189093731537,18778.43812447049,18719.83185050867,18900.36689047419,19045.04973233339,18860.804302788296,18680.73864945634,18813.35154930968,19024.262609989957,18965.544577305864,18812.14455510909,18871.93547152704,19032.2421827605,18952.93819343307,18718.267228396802,18763.127179518604,19061.25474706349,19109.35570113131,18858.077389964747,18797.90649389106,18986.018775226927,19039.327685752833,18811.406947542066,18674.971899386874,18767.172845265013,18827.16492738306,18598.126601949527,18449.97923969975,18632.794157599707,18881.054983264803,18726.13504244507,18541.688447199875,18667.55112022771,18801.348662537177,18622.981741783828,18367.948337548773,18423.87240217595,18527.159813303926,18396.580922196023,18104.8236018209,17916.286637340385,17915.236105350985,17887.34112827076,17607.229066756852,17540.2408886243,17771.246167569898,17871.516093196406,17720.865335567636,17682.129762426586,17905.35663430174,18120.760395617534,17937.07375968382,17771.51438850336,17945.96975397703,18115.95477055964,18007.79467914041,17899.9251603991,18007.99584484051,18106.12000299931,17923.461547310537,17643.975334641378,17754.437655739504,17943.913393487142,17792.167400380065,17550.030952695724,17577.367136164565,17772.52021700385,17760.785551164812,17518.917324413935,17455.080742249578,17632.35242752462,17701.7769458028,17443.88251827747,17306.15106894387,17492.74343165677,17638.655619461017,17431.343189638043,17276.199731373756,17567.934700004425,17721.446480923474,17607.541991179227,17440.59681184254,17494.777440402206,17690.131686941586,17683.69438453846,17554.18837716441,17661.588509272162,17934.436253838096,17961.012477995453,17757.723362174434,17795.229589370443,18070.357211870814,18186.049841171487,18064.18813040115,18092.038403992465,18349.68696232879,18535.6758279414,18325.43531959478,18221.723225322155,18390.009509326163,18556.57470900711,18396.044480329096,18203.014815213064,18391.685890160312,18655.637640433033,18560.843892198074,18290.208970333217,18316.874601468397,18486.099658739528,18428.923896422853,18301.96598791671,18406.907428134375,18545.10826410154,18534.021798851707,18308.470345553204,18256.077856549964,18478.053030735617,18582.838008742096,18471.436914376845,18430.555573768088,18649.267393263268,18719.161298175015,18580.06639242964,18425.213506843273,18539.63208670999,18673.78725693074,18546.784644935688,18475.862559778998,18675.17306508697,18805.32727305022,18688.98644316035,18496.649682122432,18544.14713908996,18736.349789661144,18651.39080898652,18410.55076248059,18514.57578117559,18838.854889733182,18860.804302788296,18537.598077964554,18529.350284260545,18815.094985377193,18906.69243415504,18653.44716947641,18606.173229953438,19001.91086553465,19158.93187033318,18786.149476307568,18418.5973904845,18654.184777043436,19005.934179536605,18768.223377254413,18321.590819548466,18370.54113990559,18662.007887602795,18494.14628674344,18186.02748942703,18397.206771040772,18775.75591513585,18711.137021915558,18368.57418639352,18368.753000349167,18782.52849370581,18867.465122635975,18455.544824069122,18333.303133643047,18713.774527761285,19038.523022952442,18695.759021730308,18514.10639454203,18847.572070070753,19156.875509843292,18857.58565158673,18566.498883545268,18883.625433877165,19144.090312014858,18930.78761467786,18698.620045020587,18837.02204668785,19220.667388518737,19088.792096232428,18637.733893124332,18720.591809820155,19197.689795218685,19211.614932014338,18728.012588979316,18636.39278845701,19112.842573266338,19272.635194377326,18815.743185966396,18711.338187615656,19139.93288754617,19344.764273734603,18936.576716491785,18713.953341716926,19070.30720356789,19382.49401837516,19040.422921231144,18658.476311978855,18969.724353519006,19387.903140533344,19200.573170253418,18812.993921398393,19090.535532299942,19523.600581121515,19322.367825790385,18919.052948838824,19068.116732611266,19531.15547074741,19503.662825067382,19053.655153948683,19001.307368434354,19441.99436211519,19517.96794151878,19064.67456396515,18909.575809189773,19331.53204101706,19614.460422332337,19171.202978039146,18860.357267899188,19233.318475880442,19508.647264080915,19144.69380911515,18825.175622126535,19075.06812513687,19415.686358891293,19160.429437211686,18650.317925252668,18845.135729925125,19339.802186465524,19198.89678941927,18619.316055693158,18662.633736447544,19240.180461428223,19248.96469699916,18704.945588701437,18620.97008478285,19094.82706723536,19228.848126989382,18741.691856585963,18534.021798851707,18978.329775134298,19238.705246294172,18850.097817194204,18580.20050289637,19003.028452757415,19273.261043222075,19011.298598205878,18561.067409642626,18816.570200511243,19294.2046277767,19051.732903925527,18577.898273217474,18776.270005258324,19198.42740278571,19115.949465745623,18601.769936295743,18612.409366656466,19102.3596051168,19170.04068732747,18561.313278831636,18347.45178788326,18729.04076922426,18781.567368694232,18322.239020137673,18072.502979338526,18316.71813925721,18440.5021000507,18059.941298954644,17697.50776261184,17801.555133051294,17792.27915910234,16788.93170224806,15747.139244930655,16629.563764281724,17920.533468786893,17413.77471849617,16152.555185861014,16784.483705101455,18302.569485017,17969.528492632926,16411.16486920892,16694.003843546372,18409.92491363584,18525.684598169875,16911.173392674136,16845.772188397907,18583.553264564667,19018.942894809592,17316.43287139331,16721.40708224858,18358.67236359982,19281.91116832628,17792.525028291348,16832.227031257993,18199.103259933385,19452.633792475914,18328.318694629514,17053.28578392098,17974.110600246262,19290.695403897214,18630.82720408764,17219.18043126827,17697.88774226758,19183.78701016748,18905.708957399005,17470.07876277909,17588.54300839222,18950.88183294318,19082.354793829298,17860.07200003529,17665.008326173822,18705.79495499074,19011.633874372706,18041.27759233446,17506.422699263418,18403.286445532616,19013.15379299567,18099.168610473705,17381.744668691717,18267.834874133456,19103.611302806297,18347.898822772364,17414.735843507748,18168.54842526298,19155.55675692043,18711.98638820486,17625.602200699115,18047.53608078195,19357.21419539621,19208.61979825733,17958.8890622722,17965.907510031167,19201.243722587078,19442.284934793108,18234.866051061876,17914.74436697297,19019.412281443154,19578.719982948303,18591.979872224318,18011.058033830886,18966.192777895067,19640.92488776742,18905.46308821,18203.46185010217,18789.27872053131,19494.051574951598,19085.640500264228,18427.851012688996,18826.002636671383,19423.80004212857,19294.808124876992,18807.271874817834,18928.68655069906,19500.46652561027,19489.402412104897,18933.35806529022,18878.529236141352,19358.085913429968,19445.257716805663,18982.666013558628,18858.01033473138,19339.01987540959,19606.860829217534,19292.371784731364,19158.88716684427,19628.273800405717,19934.09036804323,19502.254665166696,19095.63173003575,19425.677588662817,19805.5231339363,19441.167347570343,18843.034665946325,18958.95081269155,19519.107880485997,19475.387868331418,18993.05957473035,18988.499818861463,19581.44689577185,19640.790777300692,19109.512163342497,18905.46308821,19450.108045352466,19641.97541975682,19148.247736483543,18952.781731221883,19390.94297777927,19721.61468525108,19309.023834350566,18913.375605747176,19319.842078666938,19721.61468525108,19311.99661636312,18823.655703503573,19230.882135734813,19832.188765071485,19469.91169093987,18749.89494680106,18903.294968997834,19675.70420213988,19553.39545648044,18794.754897922863,18782.662604172543,19562.671430429393,19707.71190019988,18971.445437842063,18795.00076711187,19483.412144590875,19846.06919837823,19192.727707949605,18875.48939889543,19520.71720608678,19933.509222687393,19411.640693144884,18998.96043526655,19474.538502042116,19956.062132842795,19566.44887524234,19026.922467580138,19393.111096991433,20013.90844749313,19787.172351738496,19241.610973073362,19411.394823955874,19979.307947076315,19896.897065269597,19359.717590775203,19372.189864181266,19754.851729256123,19566.69474443135,18844.755750269385,18448.526376310158,18490.212379719305,18440.5021000507,18004.7995453834,17787.47353404445,18149.25886979805,18508.920789828397,18292.466496523204,18036.740188210035,18308.20212461974,18599.78063103922,18307.397461819346,17871.516093196406,17975.585815380313,18246.176033756263,18005.13482155023,17568.71701106036,17590.219389226364,17949.70249530107,17911.50336402695,17671.53503555477,17748.916774859044,18125.275447997505,18206.501687348093,17977.820989825846,18031.9569148966,18301.407194305324,18490.94998728633,18350.62573559591,18223.22079220066,18379.794762110087,18613.437546901412,18542.984848378284,18384.868608101442,18513.94993233084,18637.84565184661,18519.269647511202,18557.513482274233,18733.17584194849,18953.22876611099,18904.16668703159,18761.786074851283,18890.64388163613,19086.623977020263,19016.327740708322,18836.06092167627,18904.50196319842,19189.71022244814,19232.46910959114,19006.20240047007,18966.930385462092,19155.288535986965,19259.33590642642,19188.74909743656,19099.05154693741,19203.300083076963,19369.909986246825,19277.641985135317,19103.052509194913,19124.510183872007,19340.316276587997,19341.433863810762,19221.159126896757,19275.183293245234,19410.768975111125,19367.9206809903,19293.981110332144,19317.092814098934,19474.2479293642,19614.482774076794,19795.01781404231,20008.968711968508,20208.592141698857,20343.574326464455,20304.34701494539,20175.846836071833,19928.748301118412,19607.129050150998,19377.64368982836,19203.769469710525,19148.98534405057,19107.74637553053,19034.164432783655,18908.83820162275,18889.347480457724,18903.563189931298,18818.73831972341,18798.219418313434,18882.194922232025,18862.994773744915,18921.2657715399,18973.211225654035,18959.75547549194,19023.14502276719,19115.2118581786,19089.082668910345,19105.06416619589,19252.295106922997,19355.515462817606,19311.14725007382,19315.639950709337,19389.668928345316,19397.11205924893,19394.519256892116,19401.85062907346,19485.267339380665,19283.72165962716,19217.04640591698,19251.57985110043,19295.232808021643,19333.76721546259,19617.813184000635,19887.73285004292,19860.195500873986,19793.989633797366,19732.499984800816,19695.485495982826,19572.036811356167,19326.97228514818,18991.964339252037,18622.959390039374,18376.129076019417,18354.045552497573,18440.144472139415,18609.72715732183,18863.844140034216,19240.068702705947,19645.0376087472,19847.991448401386,19971.127208605674,19915.31490270077,19803.600883913146,19573.646136956948,19314.611770464395,19262.800426816993,19328.02281713758,19173.862835629327,19020.19459249909,18999.22865620001,19020.172240754633,18971.512493075432,18850.678962550042,18820.481755790923,18910.60398943472,18912.79446039134,18796.587740968196,18796.92301713503,18853.67409630705,18836.507956565376,18905.239570765447,18985.705850804552,19150.12528301779,19307.369805260874,19327.799299693026,19352.699143016238,19308.91207562829,19217.09110940589,19154.148597019746,19032.800976371884,18986.21994092702,18970.059629685835,18864.514692367877,18840.598325800696,18971.71365877553,19134.88139329927,19104.21479990659,18996.971130010024,19083.49473279652,19165.592690180863,19160.876472100794,19091.988395689536,19115.50243085652,19195.544027750973,19197.913312663237,19233.005551458067,19203.70241447716,19295.679842910748,19336.516480030594,19232.04442644649,19242.77326378504,19322.166660090286,19321.96549439019,19359.985811708666,19366.668983300806,19397.60379762695,19455.003077388177,19385.22093119871,19388.998376011656,19536.832813839057,19680.822751620144,19679.28048125273,19637.661533076945,19695.03846109372,19705.923760643454,19720.18417360594,19685.538969700214,19707.868362411067,19775.571796366192,19834.848622661666,19878.769800516344,19913.258542210882,19833.619276716625,19827.31608478023,19783.551369136738,19599.17182912491,19554.35658149202,19595.86377094552,19568.34877352104,19550.310915745606,19555.38476173696,19598.031890157687,19661.197919988386,19690.076373824642,19681.202731275884,19768.463941629405,19751.968354221386,19720.564153261683,19765.133531705564,19801.991558312366,19790.569816895702,19740.703075015914,19730.9577144334,19769.067438729697,19793.43084018598,19699.575865218147,19660.16973974344,19656.012315274755,19640.611963345047,19576.10482884703,19514.838697295036,19511.083604226544,19530.395511435927,19479.70175501129,19369.038268213066,19397.335576693487,19454.80191168808,19496.733784286236,19463.027353647634,19479.38883058892,19502.47818261125,19527.86976431248,19559.184558294364,19457.439417533806,19470.559891529072,19538.620953395483,19437.903992879867,19351.961535449213,19450.242155819196,19513.855220539,19443.693094693794,19351.603907537927,19426.50460320766,19498.566627331573,19445.213013316752,19350.553375548527,19427.488079963696,19444.117777838444,19376.391992138862,19299.077308067957,19349.614602281406,19476.10312415399,19459.60753674597,19427.9351148528,19397.536742393582,19447.22467031773,19450.13039709692,19406.388033197883,19428.73977765319,19481.75811550118,19467.877682194434,19428.896239864378,19408.332634965496,19483.702717268792,19517.38679616294,19407.863248331934,19352.229756382676,19418.770899626124,19506.769717546667,19488.284824882132,19452.253812820174,19437.32284752403,19488.418935348862,19482.205150390288,19372.323974647996,19357.527119818584,19430.61732418744,19451.337391297508,19385.623262598903,19401.716518606725,19486.183760903332,19489.469467338262,19437.769882413137,19388.864265544926,19447.314077295552,19494.878589496446,19444.922440638835,19410.45605068875,19491.27995863914,19520.85131655351,19392.261730702132,19414.524068179617,19492.643415050916,19555.898851859434,19501.226484921754,19367.808922268025,19387.21023645523,19456.478292522228,19453.349048298485,19425.74464389618,19380.057678229532,19483.009813190678,19487.14488591491,19326.413491536798,19332.649628239826,19533.882383570955,19557.8658053715,19439.110987080454,19367.272480401098,19416.312207736042,19509.228409436753,19440.005056858667,19364.45616059973,19477.444228821307,19530.57432539157,19484.46267658027,19449.728065696727,19441.413216759353,19539.7608923627,19524.38289217745,19418.234457759198,19451.583260486517,19586.25252082974,19528.361502690495,19414.479364690706,19498.074888953553,19577.2224160698,19563.67725892988,19476.438400320818,19444.587164472006,19501.740575044227,19562.894947873945,19541.549031919127,19521.43246190935,19560.793883895145,19597.78602096868,19546.466415699295,19501.38294713294,19526.171031733877,19538.10686327301,19483.389792846418,19351.93918370476,19257.681877336727,19276.390287445818,19234.61487705885,19295.657491166294,19351.648611026838,19397.536742393582,19380.88469277438,19374.760314793624,19404.532838408093,19399.79426858357,19410.41134719984,19394.094573747465,19407.997358798668,19456.74651345569,19446.196490072787,19425.87875436291,19450.599783730482,19476.259586365173,19574.048468357145,19692.982100603833,19799.644625144556,19833.395759272073,19773.940119020954,19638.734416810803,19592.98039591079,19539.045636540133,19436.540536468096,19378.582463095485,19254.798502301994,19263.314516939463,19383.946881764758,19413.94292282378,19441.56967897054,19542.331342975063,19581.715116705313,19540.8114243521,19396.329748193,19289.57781667445,19353.190881394254,19419.284989748598,19353.816730239003,19235.486595092607,19194.69466146167,19306.453383738208,19384.326861420497,19327.352264803918,19303.39119474783,19256.9442697697,19182.200036311155,19158.149559277244,19166.866739614816,19165.995021581057,19075.895139681714,19034.611467672763,18982.017812969425,18952.17823412159,18931.83814666726,18941.449396783042,18889.682756624552,18833.266953619357,18828.126052394637,18853.562337584775,18814.044453387793,18811.406947542066,18782.57319719472,18790.217493798435,18763.261289985334,18727.252629667837,18691.176914116968,18641.444282703913,18623.62994237303,18570.164569635937,18575.10430516056,18620.12071849355,18671.55208248521,18655.592936944122,18659.21391954588,18659.41508524598,18628.100291264094,18551.411456037935,18557.04409564067,18548.349267047557,18497.543751900645,18489.295958196635,18494.593321632543,18526.824537137098,18555.05479038415,18476.309594668102,18370.02704978312,18326.10587192844,18327.759901018133,18331.872621997907,18288.398479032337,18250.400513458313,18288.912569154807,18230.28394344854,17971.338983933805,17999.077498802842,18055.67211576368,18032.202784085606,18035.62260098727,18012.689711176125,17985.733507363024,17993.780135366935,18014.343740265816,17912.956227416544,17992.930769077633,17997.021138312954,17910.609294248738,17896.728860941992,17941.946439975076,17964.097018730285,17941.387646363695,17936.246745138975,17893.867837651713,17878.467485722005,17909.245837836963,17915.97371291801,17902.093279611265,17878.266320021907,17870.554968184828,17858.105046523222,17856.093389522244,17829.18188919805,17896.170067330608,17936.537317816892,17811.121679678166,17889.665709694113,17929.205945635553,17832.57935435526,17829.941848509534,17921.092262398277,17894.672500452103,17817.51427859238,17801.66689177357,17854.68522962156,17837.161461968597,17778.04109788431,17822.8563455172,17828.936020009045,17755.711705173457,17705.532038871293,17742.65828641156,17715.635027365093,17671.378573343583,17724.754539102858,17749.85554812617,17718.339588444185,17770.150932091587,17783.09259213121,17673.814913489212,17632.598296713626,17663.331945339676,17677.570006557704,17604.457450444395,17609.844220858125,17601.350557965106,17568.98523199382,17550.142711418,17502.734661428294,17501.41590850543,17537.245754867286,17483.780382130193,17504.45574575135,17542.27489736973,17465.2731377212,17428.63862855895,17381.744668691717,17329.262772710656,17323.920705785837,17334.89541231339,17386.594997238517,17345.15486301838,17261.805207944537,17322.244324951687,17351.97214507725,17309.727348056716,17346.63007815243,17368.33362201853,17434.315971650598,17453.583175371074,17450.20806195832,17324.255981952665,17363.572700449553,17295.08695543849,17173.202892923702,17249.4223415163,17303.915894498336,17345.33367697402,17338.538746659608,17282.860551221438,17277.74200174117,17256.574899741998,17155.522663059553,17115.222467806634,17113.210810805656,17074.698755109162,17078.632662133296,17032.94569646665,17037.304286635434,17022.2168591281,16868.012174130938,16991.773783179975,17089.450906449667,17127.91825865725,17115.78126141802,16989.65036745672,16918.348302644292,16897.158848900657,16797.17949595207,16786.920045247083,17079.81730458943,16983.88361738725,16827.935496322574,16840.56423193982,16888.776944729918,16918.88474451122,16858.19975831506,16860.23376706049,16776.995870708928,16748.296230828313,16771.787914250843,16744.74230345992,16687.790058587798,16774.045440440826,16785.958920235506,16906.52422982743,16967.008050323493,16692.34981445668,16714.83566937872,16748.87737618415,16740.89780341361,16654.35184888266,16413.735319821277,16306.692815624812,16333.38079850445,16393.30582538913,16345.47309225477,16424.15123273745,16407.38742439597,16309.151507514896,16208.166326065819,16203.15953530783,16178.572616406993,16075.531074468026,16173.454066926726,16102.04024339202,16075.016984345555,16090.41733627526,16137.19953742022,