39193 
39224 
39328 
39419 
39447 
39492 
39588 
39664 
39732 
39798 
39859 
39910 
39930 
39936 
39983 
40116 
40245 
40315 
40401 
40506 
40599 
40690 
40772 
40875 
40969 
40999 
41021 
41065 
41201 
41366 
41563 
41619 
41649 
41683 
41712 
41804 
41892 
41955 
42098 
42120 
42064 
42063 
42092 
42159 
42204 
42284 
42367 
42438 
42474 
42513 
42584 
42643 
42688 
42757 
42835 
42879 
42905 
42967 
42982 
42934 
42918 
42948 
42987 
43023 
43123 
43183 
43185 
43148 
43151 
43153 
43161 
43199 
43205 
43129 
43068 
42955 
42836 
42736 
42629 
42477 
42253 
41987 
41664 
41289 
40879 
40453 
40089 
39744 
39338 
38890 
38438 
38046 
37658 
37261 
36931 
36570 
36200 
35860 
35550 
35223 
34924 
34655 
34384 
34133 
33895 
33716 
33589 
33496 
33357 
33190 
33033 
32910 
32845 
32797 
32738 
32715 
32697 
32727 
32752 
32753 
32800 
32858 
32957 
33080 
33195 
33300 
33400 
33489 
33598 
33751 
33901 
34060 
34219 
34407 
34580 
34805 
34999 
35158 
35296 
35476 
35697 
35920 
36142 
36347 
36553 
36730 
36897 
37115 
37304 
37492 
37655 
37824 
38019 
38160 
38305 
38506 
38708 
38868 
39001 
39182 
39346 
39488 
39583 
39639 
39711 
39834 
39996 
40158 
40299 
40435 
40569 
40724 
40832 
40895 
40970 
41074 
41249 
41343 
41424 
41540 
41605 
41689 
41796 
41950 
42108 
42212 
42334 
42446 
42545 
42703 
42813 
42904 
42990 
43029 
43075 
43178 
43314 
43429 
43506 
43567 
43636 
43745 
43856 
43930 
43933 
44011 
44134 
44187 
44184 
44209 
44277 
44343 
44447 
44544 
44606 
44643 
44737 
44872 
44938 
44989 
45048 
45038 
45099 
45177 
45250 
45340 
45369 
45448 
45556 
45643 
45708 
45773 
45703 
45648 
45577 
45395 
45183 
44981 
44728 
44435 
44127 
43820 
43481 
43107 
42753 
42396 
41998 
41597 
41205 
40766 
40295 
39907 
39510 
39094 
38708 
38344 
37982 
37659 
37309 
36984 
36709 
36445 
36207 
35963 
35760 
35572 
35416 
35306 
35268 
35244 
35203 
35146 
35070 
35060 
35106 
35150 
35216 
35314 
35403 
35462 
35528 
35618 
35738 
35897 
36031 
36202 
36373 
36537 
36769 
36990 
37151 
37307 
37520 
37710 
37883 
38030 
38217 
38432 
38636 
38808 
38995 
39184 
39336 
39451 
39564 
39697 
39858 
39995 
40094 
40134 
40237 
40361 
40484 
40592 
40737 
40913 
41084 
41207 
41332 
41403 
41455 
41515 
41565 
41601 
41711 
41789 
41840 
41948 
42118 
42215 
42272 
42350 
42466 
42598 
42682 
42742 
42811 
42905 
42954 
43012 
43071 
43174 
43268 
43300 
43366 
43491 
43591 
43742 
43891 
43952 
44002 
44023 
44064 
44181 
44289 
44375 
44454 
44574 
44682 
44783 
44870 
44950 
45008 
45071 
45145 
45207 
45252 
45281 
45365 
45447 
45472 
45480 
45522 
45559 
45627 
45716 
45769 
45850 
45863 
45863 
45893 
45963 
46013 
46041 
46030 
46066 
46099 
46163 
46218 
46216 
46201 
46162 
46070 
45924 
45829 
45725 
45518 
45264 
44990 
44670 
44300 
43945 
43586 
43201 
42864 
42474 
42010 
41595 
41206 
40784 
40386 
39971 
39509 
39112 
38676 
38233 
37876 
37567 
37277 
36980 
36715 
36486 
36266 
36070 
35893 
35718 
35555 
35401 
35336 
35266 
35128 
35057 
34943 
34863 
34882 
34880 
34890 
35007 
35069 
35128 
35127 
35202 
35310 
35349 
35412 
35476 
35543 
35661 
35769 
35906 
36095 
36256 
36391 
36541 
36702 
36892 
37052 
37243 
37429 
37607 
37703 
37830 
37971 
38070 
38200 
38384 
38474 
38541 
38624 
38735 
38815 
38922 
39048 
39148 
39203 
39261 
39400 
39531 
39622 
39720 
39811 
39921 
39993 
40008 
40070 
40168 
40260 
40358 
40410 
40497 
40588 
40632 
40645 
40683 
40789 
40873 
40978 
40971 
40982 
41072 
41151 
41280 
41412 
41510 
41599 
41672 
41682 
41746 
41810 
41825 
41876 
41966 
42063 
42145 
42225 
42279 
42308 
42328 
42369 
42462 
42588 
42687 
42825 
42932 
42966 
42989 
43046 
43075 
43122 
43217 
43275 
43355 
43409 
43487 
43522 
43560 
43610 
43664 
43754 
43806 
43802 
43839 
43904 
43898 
43932 
43927 
43996 
44007 
43975 
43937 
43908 
43888 
43861 
43814 
43742 
43650 
43542 
43436 
43312 
43159 
42919 
42568 
42208 
41857 
41497 
41164 
40796 
40396 
39980 
39609 
39220 
38888 
38519 
38111 
37740 
37436 
37133 
36824 
36534 
36312 
36034 
35819 
35644 
35439 
35220 
35029 
34881 
34746 
34593 
34551 
34522 
34451 
34417 
34362 
34339 
34329 
34319 
34309 
34368 
34480 
34561 
34593 
34662 
34773 
34893 
34961 
35028 
35177 
35331 
35477 
35643 
35796 
35942 
36062 
36172 
36262 
36366 
36513 
36721 
36944 
37024 
37139 
37269 
37371 
37464 
37562 
37697 
37781 
37848 
37967 
38083 
38168 
38282 
38315 
38327 
38373 
38410 
38409 
38401 
38429 
38529 
38628 
38677 
38663 
38697 
38769 
38806 
38830 
38881 
38965 
39051 
39172 
39265 
39311 
39333 
39414 
39500 
39570 
39587 
39663 
39773 
39865 
39989 
40086 
40225 
40322 
40328 
40304 
40362 
40510 
40602 
40633 
40699 
40786 
40823 
40877 
41005 
41095 
41160 
41180 
41212 
41260 
41297 
41393 
41482 
41487 
41452 
41416 
41473 
41561 
41622 
41670 
41715 
41754 
41804 
41854 
41850 
41885 
41940 
42026 
42148 
42214 
42257 
42341 
42362 
42347 
42348 
42452 
42536 
42566 
42558 
42567 
42490 
42381 
42230 
42040 
41842 
41589 
41351 
41084 
40782 
40427 
40000 
39626 
39328 
38952 
38515 
38120 
37748 
37373 
37045 
36651 
36263 
35935 
35628 
35282 
34944 
34627 
34468 
34272 
34062 
33825 
33653 
33491 
33367 
33317 
33237 
33172 
33117 
33105 
33126 
33098 
33111 
33189 
33211 
33262 
33328 
33369 
33465 
33556 
33629 
33762 
33887 
33974 
34136 
34277 
34387 
34506 
34672 
34883 
35055 
35177 
35289 
35471 
35675 
35887 
36061 
36207 
36308 
36368 
36447 
36617 
36814 
36972 
37151 
37342 
37455 
37528 
37611 
37671 
37721 
37903 
38006 
38069 
38169 
38229 
38257 
38360 
38472 
38507 
38621 
38701 
38779 
38836 
38899 
38960 
39028 
39103 
39121 
39153 
39191 
39284 
39419 
39541 
39629 
39714 
39747 
39764 
39867 
40027 
40105 
40165 
40277 
40312 
40325 
40398 
40468 
40563 
40679 
40706 
40737 
40843 
40919 
40920 
40936 
40989 
41067 
41129 
41203 
41239 
41264 
41316 
41385 
41462 
41556 
41590 
41634 
41707 
41735 
41773 
41808 
41844 
41895 
41961 
42012 
42042 
42061 
42058 
42077 
42101 
42180 
42310 
42397 
42490 
42566 
42619 
42668 
42717 
42765 
42823 
42774 
42792 
42810 
42734 
42630 
42512 
42397 
42231 
42013 
41785 
41488 
41122 
40774 
40461 
40148 
39763 
39347 
38954 
38581 
38197 
37804 
37414 
37072 
36776 
36391 
36000 
35630 
35299 
35013 
34754 
34487 
34239 
33986 
33772 
33578 
33404 
33253 
33167 
33100 
33034 
32979 
32913 
32876 
32871 
32917 
32995 
33002 
33004 
33024 
33071 
33147 
33200 
33271 
33394 
33527 
33666 
33769 
33885 
34041 
34250 
34433 
34616 
34825 
35066 
35258 
35424 
35563 
35768 
35981 
36139 
36255 
36392 
36551 
36765 
36892 
37000 
37158 
37300 
37397 
37421 
37468 
37640 
37797 
37844 
37866 
37969 
38062 
38119 
38259 
38356 
38446 
38530 
38630 
38737 
38825 
38903 
38962 
38965 
39008 
39082 
39137 
39124 
39140 
39198 
39258 
39303 
39380 
39451 
39513 
39574 
39664 
39783 
39875 
39921 
39949 
40018 
40107 
40181 
40256 
40247 
40291 
40368 
40474 
40565 
40605 
40686 
40797 
40911 
40989 
41010 
41052 
41072 
41130 
41189 
41213 
41230 
41258 
41283 
41295 
41295 
41358 
41473 
41597 
41694 
41786 
41897 
41958 
41993 
42020 
42110 
42177 
42242 
42278 
42335 
42384 
42370 
42378 
42434 
42531 
42588 
42585 
42572 
42562 
42564 
42558 
42543 
42532 
42428 
42234 
42012 
41823 
41642 
41380 
41074 
40819 
40533 
40175 
39848 
39502 
39103 
38774 
38423 
38052 
37726 
37372 
36956 
36582 
36182 
35785 
35459 
35222 
35046 
34870 
34628 
34410 
34203 
33987 
33819 
33643 
33513 
33413 
33361 
33361 
33356 
33305 
33257 
33240 
33253 
33284 
33341 
33413 
33490 
33577 
33701 
33777 
33839 
33897 
33989 
34137 
34325 
34404 
34491 
34636 
34778 
34932 
35044 
35186 
35360 
35517 
35622 
35762 
35919 
36057 
36226 
36333 
36420 
36499 
36603 
36706 
36844 
36958 
37042 
37124 
37228 
37329 
37352 
37370 
37460 
37527 
37567 
37578 
37634 
37653 
37656 
37670 
37692 
37712 
37769 
37851 
37915 
37986 
38014 
38068 
38169 
38313 
38376 
38413 
38418 
38499 
38530 
38567 
38633 
38673 
38748 
38814 
38879 
38860 
38901 
38957 
39017 
39104 
39214 
39273 
39348 
39432 
39581 
39651 
39663 
39711 
39726 
39770 
39864 
39884 
39904 
39972 
40091 
40132 
40197 
40237 
40279 
40337 
40339 
40405 
40474 
40512 
40537 
40560 
40552 
40563 
40611 
40651 
40676 
40728 
40822 
40877 
40900 
40981 
41039 
41035 
41085 
41133 
41138 
41124 
41100 
41055 
41007 
40953 
40840 
40660 
40450 
40216 
39871 
39519 
39225 
38979 
38745 
38418 
38091 
37718 
37388 
37089 
36781 
36444 
36089 
35780 
35502 
35218 
34924 
34671 
34433 
34137 
33898 
33714 
33499 
33324 
33171 
33040 
32962 
32908 
32860 
32812 
32794 
32790 
32749 
32710 
32702 
32762 
32857 
32930 
32957 
33076 
33229 
33307 
33383 
33489 
33592 
33671 
33755 
33890 
34056 
34189 
34343 
34483 
34618 
34754 
34892 
35034 
35212 
35379 
35530 
35629 
35702 
35780 
35872 
36005 
36202 
36377 
36525 
36663 
36714 
36786 
36896 
37005 
37105 
37172 
37272 
37352 
37389 
37464 
37527 
37542 
37643 
37741 
37757 
37759 
37826 
37858 
37867 
37917 
37916 
37962 
38038 
38090 
38129 
38220 
38333 
38391 
38428 
38509 
38594 
38733 
38861 
38996 
39116 
39215 
39267 
39293 
39357 
39478 
39562 
39586 
39637 
39770 
39917 
40002 
40084 
40140 
40207 
40264 
40267 
40288 
40386 
40464 
40536 
40582 
40593 
40630 
40658 
40640 
40654 
40678 
40690 
40683 
40710 
40833 
40892 
40904 
40919 
40951 
40979 
41025 
41062 
41044 
41088 
41087 
41073 
41017 
41037 
41072 
41053 
41024 
40996 
40994 
41011 
41015 
40976 
40852 
40752 
40638 
40480 
40258 
40019 
39762 
39485 
39216 
38863 
38502 
38136 
37779 
37439 
37100 
36677 
36305 
35924 
35548 
35202 
34829 
34482 
34127 
33803 
33521 
33252 
32974 
32751 
32540 
32358 
32121 
31891 
31792 
31667 
31519 
31437 
31367 
31348 
31335 
31267 
31200 
31235 
31261 
31180 
31158 
31173 
31250 
31344 
31407 
31451 
31539 
31634 
31721 
31839 
31960 
32053 
32186 
32356 
32477 
32595 
32744 
32865 
33004 
33144 
33302 
33439 
33638 
33830 
33987 
34126 
34342 
34503 
34622 
34716 
34828 
34957 
35065 
35156 
35269 
35399 
35525 
35652 
35780 
35820 
35846 
35921 
35995 
36043 
36096 
36182 
36264 
36326 
36395 
36494 
36552 
36582 
36686 
36738 
36782 
36848 
36938 
37014 
37113 
37211 
37321 
37406 
37505 
37540 
37600 
37616 
37669 
37789 
37895 
37979 
38019 
38100 
38168 
38255 
38359 
38496 
38597 
38681 
38774 
38834 
38899 
38958 
39048 
39147 
39230 
39324 
39373 
39483 
39577 
39610 
39676 
39732 
39787 
39825 
39861 
39938 
39982 
39957 
39954 
40006 
40077 
40114 
40184 
40240 
40257 
40237 
40280 
40314 
40335 
40381 
40455 
40474 
40506 
40549 
40534 
40482 
40420 
40400 
40406 
40452 
40433 
40323 
40186 
40093 
39956 
39764 
39514 
39243 
38989 
38686 
38355 
38089 
37796 
37437 
37091 
36717 
36464 
36193 
35874 
35516 
35192 
34887 
34530 
34279 
33998 
33721 
33503 
33302 
33099 
32897 
32675 
32513 
32365 
32249 
32168 
32091 
32025 
32026 
32040 
32070 
32040 
32025 
32039 
32015 
32014 
32085 
32159 
32227 
32331 
32405 
32504 
32608 
32747 
32869 
33009 
33168 
33290 
33411 
33556 
33683 
33865 
34048 
34182 
34294 
34490 
34706 
34848 
34975 
35142 
35236 
35366 
35525 
35650 
35759 
35833 
35936 
36064 
36186 
36249 
36367 
36495 
36611 
36623 
36634 
36714 
36784 
36826 
36946 
37019 
37043 
37111 
37159 
37206 
37189 
37170 
37266 
37350 
37424 
37516 
37580 
37639 
37690 
37728 
37799 
37834 
37864 
37943 
38072 
38112 
38149 
38219 
38342 
38432 
38540 
38665 
38706 
38731 
38796 
38866 
38942 
39013 
39083 
39170 
39214 
39255 
39352 
39441 
39540 
39617 
39669 
39691 
39705 
39747 
39817 
39855 
39900 
40004 
40086 
40191 
40285 
40326 
40314 
40297 
40316 
40311 
40302 
40345 
40400 
40459 
40503 
40500 
40519 
40548 
40517 
40514 
40510 
40457 
40431 
40391 
40370 
40374 
40392 
40407 
40324 
40182 
40039 
39836 
39623 
39421 
39146 
38894 
38618 
38312 
38034 
37720 
37361 
37049 
36696 
36364 
36119 
35824 
35563 
35311 
35020 
34755 
34472 
34169 
33891 
33641 
33490 
33329 
33188 
33095 
32975 
32877 
32800 
32751 
32695 
32692 
32655 
32651 
32635 
32580 
32564 
32575 
32643 
32701 
32690 
32702 
32793 
32890 
32945 
33037 
33157 
33338 
33521 
33632 
33778 
33950 
34064 
34194 
34295 
34397 
34562 
34764 
34895 
35019 
35173 
35285 
35395 
35457 
35533 
35604 
35658 
35726 
35820 
35910 
35964 
36029 
36164 
36273 
36338 
36404 
36506 
36540 
36528 
36515 
36511 
36512 
36518 
36553 
36608 
36714 
36740 
36758 
36827 
36862 
36881 
36925 
37022 
37100 
37123 
37084 
37071 
37118 
37174 
37271 
37371 
37414 
37507 
37625 
37647 
37639 
37625 
37679 
37749 
37803 
37839 
37895 
37992 
38050 
38130 
38160 
38214 
38296 
38392 
38503 
38580 
38609 
38681 
38747 
38757 
38818 
38852 
38886 
38959 
39040 
39036 
39051 
39090 
39149 
39224 
39283 
39285 
39332 
39356 
39400 
39437 
39426 
39459 
39480 
39500 
39495 
39504 
39490 
39460 
39325 
39170 
39029 
38858 
38635 
38372 
38106 
37830 
37528 
37242 
36972 
36666 
36364 
36075 
35766 
35442 
35081 
34751 
34438 
34152 
33939 
33732 
33433 
33182 
33010 
32892 
32688 
32503 
32386 
32263 
32158 
32101 
32026 
31929 
31809 
31758 
31777 
31810 
31819 
31827 
31870 
31918 
31959 
32059 
32140 
32216 
32304 
32376 
32496 
32605 
32668 
32773 
32911 
33062 
33260 
33439 
33573 
33712 
33845 
34002 
34128 
34254 
34423 
34541 
34704 
34877 
34944 
35041 
35199 
35297 
35428 
35550 
35622 
35698 
35773 
35909 
35952 
36027 
36128 
36219 
36308 
36334 
36404 
36434 
36412 
36481 
36531 
36544 
36570 
36623 
36767 
36852 
36869 
36892 
36968 
37045 
37139 
37222 
37321 
37401 
37479 
37597 
37697 
37782 
37862 
37904 
37979 
38079 
38186 
38224 
38299 
38364 
38439 
38498 
38479 
38526 
38632 
38705 
38804 
38853 
38888 
38972 
39038 
39080 
39177 
39251 
39222 
39220 
39292 
39343 
39413 
39445 
39493 
39569 
39671 
39689 
39752 
39852 
39939 
39987 
40066 
40105 
40106 
40176 
40219 
40216 
40241 
40239 
40224 
40269 
40311 
40295 
40334 
40375 
40348 
40291 
40252 
40149 
40008 
39834 
39696 
39489 
39251 
38982 
38695 
38375 
38083 
37780 
37473 
37075 
36736 
36399 
36039 
35695 
35389 
35086 
34827 
34526 
34224 
33918 
33603 
33344 
33098 
32847 
32656 
32514 
32336 
32197 
32058 
31925 
31785 
31661 
31606 
31593 
31589 
31529 
31483 
31512 
31510 
31527 
31583 
31626 
31666 
31773 
31832 
31875 
31919 
31990 
32101 
32252 
32377 
32517 
32601 
32760 
32946 
33078 
33251 
33350 
33458 
33655 
33836 
33888 
33972 
34107 
34270 
34383 
34553 
34717 
34801 
34893 
35043 
35230 
35388 
35538 
35624 
35668 
35715 
35758 
35859 
35993 
36052 
36146 
36201 
36245 
36308 
36413 
36509 
36555 
36621 
36706 
36745 
36776 
36821 
36905 
37010 
37009 
37060 
37220 
37272 
37301 
37382 
37493 
37562 
37603 
37656 
37740 
37847 
37975 
38062 
38120 
38182 
38221 
38244 
38308 
38471 
38606 
38736 
38834 
38859 
38896 
38934 
38974 
39066 
39129 
39194 
39261 
39331 
39336 
39376 
39499 
39575 
39626 
39663 
39712 
39752 
39775 
39822 
39862 
39898 
40005 
40101 
40161 
40193 
40230 
40247 
40234 
40243 
40216 
40205 
40194 
40179 
40173 
40208 
40272 
40351 
40406 
40448 
40510 
40515 
40476 
40452 
40407 
40303 
40220 
40121 
39974 
39771 
39550 
39256 
38921 
38604 
38302 
37979 
37615 
37238 
36890 
36597 
36258 
35908 
35603 
35292 
35007 
34701 
34388 
34111 
33837 
33565 
33369 
33175 
32936 
32685 
32472 
32301 
32143 
32022 
31923 
31844 
31773 
31723 
31701 
31677 
31661 
31635 
31649 
31643 
31659 
31703 
31739 
31763 
31814 
31889 
31969 
32029 
32158 
32249 
32313 
32472 
32654 
32798 
32963 
33171 
33328 
33482 
33677 
33855 
33958 
34095 
34246 
34384 
34559 
34716 
34808 
34812 
34942 
35082 
35222 
35359 
35458 
35562 
35671 
35849 
35932 
36011 
36070 
36132 
36199 
36276 
36356 
36442 
36573 
36725 
36785 
36859 
36914 
37010 
37069 
37120 
37200 
37286 
37365 
37458 
37561 
37611 
37668 
37736 
37850 
37909 
37899 
37926 
37999 
38125 
38267 
38357 
38451 
38578 
38672 
38756 
38841 
38992 
39134 
39229 
39329 
39378 
39405 
39467 
39546 
39605 
39655 
39711 
39787 
39894 
39949 
39971 
39962 
39976 
40078 
40120 
40118 
40154 
40201 
40316 
40364 
40404 
40438 
40508 
40550 
40588 
40605 
40643 
40661 
40683 
40665 
40672 
40692 
40723 
40793 
40792 
40790 
40768 
40781 
40799 
40834 
40881 
40905 
40925 
40886 
40892 
40917 
40866 
40786 
40732 
40722 
40698 
40714 
40728 
40746 
40735 
40681 
40574 
40475 
40336 
40130 
39895 
39653 
39364 
39111 
38813 
38516 
38178 
37839 
37507 
37182 
36816 
36477 
36116 
35700 
35286 
34940 
34692 
34406 
34102 
33767 
33496 
33266 
33044 
32812 
32576 
32322 
32096 
31986 
31916 
31835 
31777 
31750 
31652 
31582 
31549 
31533 
31466 
31430 
31392 
31399 
31431 
31495 
31562 
31649 
31778 
31858 
31932 
32003 
32076 
32126 
32232 
32381 
32500 
32675 
32831 
32993 
33141 
33328 
33456 
33597 
33735 
33846 
33971 
34181 
34402 
34527 
34710 
34885 
34986 
35098 
35278 
35400 
35474 
35517 
35566 
35725 
35879 
35977 
36077 
36174 
36248 
36295 
36361 
36370 
36336 
36391 
36435 
36515 
36605 
36695 
36760 
36821 
36877 
36955 
36997 
37020 
37092 
37188 
37319 
37476 
37607 
37678 
37696 
37752 
37757 
37795 
37890 
37968 
38092 
38254 
38366 
38423 
38484 
38549 
38612 
38607 
38646 
38726 
38809 
38892 
38958 
39037 
39078 
39122 
39176 
39255 
39326 
39427 
39552 
39604 
39626 
39633 
39669 
39772 
39851 
39930 
40013 
40022 
40034 
40121 
40204 
40234 
40216 
40216 
40246 
40283 
40321 
40345 
40313 
40314 
40342 
40352 
40340 
40362 
40339 
40308 
40316 
40370 
40393 
40441 
40394 
40336 
40341 
40361 
40372 
40358 
40360 
40398 
40419 
40404 
40380 
40311 
40289 
40249 
40193 
40096 
40025 
39989 
39893 
39711 
39498 
39265 
39061 
38816 
38525 
38231 
37948 
37650 
37341 
36969 
36582 
36258 
35862 
35486 
35190 
34923 
34599 
34266 
33951 
33669 
33469 
33324 
33188 
32999 
32814 
32685 
32575 
32460 
32391 
32318 
32176 
32079 
32021 
31993 
31994 
31996 
32022 
32054 
32106 
32076 
32045 
32081 
32159 
32263 
32332 
32438 
32583 
32685 
32785 
32879 
32965 
33132 
33336 
33510 
33654 
33778 
33916 
34017 
34148 
34348 
34502 
34634 
34804 
34928 
34995 
35052 
35173 
35298 
35431 
35584 
35691 
35756 
35834 
35891 
35957 
35988 
36063 
36140 
36185 
36237 
36301 
36319 
36334 
36339 
36371 
36429 
36495 
36505 
36490 
36523 
36656 
36761 
36793 
36870 
36939 
37024 
37067 
37125 
37228 
37251 
37322 
37420 
37528 
37599 
37644 
37710 
37795 
37884 
37925 
37981 
38038 
38116 
38250 
38304 
38257 
38310 
38469 
38562 
38567 
38634 
38785 
38775 
38779 
38866 
38961 
39003 
39059 
39113 
39180 
39260 
39389 
39453 
39506 
39496 
39494 
39601 
39654 
39709 
39812 
39863 
39935 
39959 
39893 
39914 
39956 
39992 
40002 
39979 
39984 
40067 
40113 
40127 
40217 
40297 
40280 
40257 
40284 
40360 
40367 
40338 
40350 
40366 
40341 
40284 
40222 
40102 
39942 
39818 
39659 
39473 
39262 
39045 
38820 
38542 
38305 
38073 
37770 
37420 
37149 
36922 
36634 
36304 
35968 
35592 
35280 
34995 
34706 
34448 
34231 
33987 
33753 
33575 
33481 
33310 
33091 
32887 
32707 
32615 
32508 
32405 
32341 
32284 
32250 
32216 
32149 
32118 
32130 
32118 
32095 
32127 
32176 
32247 
32255 
32341 
32413 
32467 
32536 
32619 
32794 
32949 
33127 
33265 
33383 
33548 
33733 
33910 
34013 
34152 
34270 
34352 
34447 
34567 
34716 
34878 
35015 
35116 
35230 
35407 
35571 
35715 
35770 
35774 
35847 
35947 
36016 
36082 
36168 
36216 
36240 
36304 
36360 
36372 
36420 
36522 
36606 
36638 
36677 
36745 
36794 
36863 
36917 
36956 
37016 
37076 
37125 
37207 
37307 
37389 
37391 
37441 
37544 
37564 
37573 
37573 
37661 
37807 
37905 
37940 
37967 
38000 
38070 
38176 
38296 
38374 
38451 
38512 
38592 
38694 
38804 
38880 
38950 
39011 
39041 
39030 
39036 
39095 
39170 
39201 
39275 
39389 
39404 
39430 
39476 
39535 
39583 
39618 
39644 
39610 
39630 
39664 
39678 
39701 
39717 
39761 
39828 
39868 
39861 
39861 
39815 
39809 
39854 
39835 
39929 
40012 
40052 
40060 
40002 
40017 
40074 
40096 
40114 
40150 
40143 
40108 
40046 
40011 
39946 
39808 
39658 
39550 
39421 
39178 
38863 
38602 
38305 
37975 
37650 
37294 
36941 
36554 
36172 
35801 
35482 
35218 
34893 
34586 
34283 
33977 
33681 
33401 
33134 
32901 
32727 
32496 
32246 
32055 
31894 
31754 
31683 
31531 
31406 
31345 
31260 
31181 
31195 
31243 
31295 
31327 
31370 
31369 
31356 
31392 
31406 
31490 
31599 
31695 
31733 
31859 
32000 
32144 
32293 
32419 
32520 
32654 
32843 
33004 
33150 
33279 
33380 
33462 
33612 
33784 
33978 
34119 
34293 
34470 
34585 
34700 
34756 
34894 
35056 
35222 
35371 
35496 
35581 
35683 
35742 
35775 
35812 
35891 
35994 
36036 
36069 
36143 
36237 
36319 
36403 
36426 
36457 
36554 
36636 
36738 
36816 
36861 
36932 
37006 
37051 
37144 
37232 
37286 
37301 
37325 
37358 
37411 
37480 
37577 
37647 
37739 
37771 
37788 
37875 
37946 
38014 
38113 
38193 
38229 
38274 
38305 
38374 
38451 
38519 
38623 
38695 
38789 
38858 
38877 
38922 
38979 
39018 
39096 
39155 
39217 
39315 
39451 
39538 
39584 
39631 
39693 
39748 
39699 
39656 
39743 
39842 
39958 
40061 
40073 
40066 
40043 
39996 
39929 
39912 
39913 
39937 
39937 
39975 
40096 
40157 
40163 
40185 
40243 
40272 
40257 
40259 
40278 
40243 
40164 
40126 
40025 
39862 
39732 
39630 
39452 
39143 
38763 
38483 
38251 
37969 
37676 
37389 
37076 
36701 
36388 
36082 
35728 
35400 
35103 
34773 
34423 
34154 
33939 
33707 
33469 
33281 
33095 
32907 
32691 
32479 
32348 
32273 
32200 
32131 
32085 
32013 
31971 
31958 
31962 
31997 
32061 
32096 
32074 
32051 
32070 
32136 
32247 
32353 
32423 
32495 
32593 
32682 
32825 
32940 
33039 
33174 
33276 
33390 
33473 
33629 
33821 
34031 
34236 
34372 
34500 
34633 
34802 
34990 
35097 
35186 
35336 
35458 
35596 
35761 
35880 
35981 
36086 
36173 
36153 
36153 
36207 
36238 
36310 
36393 
36476 
36535 
36649 
36762 
36800 
36817 
36857 
36897 
36957 
37037 
37082 
37120 
37188 
37277 
37320 
37361 
37425 
37554 
37609 
37648 
37728 
37819 
37861 
37922 
38039 
38119 
38173 
38235 
38330 
38382 
38395 
38412 
38474 
38530 
38527 
38623 
38677 
38755 
38888 
38962 
38991 
39030 
39092 
39135 
39179 
39217 
39284 
39329 
39357 
39399 
39411 
39429 
39516 
39595 
39608 
39629 
39682 
39713 
39769 
39861 
39941 
39960 
39979 
40007 
40057 
40114 
40170 
40224 
40240 
40250 
40187 
40140 
40200 
40177 
40110 
40055 
40049 
40023 
39935 
39822 
39675 
39557 
39388 
39179 
38895 
38635 
38338 
38006 
37699 
37406 
37106 
36750 
36403 
36115 
35812 
35448 
35103 
34779 
34456 
34204 
33993 
33745 
33480 
33205 
32994 
32820 
32631 
32442 
32282 
32203 
32162 
32099 
32033 
31975 
31977 
31974 
32013 
32071 
32104 
32160 
32218 
32236 
32232 
32294 
32393 
32479 
32564 
32602 
32680 
32789 
32835 
32975 
33183 
33403 
33637 
33774 
33900 
34060 
34186 
34269 
34420 
34605 
34751 
34878 
34957 
35056 
35183 
35259 
35384 
35564 
35704 
35795 
35871 
35916 
35988 
36057 
36094 
36156 
36236 
36340 
36408 
36443 
36486 
36497 
36503 
36480 
36470 
36487 
36494 
36592 
36658 
36688 
36757 
36837 
36916 
36964 
36983 
37058 
37123 
37180 
37213 
37249 
37272 
37315 
37336 
37410 
37579 
37691 
37729 
37787 
37842 
37890 
37990 
38030 
38079 
38136 
38202 
38329 
38422 
38462 
38493 
38526 
38568 
38670 
38750 
38824 
38903 
38926 
38991 
39085 
39166 
39190 
39212 
39232 
39252 
39276 
39332 
39424 
39501 
39495 
39515 
39590 
39680 
39694 
39733 
39755 
39776 
39825 
39921 
39970 
40001 
40007 
40000 
40007 
39944 
39931 
39888 
39824 
39817 
39796 
39767 
39698 
39593 
39391 
39124 
38845 
38567 
38269 
37950 
37620 
37295 
36974 
36638 
36250 
35860 
35481 
35133 
34789 
34458 
34161 
33879 
33519 
33193 
32912 
32643 
32434 
32202 
31982 
31766 
31558 
31401 
31334 
31240 
31157 
31133 
31094 
31102 
31117 
31134 
31114 
31115 
31104 
31101 
31105 
31150 
31249 
31351 
31410 
31436 
31515 
31587 
31685 
31854 
31997 
32189 
32378 
32528 
32688 
32850 
33015 
33173 
33344 
33465 
33593 
33764 
33928 
34067 
34246 
34440 
34608 
34733 
34857 
34965 
35073 
35180 
35319 
35413 
35473 
35577 
35712 
35819 
35946 
36064 
36112 
36121 
36103 
36081 
36114 
36197 
36272 
36326 
36320 
36356 
36442 
36494 
36557 
36720 
36793 
36795 
36816 
36895 
36946 
36984 
37069 
37129 
37205 
37262 
37341 
37432 
37466 
37543 
37663 
37759 
37878 
37955 
37987 
38042 
38148 
38248 
38305 
38329 
38387 
38448 
38543 
38609 
38730 
38819 
38892 
38991 
39106 
39160 
39145 
39201 
39272 
39349 
39371 
39421 
39464 
39546 
39653 
39667 
39740 
39781 
39815 
39854 
39851 
39933 
40025 
40082 
40153 
40198 
40250 
40238 
40213 
40237 
40264 
40275 
40247 
40210 
40166 
40078 
39981 
39889 
39779 
39559 
39318 
39076 
38796 
38440 
38083 
37767 
37420 
37047 
36708 
36418 
36037 
35675 
35346 
35023 
34719 
34400 
34072 
33754 
33439 
33146 
32938 
32762 
32543 
32325 
32163 
32069 
31910 
31758 
31585 
31516 
31478 
31455 
31450 
31429 
31399 
31369 
31357 
31353 
31361 
31448 
31567 
31637 
31668 
31702 
31726 
31815 
31988 
32160 
32298 
32421 
32603 
32767 
32952 
33107 
33275 
33458 
33696 
33885 
34040 
34161 
34307 
34557 
34766 
34894 
35032 
35198 
35328 
35448 
35513 
35626 
35755 
35894 
35975 
36039 
36141 
36237 
36399 
36531 
36530 
36554 
36592 
36664 
36761 
36780 
36799 
36867 
36953 
36977 
37000 
37056 
37132 
37186 
37206 
37202 
37283 
37388 
37457 
37503 
37649 
37711 
37735 
37755 
37793 
37813 
37903 
38015 
38080 
38184 
38272 
38345 
38453 
38605 
38702 
38768 
38805 
38900 
38995 
39122 
39275 
39392 
39460 
39531 
39625 
39730 
39770 
39835 
39928 
40033 
40115 
40152 
40168 
40228 
40302 
40354 
40418 
40475 
40483 
40538 
40631 
40633 
40620 
40613 
40701 
40781 
40774 
40790 
40857 
40859 
40837 
40846 
40865 
40868 
40904 
40907 
40807 
40719 
40622 
40477 
40351 
40200 
40029 
39825 
39566 
39274 
38959 
38680 
38396 
38058 
37673 
37318 
36966 
36604 
36176 
35724 
35341 
35046 
34747 
34437 
34093 
33765 
33471 
33167 
32852 
32586 
32376 
32211 
32037 
31880 
31694 
31646 
31606 
31520 
31411 
31372 
31405 
31368 
31343 
31380 
31396 
31394 
31384 
31490 
31578 
31598 
31639 
31669 
31731 
31849 
31952 
32095 
32244 
32405 
32599 
32771 
32910 
33026 
33168 
33357 
33519 
33636 
33816 
34027 
34167 
34302 
34411 
34538 
34671 
34790 
34906 
35078 
35250 
35269 
35275 
35401 
35583 
35664 
35703 
35776 
35882 
36012 
36094 
36197 
36287 
36298 
36324 
36341 
36355 
36398 
36545 
36609 
36692 
36800 
36876 
36909 
36973 
37059 
37117 
37151 
37185 
37299 
37417 
37551 
37639 
37711 
37762 
37866 
38039 
38225 
38349 
38383 
38411 
38483 
38582 
38661 
38772 
38836 
38983 
39164 
39287 
39360 
39465 
39562 
39604 
39649 
39719 
39766 
39736 
39692 
39724 
39807 
39910 
39958 
39959 
40001 
40042 
40112 
40159 
40164 
40138 
40118 
40171 
40258 
40280 
40245 
40228 
40288 
40357 
40417 
40384 
40296 
40245 
40206 
40196 
40191 
40112 
40021 
39881 
39680 
39441 
39201 
38924 
38691 
38389 
38070 
37729 
37382 
37071 
36756 
36419 
36055 
35730 
35415 
35102 
34816 
34481 
34142 
33906 
33695 
33492 
33280 
33061 
32822 
32613 
32512 
32432 
32282 
32183 
32126 
32025 
31964 
32008 
31995 
31975 
32023 
32035 
32118 
32178 
32144 
32159 
32221 
32348 
32494 
32592 
32702 
32846 
32965 
33097 
33254 
33354 
33494 
33648 
33851 
34054 
34166 
34303 
34465 
34574 
34756 
34929 
35030 
35149 
35317 
35455 
35521 
35591 
35733 
35832 
35949 
36043 
36171 
36303 
36417 
36466 
36447 
36483 
36615 
36740 
36816 
36844 
36856 
36931 
37015 
37077 
37134 
37168 
37194 
37265 
37318 
37348 
37346 
37316 
37400 
37491 
37499 
37557 
37617 
37612 
37621 
37718 
37780 
37809 
37823 
37873 
37895 
37933 
37974 
38053 
38166 
38247 
38254 
38263 
38306 
38365 
38400 
38442 
38443 
38482 
38565 
38627 
38679 
38708 
38790 
38844 
38905 
38976 
39010 
39054 
39163 
39253 
39294 
39373 
39459 
39445 
39481 
39547 
39491 
39481 
39584 
39653 
39728 
39844 
39885 
39861 
39891 
39929 
39986 
40007 
39993 
40000 
40012 
40056 
39993 
39884 
39779 
39622 
39477 
39266 
39029 
38754 
38471 
38160 
37865 
37549 
37234 
36887 
36515 
36177 
35838 
35446 
35093 
34766 
34498 
34250 
33952 
33673 
33476 
33255 
33027 
32824 
32712 
32584 
32404 
32326 
32221 
32128 
32034 
31966 
31963 
31913 
31869 
31944 
32011 
32019 
32083 
32162 
32248 
32343 
32485 
32572 
32666 
32834 
32958 
33095 
33278 
33461 
33633 
33805 
34005 
34139 
34248 
34446 
34677 
34847 
34996 
35128 
35183 
35284 
35459 
35645 
35797 
35927 
36082 
36183 
36342 
36482 
36580 
36669 
36756 
36878 
36966 
37068 
37187 
37224 
37314 
37430 
37490 
37537 
37632 
37732 
37838 
37930 
38024 
38125 
38219 
38320 
38391 
38426 
38518 
38571 
38654 
38730 
38779 
38879 
39051 
39205 
39289 
39402 
39445 
39510 
39555 
39613 
39675 
39745 
39800 
39883 
39961 
40066 
40206 
40268 
40288 
40356 
40465 
40521 
40599 
40704 
40768 
40842 
40919 
40984 
41068 
41172 
41234 
41269 
41340 
41357 
41362 
41390 
41391 
41437 
41464 
41518 
41558 
41603 
41636 
41655 
41682 
41722 
41736 
41741 
41792 
41872 
41954 
41968 
42029 
42054 
42078 
42115 
42154 
42159 
42152 
42161 
42164 
42166 
42154 
42083 
42030 
41943 
41820 
41637 
41373 
41111 
40771 
40450 
40133 
39783 
39404 
39077 
38760 
38414 
38088 
37721 
37348 
36970 
36605 
36237 
35833 
35463 
35155 
34852 
34592 
34352 
34111 
33888 
33678 
33463 
33222 
33045 
32941 
32845 
32803 
32779 
32675 
32517 
32423 
32367 
32313 
32324 
32363 
32404 
32460 
32515 
32594 
32625 
32724 
32870 
32968 
33057 
33177 
33287 
33388 
33552 
33713 
33901 
34064 
34226 
34407 
34547 
34738 
34900 
35025 
35166 
35317 
35512 
35768 
35975 
36159 
36261 
36367 
36473 
36614 
36820 
37068 
37229 
37376 
37512 
37630 
37776 
37900 
38033 
38174 
38310 
38470 
38649 
38761 
38828 
38917 
39048 
39179 
39284 
39345 
39459 
39624 
39736 
39825 
39934 
40059 
40176 
40246 
40344 
40396 
40437 
40546 
40685 
40802 
40887 
40970 
41029 
41112 
41167 
41239 
41297 
41322 
41376 
41467 
41577 
41654 
41666 
41711 
41736 
41780 
41794 
41775 
41840 
41830 
41781 
41752 
41729 
41680 
41650 
41600 
41508 
41503 
41468 
41405 
41322 
41244 
41149 
41017 
40906 
40860 
40756 
40612 
40509 
40450 
40346 
40234 
40074 
39913 
39862 
39778 
39698 
39639 
39580 
39493 
39388 
39275 
39169 
39093 
39002 
38973 
38979 
38941 
38853 
38804 
38729 
38679 
38724 
38722 
38688 
38589 
38489 
38423 
38414 
38506 
38559 
38533 
38479 
38467 
38471 
38496 
38572 
38583 
38583 
38615 
38594 
38524 
38532 
38593 
38575 
38551 
38589 
38590 
38590 
38623 
38622 
38639 
38650 
38677 
38691 
38723 
38718 
38701 
38676 
38671 
38666 
38643 
38631 
38629 
38641 
38625 
38606 
38643 
38684 
38637 
38628 
38683 
38770 
38781 
38758 
38806 
38842 
38844 
38898 
38999 
39007 
38987 
39042 
39104 
39099 
39135 
39203 
39234 
39225 
39285 
39318 
39367 
39425 
39482 
39541 
39552 
39590 
39670 
39695 
39654 
39621 
39591 
39624 
39587 
39551 
39600 
39645 
39672 
39737 
39766 
39728 
39718 
39770 
39848 
39887 
39895 
39862 
39848 
39861 
39864 
39799 
39687 
39643 
39685 
39759 
39748 
39718 
39692 
39680 
39699 
39649 
39619 
39633 
39674 
39740 
39817 
39823 
39820 
39812 
39830 
39904 
39993 
40012 
39971 
40015 
40046 
40088 
40208 
40235 
40260 
40328 
40403 
40433 
40502 
40532 
40463 
40496 
40524 
40561 
40579 
40560 
40557 
40589 
40605 
40637 
40625 
40565 
40550 
40579 
40601 
40584 
40566 
40575 
40627 
40674 
40688 
40683 
40656 
40658 
40655 
40622 
40629 
40627 
40572 
40596 
40643 
40670 
40687 
40724 
40752 
40773 
40776 
40708 
40667 
40649 
40654 
40687 
40703 
40690 
40693 
40621 
40610 
40642 
40726 
40758 
40718 
40709 
40710 
40668 
40640 
40636 
40653 
40655 
40667 
40686 
40647 
40591 
40600 
40629 
40638 
40653 
40627 
40617 
40594 
40565 
40633 
40655 
40636 
40651 
40653 
40651 
40647 
40619 
40641 
40653 
40640 
40669 
40665 
40659 
40621 
40598 
40591 
40588 
40582 
40563 
40522 
40501 
40473 
40497 
40510 
40505 
40515 
40475 
40448 
40471 
40432 
40356 
40310 
40296 
40306 
40287 
40282 
40251 
40209 
40219 
40183 
40169 
40182 
40145 
40126 
40114 
40072 
40025 
40032 
40025 
39970 
39946 
39923 
39906 
39915 
39979 
40016 
39935 
39829 
39805 
39744 
39730 
39730 
39717 
39727 
39736 
39714 
39697 
39633 
39594 
39574 
39556 
39503 
39542 
39519 
39468 
39422 
39396 
39357 
39323 
39288 
39257 
39244 
39232 
39192 
39155 
39144 
39154 
39136 
39106 
39128 
39125 
39147 
39170 
39186 
39167 
39126 
39130 
39090 
38986 
38909 
38894 
38900 
38948 
38970 
38971 
38948 
38980 
39004 
38991 
38969 
38926 
38860 
38836 
38839 
38839 
38853 
38823 
38844 
38880 
38888 
38865 
38848 
38851 
38812 
38862 
38903 
38845 
38785 
38695 
38717 
38823 
38839 
38800 
38795 
38746 
38693 
38670 
38652 
38625 
38574 
38614 
38625 
38559 
38568 
38558 
38443 
38374 
38410 
38462 
38498 
38495 
38484 
38464 
38415 
38379 
38406 
38415 
38398 
38379 
38288 
38193 
38175 
38211 
38194 
38131 
38010 
37917 
37897 
37883 
37802 
37701 
37612 
37537 
37498 
37531 
37501 
37397 
37313 
37208 
37091 
37043 
37033 
37010 
36925 
36867 
36830 
36791 
36703 
36662 
36610 
36560 
36552 
36571 
36647 
36684 
36680 
36638 
36574 
36567 
36566 
36492 
36443 
36443 
36458 
36452 
36471 
36490 
36510 
36532 
36548 
36554 
36522 
36468 
36424 
36418 
36403 
36383 
36400 
36397 
36380 
36367 
36355 
36348 
36379 
36396 
36392 
36423 
36501 
36595 
36635 
36569 
36556 
36621 
36659 
36700 
36751 
36738 
36732 
36778 
36853 
36879 
36818 
36847 
36903 
36906 
36855 
36842 
36896 
36947 
36936 
36914 
36950 
36986 
37059 
37083 
37076 
37109 
37123 
37163 
37184 
37297 
37336 
37308 
37304 
37320 
37330 
37308 
37302 
37377 
37430 
37444 
37425 
37416 
37444 
37454 
37440 
37470 
37533 
37579 
37651 
37692 
37722 
37730 
37778 
37832 
37873 
37851 
37882 
37900 
37892 
37920 
37904 
37881 
37882 
37915 
37995 
38040 
38040 
38048 
38113 
38197 
38256 
38341 
38377 
38392 
38419 
38468 
38424 
38426 
38455 
38542 
38626 
38642 
38636 
38686 
38727 
38730 
38707 
38775 
38868 
38914 
38859 
38848 
38836 
38895 
38921 
38891 
38884 
38890 
38912 
38933 
38921 
38926 
38934 
38893 
38890 
38874 
38861 
38872 
38866 
38826 
38778 
38753 
38707 
38662 
38605 
38523 
38452 
38409 
38375 
38346 
38270 
38208 
38166 
38144 
38137 
38078 
38008 
38001 
37986 
37892 
37775 
37699 
37669 
37659 
37660 
37681 
37631 
37616 
37663 
37664 
37637 
37583 
37577 
37536 
37531 
37525 
37521 
37518 
37480 
37358 
37326 
37319 
37298 
37268 
37241 
37253 
37248 
37236 
37248 
37279 
37376 
37438 
37455 
37491 
37498 
37457 
37472 
37478 
37426 
37475 
37497 
37474 
37496 
37531 
37581 
37649 
37662 
37680 
37688 
37607 
37585 
37606 
37622 
37680 
37689 
37693 
37720 
37775 
37811 
37819 
37794 
37769 
37717 
37738 
37769 
37799 
37874 
37896 
37942 
37983 
37976 
37933 
37958 
37934 
37984 
38034 
38043 
38086 
38145 
38118 
38173 
38225 
38273 
38281 
38307 
38366 
38349 
38378 
38417 
38403 
38408 
38404 
38441 
38463 
38515 
38564 
38576 
38612 
38672 
38691 
38738 
38819 
38861 
38830 
38832 
38844 
38847 
38893 
38901 
38886 
38868 
38857 
38853 
38829 
38729 
38695 
38730 
38747 
38728 
38729 
38712 
38677 
38688 
38696 
38734 
38800 
38842 
38795 
38735 
38733 
38769 
38768 
38782 
38804 
38833 
38828 
38826 
38887 
38863 
38851 
38799 
38787 
38766 
38756 
38784 
38843 
38856 
38879 
38940 
38974 
38973 
38996 
38966 
38906 
38880 
38938 
39007 
39044 
39050 
39047 
39069 
39085 
39122 
39156 
39129 
39103 
39046 
39051 
39071 
39086 
39053 
38955 
38901 
38886 
38853 
38837 
38767 
38688 
38600 
38641 
38680 
38737 
38739 
38724 
38759 
38750 
38703 
38628 
38598 
38616 
38615 
38568 
38523 
38508 
38499 
38454 
38371 
38320 
38307 
38230 
38126 
38084 
38080 
38060 
38079 
38108 
38097 
38119 
38116 
38117 
38145 
38126 
38102 
38088 
38060 
38064 
38075 
38078 
38082 
38134 
38151 
38101 
38051 
38000 
37992 
37989 
38027 
38045 
38064 
38095 
38154 
38135 
38092 
38099 
38106 
38086 
38054 
38025 
37966 
37946 
37940 
37902 
37898 
37979 
38051 
38009 
38009 
38004 
38036 
38025 
37981 
37942 
37961 
37954 
37928 
37935 
37921 
37904 
37874 
37838 
37819 
37846 
37871 
37860 
37846 
37852 
37840 
37790 
37776 
37784 
37746 
37831 
37866 
37863 
37860 
37866 
37837 
37834 
37842 
37782 
37758 
37740 
37739 
37787 
37846 
37911 
37890 
37851 
37871 
37868 
37846 
37833 
37827 
37805 
37770 
37777 
37772 
37809 
37893 
37922 
37909 
37902 
37873 
37854 
37854 
37860 
37896 
37981 
38021 
38004 
38043 
38040 
37997 
38011 
38022 
38001 
37993 
37981 
38013 
38018 
38016 
38027 
38019 
38028 
38016 
37983 
37972 
37964 
37950 
37942 
37952 
37960 
37893 
37861 
37795 
37712 
37706 
37679 
37600 
37557 
37582 
37565 
37551 
37522 
37515 
37530 
37551 
37598 
37554 
37518 
37528 
37494 
37452 
37462 
37481 
37458 
37449 
37487 
37498 
37455 
37413 
37386 
37353 
37315 
37293 
37384 
37424 
37391 
37443 
37497 
37478 
37411 
37367 
37294 
37321 
37344 
37317 
37335 
37342 
37334 
37336 
37341 
37318 
37291 
37288 
37309 
37321 
37349 
37366 
37379 
37370 
37393 
37417 
37406 
37419 
37417 
37406 
37449 
37457 
37415 
37406 
37465 
37522 
37545 
37566 
37525 
37510 
37561 
37637 
37662 
37608 
37569 
37504 
37486 
37489 
37472 
37474 
37504 
37500 
37501 
37525 
37586 
37577 
37615 
37617 
37653 
37665 
37634 
37658 
37720 
37714 
37702 
37735 
37694 
37680 
37672 
37633 
37644 
37665 
37691 
37725 
37744 
37728 
37676 
37648 
37649 
37628 
37652 
37728 
37712 
37641 
37677 
37713 
37658 
37612 
37559 
37550 
37587 
37630 
37669 
37733 
37712 
37690 
37644 
37638 
37679 
37642 
37600 
37605 
37608 
37656 
37709 
37709 
37698 
37673 
37674 
37680 
37736 
37736 
37713 
37702 
37635 
37605 
37607 
37569 
37547 
37471 
37350 
37248 
37198 
37167 
37049 
36884 
36806 
36755 
36699 
36629 
36510 
36390 
36301 
36217 
36153 
36113 
36011 
35906 
35835 
35767 
35678 
35604 
35557 
35552 
35508 
35440 
35397 
35344 
35331 
35333 
35310 
35305 
35241 
35191 
35196 
35190 
35216 
35206 
35143 
35110 
35045 
35024 
35074 
35108 
35145 
35140 
35097 
35026 
35046 
35103 
35108 
35057 
35050 
35090 
35121 
35202 
35197 
35165 
35164 
35221 
35331 
35423 
35466 
35527 
35547 
35540 
35635 
35658 
35661 
35636 
35659 
35673 
35663 
35750 
35832 
35925 
36061 
36120 
36169 
36225 
36259 
36281 
36258 
36251 
36297 
36328 
36372 
36422 
36430 
36439 
36436 
36457 
36526 
36615 
36652 
36713 
36764 
36787 
36808 
36808 
36846 
36860 
36905 
36955 
36982 
37041 
37122 
37175 
37252 
37314 
37357 
37379 
37374 
37444 
37527 
37539 
37499 
37457 
37515 
37623 
37680 
37723 
37788 
37819 
37846 
37875 
37922 
37946 
37985 
38034 
38036 
38082 
38110 
38138 
38139 
38146 
38177 
38225 
38243 
38239 
38186 
38232 
38258 
38262 
38311 
38308 
38266 
38245 
38259 
38282 
38363 
38455 
38542 
38563 
38630 
38680 
38673 
38624 
38584 
38514 
38470 
38478 
38517 
38486 
38406 
38396 
38375 
38313 
38276 
38206 
38078 
37930 
37836 
37854 
37858 
37793 
37702 
37630 
37592 
37540 
37454 
37349 
37258 
37151 
37095 
37073 
37019 
36958 
36901 
36890 
36861 
36831 
36840 
36830 
36731 
36621 
36605 
36598 
36630 
36636 
36632 
36628 
36575 
36541 
36534 
36521 
36510 
36511 
36465 
36423 
36447 
36461 
36445 
36427 
36385 
36389 
36399 
36434 
36484 
36562 
36577 
36619 
36650 
36716 
36759 
36711 
36715 
36763 
36789 
36805 
36833 
36868 
36890 
36902 
36957 
37021 
36991 
37069 
37140 
37159 
37155 
37165 
37224 
37302 
37320 
37333 
37366 
37416 
37409 
37411 
37468 
37579 
37630 
37673 
37775 
37804 
37788 
37774 
37850 
37884 
37885 
37902 
37938 
37934 
37972 
38049 
38088 
38139 
38192 
38209 
38204 
38208 
38235 
38283 
38292 
38318 
38384 
38452 
38514 
38594 
38700 
38783 
38839 
38801 
38794 
38820 
38851 
38902 
38911 
38952 
39044 
39050 
39028 
39015 
39017 
39010 
39012 
39043 
39055 
39092 
39136 
39132 
39150 
39182 
39179 
39199 
39223 
39241 
39201 
39212 
39243 
39289 
39305 
39263 
39234 
39248 
39229 
39193 
39221 
39249 
39249 
39247 
39237 
39225 
39203 
39241 
39317 
39371 
39335 
39278 
39266 
39239 
39179 
39093 
38976 
38954 
38962 
38905 
38862 
38808 
38762 
38662 
38618 
38614 
38598 
38548 
38523 
38512 
38462 
38334 
38261 
38191 
38114 
38068 
38029 
37952 
37901 
37908 
37913 
37931 
37905 
37900 
37885 
37862 
37824 
37768 
37719 
37673 
37653 
37668 
37708 
37656 
37502 
37445 
37436 
37541 
37602 
37623 
37628 
37637 
37627 
37579 
37544 
37523 
37540 
37572 
37614 
37716 
37771 
37738 
37679 
37667 
37677 
37645 
37624 
37621 
37592 
37593 
37638 
37645 
37579 
37595 
37615 
37549 
37568 
37553 
37589 
37687 
37720 
37720 
37749 
37734 
37735 
37764 
37787 
37791 
37731 
37706 
37759 
37786 
37798 
37814 
37828 
37870 
37896 
37888 
37892 
37878 
37835 
37840 
37856 
37879 
37899 
37949 
37939 
37851 
37807 
37836 
37893 
37882 
37827 
37839 
37896 
37876 
37847 
37836 
37878 
37975 
37988 
37986 
37984 
38064 
38034 
38018 
38026 
38023 
38094 
38102 
38157 
38184 
38169 
38160 
38178 
38139 
38131 
38176 
38204 
38235 
38167 
38109 
38127 
38097 
38112 
38158 
38190 
38218 
38185 
38154 
38154 
38159 
38149 
38070 
37966 
37855 
37763 
37735 
37709 
37660 
37572 
37488 
37422 
37349 
37241 
37142 
37082 
37021 
36905 
36774 
36683 
36626 
36595 
36593 
36557 
36474 
36452 
36450 
36390 
36273 
36185 
36150 
36135 
36111 
36114 
36088 
36060 
36014 
35891 
35861 
35869 
35857 
35866 
35908 
35932 
35873 
35759 
35692 
35643 
35632 
35609 
35600 
35624 
35653 
35697 
35749 
35787 
35788 
35795 
35808 
35772 
35749 
35767 
35732 
35701 
35736 
35777 
35835 
35841 
35860 
35931 
35941 
35889 
35879 
35953 
35983 
35987 
36045 
36086 
36098 
36112 
36168 
36210 
36258 
36347 
36354 
36345 
36384 
36432 
36460 
36525 
36592 
36617 
36635 
36670 
36730 
36776 
36802 
36785 
36742 
36723 
36785 
36811 
36855 
36866 
36923 
37014 
37073 
37101 
37130 
37175 
37112 
37107 
37198 
37253 
37278 
37304 
37340 
37343 
37333 
37324 
37387 
37464 
37481 
37470 
37459 
37467 
37478 
37476 
37458 
37490 
37529 
37572 
37592 
37617 
37642 
37645 
37628 
37611 
37620 
37668 
37711 
37786 
37883 
37913 
37910 
37925 
37901 
37887 
37876 
37851 
37807 
37773 
37773 
37809 
37762 
37673 
37612 
37485 
37336 
37196 
37036 
36852 
36672 
36524 
36364 
36226 
36086 
35946 
35781 
35614 
35454 
35367 
35271 
35115 
34974 
34838 
34743 
34616 
34418 
34344 
34242 
34170 
34103 
34068 
33978 
33808 
33695 
33615 
33547 
33462 
33414 
33420 
33448 
33405 
33365 
33338 
33299 
33290 
33241 
33209 
33171 
33151 
33138 
33092 
33087 
33099 
33103 
33042 
32989 
32989 
32946 
32965 
33024 
33042 
33071 
33083 
33060 
33132 
33195 
33258 
33306 
33353 
33397 
33461 
33503 
33515 
33589 
33666 
33755 
33852 
33945 
34001 
34026 
34069 
34110 
34159 
34244 
34308 
34413 
34542 
34635 
34730 
34793 
34837 
34901 
34976 
35029 
35114 
35206 
35246 
35312 
35455 
35616 
35750 
35811 
35869 
35954 
36009 
36047 
36071 
36118 
36201 
36267 
36346 
36404 
36469 
36612 
36718 
36803 
36879 
36971 
37036 
37102 
37184 
37296 
37391 
37449 
37476 
37522 
37615 
37708 
37778 
37811 
37878 
37918 
37995 
38070 
38109 
38152 
38190 
38253 
38343 
38384 
38425 
38468 
38501 
38624 
38771 
38857 
38915 
38928 
39006 
39096 
39105 
39169 
39236 
39241 
39231 
39252 
39248 
39230 
39256 
39308 
39293 
39263 
39136 
38978 
38858 
38751 
38648 
38497 
38356 
38247 
38165 
38072 
37942 
37818 
37691 
37587 
37487 
37364 
37305 
37229 
37088 
36972 
36900 
36752 
36642 
36529 
36464 
36440 
36395 
36375 
36311 
36268 
36274 
36281 
36269 
36267 
36226 
36145 
36110 
36142 
36115 
36073 
36013 
36018 
36073 
36103 
36159 
36186 
36203 
36312 
36384 
36348 
36321 
36356 
36425 
36484 
36516 
36540 
36558 
36544 
36531 
36537 
36586 
36695 
36790 
36834 
36843 
36920 
36991 
37014 
37088 
37210 
37270 
37294 
37326 
37346 
37372 
37418 
37470 
37552 
37622 
37691 
37720 
37740 
37759 
37821 
37870 
37922 
37960 
38006 
38053 
38100 
38180 
38266 
38369 
38464 
38579 
38642 
38639 
38628 
38695 
38760 
38781 
38769 
38743 
38797 
38839 
38918 
38946 
38937 
38957 
38986 
39048 
39097 
39154 
39173 
39176 
39186 
39229 
39293 
39340 
39379 
39402 
39408 
39435 
39481 
39507 
39548 
39611 
39683 
39700 
39739 
39746 
39790 
39828 
39877 
39889 
39917 
39985 
40090 
40173 
40197 
40242 
40315 
40350 
40358 
40358 
40407 
40440 
40446 
40490 
40524 
40514 
40472 
40501 
40580 
40613 
40586 
40606 
40630 
40582 
40569 
40583 
40506 
40428 
40418 
40326 
40210 
40154 
40051 
39948 
39890 
39859 
39769 
39685 
39588 
39502 
39378 
39283 
39192 
39084 
38915 
38769 
38700 
38635 
38508 
38423 
38365 
38279 
38143 
38106 
38101 
38046 
38050 
38086 
38030 
37943 
37936 
37904 
37856 
37845 
37917 
38023 
38003 
37967 
37981 
38019 
38061 
38079 
38039 
38002 
38048 
38067 
38006 
37999 
38037 
38070 
38105 
38186 
38201 
38185 
38169 
38212 
38261 
38256 
38183 
38157 
38182 
38233 
38251 
38229 
38249 
38326 
38359 
38393 
38423 
38397 
38395 
38412 
38489 
38584 
38555 
38552 
38591 
38547 
38602 
38712 
38749 
38774 
38807 
38872 
38940 
38979 
39010 
39024 
39081 
39141 
39117 
39096 
39133 
39168 
39191 
39222 
39227 
39259 
39263 
39260 
39343 
39385 
39422 
39435 
39451 
39485 
39524 
39546 
39581 
39693 
39712 
39702 
39710 
39708 
39730 
39779 
39777 
39780 
39793 
39818 
39865 
39950 
39984 
39949 
39935 
39945 
39877 
39861 
39923 
40006 
40081 
40125 
40124 
40165 
40241 
40254 
40267 
40308 
40292 
40294 
40334 
40323 
40334 
40322 
40319 
40314 
40327 
40339 
40321 
40349 
40385 
40441 
40469 
40422 
40317 
40224 
40217 
40160 
40073 
40021 
39895 
39755 
39674 
39584 
39478 
39387 
39247 
39091 
38910 
38813 
38806 
38711 
38578 
38519 
38433 
38283 
38179 
38096 
37999 
37891 
37835 
37815 
37836 
37777 
37669 
37611 
37611 
37595 
37550 
37505 
37464 
37439 
37449 
37463 
37519 
37535 
37632 
37665 
37619 
37629 
37655 
37645 
37700 
37755 
37774 
37803 
37838 
37956 
38024 
38031 
38011 
38008 
38071 
38141 
38173 
38240 
38252 
38280 
38265 
38278 
38316 
38323 
38305 
38352 
38434 
38472 
38492 
38493 
38512 
38571 
38629 
38653 
38635 
38655 
38727 
38793 
38848 
38938 
39006 
39096 
39143 
39120 
39103 
39129 
39243 
39342 
39406 
39387 
39378 
39365 
39399 
39463 
39481 
39501 
39467 
39477 
39521 
39592 
39599 
39618 
39649 
39648 
39696 
39697 
39693 
39773 
39846 
39899 
39929 
40012 
40112 
40116 
40093 
40081 
40116 
40173 
40201 
40273 
40351 
40410 
40426 
40377 
40342 
40376 
40387 
40340 
40360 
40404 
40478 
40464 
40455 
40503 
40546 
40538 
40529 
40498 
40518 
40550 
40565 
40586 
40620 
40602 
40571 
40500 
40508 
40617 
40631 
40579 
40619 
40695 
40730 
40741 
40732 
40779 
40810 
40811 
40813 
40811 
40853 
40862 
40833 
40770 
40698 
40647 
40574 
40434 
40249 
40132 
39988 
39827 
39717 
39643 
39481 
39312 
39181 
39005 
38862 
38610 
38410 
38298 
38197 
38043 
37932 
37797 
37651 
37486 
37344 
37278 
37162 
37082 
37021 
36977 
36908 
36897 
36837 
36759 
36736 
36735 
36720 
36647 
36643 
36613 
36622 
36669 
36720 
36774 
36828 
36867 
36820 
36842 
36930 
36977 
37024 
37058 
37074 
37113 
37100 
37125 
37229 
37305 
37401 
37473 
37535 
37578 
37665 
37763 
37850 
37946 
38040 
38100 
38182 
38192 
38246 
38376 
38528 
38571 
38665 
38771 
38811 
38846 
38883 
38988 
39086 
39160 
39235 
39326 
39366 
39324 
39350 
39409 
39543 
39622 
39639 
39670 
39721 
39808 
39800 
39902 
40042 
40109 
40169 
40208 
40285 
40357 
40417 
40491 
40544 
40564 
40600 
40680 
40751 
40805 
40860 
40885 
40864 
40938 
41002 
41055 
41154 
41191 
41200 
41238 
41249 
41257 
41311 
41349 
41307 
41330 
41377 
41364 
41331 
41368 
41447 
41504 
41529 
41545 
41633 
41663 
41690 
41704 
41655 
41662 
41693 
41703 
41727 
41749 
41852 
41856 
41809 
41767 
41670 
41634 
41681 
41694 
41681 
41640 
41638 
41626 
41657 
41699 
41714 
41669 
41656 
41646 
41685 
41726 
41737 
41759 
41826 
41840 
41799 
41716 
41632 
41615 
41587 
41422 
41252 
41148 
41029 
40838 
40640 
40477 
40295 
40124 
39923 
39785 
39657 
39529 
39377 
39229 
39035 
38823 
38635 
38500 
38345 
38211 
38082 
37958 
37815 
37744 
37673 
37532 
37457 
37388 
37320 
37251 
37221 
37211 
37196 
37111 
37022 
37011 
37047 
37103 
37140 
37143 
37189 
37241 
37261 
37290 
37335 
37412 
37513 
37605 
37709 
37787 
37826 
37864 
37841 
37817 
37800 
37842 
37961 
38096 
38165 
38210 
38229 
38304 
38383 
38478 
38599 
38626 
38649 
38665 
38693 
38795 
38886 
38937 
38950 
38960 
39022 
39095 
39168 
39239 
39351 
39411 
39452 
39540 
39663 
39762 
39875 
39956 
40018 
40089 
40152 
40184 
40233 
40299 
40386 
40424 
40447 
40445 
40483 
40513 
40530 
40530 
40634 
40752 
40815 
40859 
40885 
40961 
40989 
41030 
41086 
41098 
41095 
41137 
41174 
41199 
41319 
41375 
41318 
41235 
41276 
41347 
41463 
41510 
41549 
41600 
41616 
41575 
41600 
41654 
41688 
41766 
41800 
41781 
41752 
41744 
41814 
41841 
41781 
41751 
41789 
41831 
41835 
41818 
41815 
41825 
41793 
41777 
41831 
41878 
41873 
41884 
41926 
41886 
41872 
41836 
41811 
41836 
41853 
41835 
41791 
41768 
41794 
41859 
41852 
41835 
41900 
41925 
41883 
41827 
41758 
41688 
41622 
41548 
41429 
41375 
41265 
41158 
41037 
40877 
40651 
40436 
40283 
40216 
40142 
40034 
39970 
39818 
39652 
39498 
39379 
39228 
39071 
38973 
38875 
38731 
38598 
38521 
38456 
38429 
38387 
38354 
38266 
38184 
38126 
38060 
37955 
37929 
37923 
37919 
37912 
37926 
37950 
38000 
38075 
38076 
38074 
38055 
38085 
38177 
38248 
38271 
38297 
38374 
38462 
38488 
38482 
38474 
38439 
38462 
38484 
38528 
38556 
38551 
38539 
38556 
38617 
38672 
38698 
38773 
38875 
38951 
39040 
39052 
39004 
39031 
39031 
39024 
39078 
39097 
39124 
39200 
39227 
39314 
39367 
39429 
39470 
39448 
39536 
39689 
39823 
39936 
39921 
39960 
40006 
40005 
40037 
40070 
40125 
40188 
40229 
40250 
40245 
40264 
40334 
40302 
40311 
40377 
40386 
40385 
40427 
40452 
40474 
40506 
40523 
40539 
40567 
40585 
40586 
40586 
40572 
40512 
40491 
40524 
40535 
40533 
40556 
40597 
40628 
40651 
40716 
40787 
40848 
40808 
40780 
40809 
40802 
40794 
40754 
40751 
40783 
40822 
40883 
40957 
41033 
41045 
41011 
40978 
41002 
41027 
41027 
41008 
40995 
40989 
41027 
41026 
41034 
41036 
41027 
40990 
40981 
41004 
40949 
40809 
40707 
40571 
40437 
40323 
40199 
39999 
39785 
39667 
39552 
39434 
39291 
39149 
39028 
38902 
38746 
38599 
38451 
38362 
38269 
38102 
37993 
37927 
37854 
37804 
37770 
37681 
37543 
37474 
37469 
37401 
37373 
37372 
37375 
37363 
37312 
37305 
37342 
37343 
37336 
37350 
37345 
37367 
37445 
37462 
37430 
37420 
37443 
37506 
37554 
37628 
37717 
37785 
37821 
37889 
37930 
37944 
37987 
38039 
38088 
38130 
38163 
38226 
38269 
38342 
38416 
38486 
38527 
38585 
38676 
38744 
38762 
38775 
38890 
38977 
38984 
39000 
39019 
39046 
39066 
39123 
39126 
39192 
39294 
39413 
39496 
39567 
39622 
39662 
39704 
39765 
39831 
39897 
39949 
40009 
40119 
40179 
40302 
40414 
40456 
40489 
40465 
40443 
40434 
40458 
40527 
40616 
40689 
40725 
40755 
40793 
40874 
40956 
40978 
41026 
41003 
41015 
41082 
41113 
41079 
41054 
41083 
41087 
41093 
41144 
41178 
41196 
41154 
41130 
41147 
41162 
41170 
41181 
41124 
41099 
41104 
41180 
41196 
41215 
41225 
41223 
41257 
41260 
41218 
41157 
41134 
41153 
41215 
41187 
41158 
41163 
41164 
41149 
41115 
41124 
41155 
41143 
41166 
41239 
41202 
41137 
41047 
40894 
40843 
40732 
40586 
40465 
40331 
40146 
39983 
39872 
39787 
39701 
39574 
39336 
39088 
38939 
38809 
38635 
38449 
38327 
38191 
38027 
37865 
37678 
37547 
37461 
37402 
37305 
37172 
37080 
37015 
36933 
36861 
36874 
36828 
36738 
36710 
36715 
36712 
36681 
36678 
36703 
36673 
36633 
36673 
36699 
36697 
36747 
36881 
36951 
36993 
36999 
37010 
37083 
37138 
37134 
37162 
37244 
37389 
37506 
37608 
37712 
37777 
37827 
37829 
37867 
37926 
38002 
38069 
38170 
38261 
38392 
38540 
38627 
38653 
38750 
38840 
38931 
39005 
39093 
39181 
39227 
39267 
39371 
39437 
39454 
39538 
39685 
39736 
39767 
39835 
39952 
40040 
40123 
40216 
40326 
40405 
40440 
40452 
40510 
40581 
40675 
40771 
40852 
40941 
41012 
41098 
41183 
41219 
41198 
41228 
41289 
41306 
41351 
41422 
41481 
41466 
41466 
41505 
41547 
41547 
41533 
41548 
41600 
41650 
41686 
41668 
41641 
41652 
41659 
41700 
41699 
41706 
41733 
41726 
41716 
41817 
41934 
41874 
41815 
41816 
41852 
41908 
41907 
41891 
41869 
41851 
41841 
41787 
41770 
41743 
41781 
41754 
41755 
41805 
41786 
41773 
41758 
41740 
41791 
41815 
41706 
41605 
41530 
41463 
41364 
41277 
41207 
41105 
40960 
40775 
40540 
40393 
40235 
40122 
40054 
39942 
39745 
39512 
39367 
39220 
39085 
38927 
38742 
38572 
38431 
38279 
38122 
37950 
37838 
37730 
37622 
37491 
37352 
37222 
37122 
37025 
36885 
36817 
36810 
36793 
36776 
36804 
36848 
36886 
36904 
36909 
36923 
36979 
36996 
36992 
37014 
36979 
36980 
37037 
37118 
37172 
37259 
37372 
37445 
37565 
37650 
37703 
37792 
37844 
37906 
37991 
38105 
38182 
38233 
38280 
38366 
38437 
38457 
38494 
38556 
38586 
38620 
38677 
38740 
38751 
38807 
38879 
38916 
38981 
39065 
39192 
39284 
39366 
39478 
39589 
39650 
39727 
39746 
39745 
39857 
40035 
40175 
40215 
40238 
40336 
40396 
40466 
40513 
40503 
40503 
40488 
40543 
40622 
40656 
40689 
40756 
40799 
40862 
40876 
40902 
40907 
40942 
40982 
40990 
41046 
41080 
41114 
41116 
41070 
41051 
41043 
41002 
41019 
41057 
41101 
41150 
41210 
41269 
41289 
41219 
41210 
41254 
41298 
41317 
41282 
41265 
41231 
41247 
41334 
41375 
41362 
41373 
41339 
41357 
41389 
41423 
41457 
41451 
41350 
41260 
41314 
41453 
41459 
41428 
41451 
41404 
41282 
41187 
41085 
40948 
40772 
40605 
40479 
40311 
40171 
39979 
39804 
39671 
39490 
39286 
39114 
38958 
38817 
38659 
38460 
38275 
38090 
37963 
37867 
37744 
37628 
37489 
37329 
37209 
37142 
37030 
36949 
36894 
36882 
36915 
36919 
36911 
36924 
36902 
36940 
36994 
37035 
37092 
37112 
37135 
37202 
37233 
37271 
37283 
37313 
37361 
37423 
37451 
37498 
37544 
37586 
37676 
37761 
37834 
37950 
38031 
38090 
38182 
38304 
38381 
38451 
38454 
38478 
38556 
38643 
38707 
38800 
38929 
39054 
39118 
39174 
39320 
39471 
39501 
39536 
39623 
39734 
39899 
40033 
40132 
40203 
40214 
40209 
40236 
40280 
40339 
40446 
40535 
40580 
40664 
40734 
40807 
40802 
40802 
40885 
40954 
40978 
41032 
41046 
41089 
41144 
41177 
41215 
41251 
41296 
41319 
41323 
41317 
41296 
41329 
41456 
41570 
41626 
41635 
41628 
41651 
41687 
41709 
41735 
41842 
41865 
41811 
41749 
41745 
41753 
41750 
41735 
41725 
41717 
41680 
41707 
41747 
41718 
41736 
41800 
41807 
41798 
41808 
41777 
41755 
41771 
41734 
41707 
41643 
41558 
41451 
41310 
41187 
41037 
40785 
40542 
40356 
40152 
39903 
39685 
39514 
39339 
39139 
38901 
38661 
38407 
38092 
37821 
37599 
37403 
37212 
37018 
36860 
36719 
36566 
36424 
36275 
36184 
36071 
35898 
35786 
35713 
35604 
35516 
35483 
35464 
35425 
35409 
35421 
35435 
35465 
35493 
35467 
35488 
35593 
35713 
35775 
35845 
35921 
35932 
35984 
36122 
36242 
36321 
36409 
36523 
36650 
36756 
36856 
37025 
37124 
37175 
37266 
37428 
37590 
37726 
37792 
37920 
38014 
38127 
38242 
38372 
38545 
38627 
38622 
38694 
38734 
38846 
38953 
39069 
39196 
39287 
39374 
39497 
39639 
39740 
39788 
39817 
39889 
39983 
40068 
40175 
40245 
40314 
40395 
40458 
40585 
40683 
40710 
40771 
40854 
40932 
40978 
41080 
41201 
41321 
41387 
41422 
41459 
41546 
41703 
41819 
41858 
41948 
42057 
42131 
42132 
42200 
42301 
42349 
42382 
42433 
42472 
42547 
42624 
42657 
42710 
42755 
42793 
42809 
42803 
42839 
42864 
42892 
42948 
43020 
43099 
43209 
43286 
43297 
43293 
43249 
43272 
43269 
43246 
43228 
43247 
43293 
43341 
43348 
43355 
43397 
43410 
43396 
43405 
43403 
43323 
43193 
43072 
42905 
42707 
42497 
42264 
42006 
41754 
41504 
41276 
41009 
40737 
40480 
40227 
39984 
39691 
39488 
39251 
38970 
38694 
38464 
38271 
38091 
37887 
37711 
37540 
37386 
37230 
37075 
36951 
36931 
36907 
36828 
36749 
36674 
36606 
36523 
36465 
36441 
36480 
36520 
36515 
36538 
36571 
36611 
36706 
36801 
36862 
36923 
36983 
37033 
37155 
37260 
37364 
37507 
37631 
37769 
37855 
37958 
38082 
38222 
38336 
38406 
38496 
38550 
38673 
38806 
38953 
39098 
39191 
39248 
39324 
39411 
39494 
39574 
39662 
39733 
39819 
39941 
40040 
40141 
40282 
40404 
40487 
40597 
40720 
40843 
40940 
40986 
40996 
41029 
41148 
41258 
41365 
41484 
41616 
41704 
41781 
41840 
41858 
41924 
42051 
42114 
42127 
42107 
42189 
42255 
42330 
42411 
42480 
42571 
42649 
42742 
42814 
42861 
42913 
42939 
42950 
42979 
42995 
42949 
42957 
43050 
43082 
43065 
43112 
43120 
43153 
43222 
43285 
43266 
43271 
43332 
43367 
43433 
43457 
43541 
43562 
43511 
43494 
43554 
43617 
43642 
43634 
43642 
43678 
43660 
43692 
43783 
43833 
43835 
43833 
43844 
43837 
43826 
43771 
43644 
43483 
43355 
43255 
43097 
42933 
42696 
42451 
42223 
42000 
41712 
41419 
41204 
41048 
40837 
40593 
40328 
40110 
39980 
39794 
39521 
39352 
39245 
39059 
38839 
38676 
38540 
38443 
38356 
38229 
38070 
38019 
37944 
37852 
37776 
37751 
37738 
37696 
37662 
37678 
37653 
37670 
37761 
37889 
37984 
38047 
38099 
38152 
38262 
38439 
38534 
38622 
38641 
38641 
38756 
38878 
38974 
39149 
39249 
39345 
39460 
39495 
39563 
39633 
39783 
39897 
40002 
40097 
40182 
40221 
40261 
40340 
40439 
40534 
40582 
40626 
40658 
40742 
40866 
40928 
41075 
41166 
41173 
41192 
41324 
41397 
41389 
41427 
41489 
41569 
41676 
41757 
41812 
41875 
41966 
42058 
42151 
42239 
42321 
42375 
42480 
42552 
42601 
42621 
42700 
42801 
42843 
42859 
42908 
42973 
43028 
43059 
43093 
43110 
43180 
43264 
43345 
43406 
43497 
43541 
43552 
43587 
43613 
43633 
43679 
43714 
43733 
43772 
43811 
43886 
43922 
43900 
43861 
43928 
43976 
43968 
43993 
44003 
43997 
44018 
44052 
44013 
43985 
44021 
44042 
43993 
43995 
43919 
43881 
43933 
43946 
43936 
43915 
43911 
43893 
43871 
43895 
43904 
43902 
43860 
43700 
43582 
43508 
43410 
43294 
43103 
42845 
42539 
42275 
41987 
41720 
41484 
41232 
41003 
40790 
40513 
40195 
39835 
39517 
39292 
39062 
38827 
38644 
38435 
38216 
38027 
37893 
37752 
37599 
37411 
37257 
37160 
37062 
36921 
36758 
36633 
36526 
36532 
36476 
36376 
36363 
36346 
36280 
36278 
36349 
36402 
36445 
36512 
36637 
36719 
36780 
36870 
36971 
37061 
37143 
37269 
37362 
37434 
37488 
37595 
37800 
37979 
38116 
38207 
38337 
38452 
38615 
38804 
38952 
39095 
39203 
39315 
39418 
39523 
39690 
39778 
39886 
39976 
40044 
40103 
40234 
40391 
40532 
40673 
40791 
40908 
40996 
41071 
41215 
41351 
41423 
41474 
41517 
41557 
41644 
41766 
41885 
41962 
41969 
42013 
42064 
42150 
42234 
42265 
42305 
42314 
42381 
42478 
42518 
42535 
42610 
42685 
42718 
42734 
42813 
42889 
42943 
42966 
42970 
42983 
42999 
43060 
43132 
43214 
43336 
43430 
43451 
43471 
43473 
43480 
43486 
43520 
43579 
43663 
43713 
43788 
43832 
43788 
43783 
43828 
43824 
43801 
43824 
43876 
43905 
43941 
44023 
44079 
44084 
44075 
44055 
44074 
44093 
44116 
44165 
44175 
44127 
44041 
44052 
44076 
44062 
44041 
44042 
44039 
44000 
43998 
44012 
43991 
43989 
44023 
44007 
43955 
43934 
44005 
44009 
44000 
44000 
43961 
43836 
43710 
43560 
43447 
43273 
43049 
42771 
42407 
42047 
41764 
41481 
41231 
40947 
40680 
40376 
40047 
39734 
39438 
39145 
38864 
38560 
38294 
38076 
37875 
37633 
37380 
37171 
36971 
36787 
36589 
36385 
36197 
36069 
35960 
35861 
35754 
35693 
35685 
35681 
35677 
35660 
35670 
35712 
35789 
35869 
35909 
36023 
36173 
36295 
36417 
36509 
36609 
36730 
36868 
36976 
37074 
37220 
37356 
37447 
37576 
37755 
37949 
38072 
38169 
38355 
38565 
38755 
38869 
38995 
39138 
39241 
39390 
39561 
39649 
39675 
39717 
39834 
39982 
40141 
40259 
40322 
40368 
40518 
40666 
40800 
40933 
41027 
41100 
41129 
41244 
41400 
41521 
41649 
41806 
41924 
41979 
42032 
42102 
42171 
42250 
42344 
42342 
42341 
42411 
42507 
42620 
42732 
42822 
42903 
43039 
43144 
43129 
43184 
43248 
43359 
43485 
43572 
43655 
43665 
43624 
43666 
43704 
43748 
43790 
43869 
43954 
43961 
43971 
43976 
44001 
44012 
44007 
43995 
44026 
44085 
44125 
44099 
44085 
44126 
44211 
44291 
44285 
44284 
44349 
44445 
44487 
44578 
44590 
44559 
44526 
44534 
44581 
44625 
44717 
44766 
44736 
44715 
44698 
44664 
44630 
44637 
44650 
44649 
44675 
44718 
44737 
44739 
44713 
44647 
44608 
44618 
44611 
44589 
44548 
44505 
44434 
44429 
44404 
44417 
44409 
44409 
44358 
44284 
44226 
44175 
44096 
44050 
44035 
44042 
44031 
43963 
43934 
43895 
43852 
43787 
43683 
43544 
43329 
43079 
42857 
42601 
42327 
42122 
41891 
41650 
41425 
41196 
40879 
40575 
40305 
40058 
39776 
39499 
39209 
38910 
38672 
38496 
38322 
38133 
37931 
37669 
37438 
37249 
37103 
36943 
36767 
36654 
36570 
36469 
36329 
36222 
36181 
36075 
35987 
35990 
35975 
35979 
36012 
36060 
36160 
36225 
36259 
36340 
36481 
36597 
36698 
36831 
36938 
37033 
37160 
37252 
37334 
37382 
37495 
37675 
37839 
38039 
38173 
38248 
38414 
38572 
38612 
38735 
38828 
38926 
39021 
39115 
39193 
39274 
39362 
39491 
39618 
39780 
39942 
40135 
40274 
40379 
40503 
40657 
40775 
40822 
40892 
40987 
41104 
41215 
41301 
41315 
41352 
41387 
41430 
41503 
41581 
41661 
41774 
41844 
41908 
41994 
42116 
42171 
42179 
42261 
42404 
42482 
42495 
42553 
42653 
42743 
42845 
42946 
42993 
43043 
43155 
43210 
43190 
43175 
43230 
43301 
43330 
43399 
43467 
43510 
43510 
43500 
43505 
43527 
43577 
43548 
43572 
43590 
43575 
43548 
43572 
43616 
43654 
43732 
43790 
43809 
43789 
43770 
43767 
43843 
43938 
43941 
43949 
43998 
44029 
44038 
44076 
44066 
44078 
44145 
44184 
44160 
44171 
44184 
44144 
44076 
44011 
43959 
43935 
43959 
43974 
43996 
43974 
43988 
43988 
43979 
43965 
43963 
43927 
43894 
43884 
43885 
43889 
43908 
43909 
43824 
43722 
43629 
43602 
43614 
43547 
43497 
43487 
43422 
43333 
43249 
43092 
42918 
42820 
42695 
42462 
42162 
41929 
41735 
41520 
41287 
41109 
40928 
40737 
40521 
40318 
40091 
39846 
39609 
39425 
39261 
39110 
38979 
38835 
38677 
38503 
38360 
38250 
38109 
38029 
37981 
37864 
37727 
37708 
37699 
37667 
37665 
37709 
37710 
37685 
37613 
37571 
37620 
37634 
37624 
37645 
37750 
37834 
37844 
37908 
38006 
38073 
38169 
38215 
38229 
38348 
38509 
38608 
38636 
38678 
38710 
38807 
38972 
39085 
39185 
39260 
39342 
39384 
39480 
39521 
39519 
39600 
39723 
39790 
39823 
39877 
40005 
40105 
40150 
40169 
40222 
40287 
40401 
40492 
40608 
40684 
40760 
40824 
40887 
40927 
40971 
41046 
41136 
41190 
41242 
41268 
41336 
41405 
41458 
41471 
41529 
41552 
41576 
41606 
41679 
41782 
41869 
41864 
41885 
41913 
41951 
41995 
42030 
42056 
42048 
42040 
42106 
42128 
42223 
42338 
42373 
42418 
42455 
42471 
42556 
42576 
42605 
42648 
42645 
42672 
42672 
42653 
42639 
42653 
42718 
42781 
42792 
42798 
42774 
42817 
42821 
42845 
42887 
42875 
42884 
42945 
42950 
42962 
42982 
42955 
42931 
42908 
42931 
42951 
42970 
42926 
42916 
42911 
42865 
42836 
42863 
42890 
42985 
43048 
42981 
42877 
42882 
42912 
42792 
42686 
42671 
42608 
42439 
42263 
42170 
42025 
41811 
41627 
41445 
41286 
41158 
40923 
40666 
40491 
40343 
40196 
40013 
39773 
39608 
39481 
39339 
39167 
38985 
38758 
38590 
38503 
38429 
38355 
38262 
38157 
38051 
37967 
37905 
37866 
37790 
37721 
37729 
37737 
37720 
37711 
37738 
37770 
37788 
37837 
37851 
37833 
37885 
37923 
37992 
38040 
38067 
38114 
38103 
38174 
38262 
38341 
38411 
38439 
38477 
38513 
38564 
38593 
38681 
38760 
38797 
38857 
38922 
39010 
39107 
39226 
39326 
39376 
39417 
39467 
39549 
39577 
39691 
39814 
39844 
39819 
39764 
39770 
39821 
39894 
40009 
40090 
40116 
40203 
40329 
40459 
40524 
40550 
40601 
40709 
40784 
40829 
40871 
40923 
40938 
40944 
41007 
41118 
41178 
41227 
41272 
41273 
41275 
41275 
41301 
41357 
41473 
41570 
41612 
41644 
41673 
41719 
41711 
41710 
41784 
41868 
41884 
41877 
41877 
41921 
41933 
41978 
42042 
42085 
42113 
42144 
42167 
42155 
42149 
42107 
42123 
42137 
42223 
42291 
42327 
42289 
42236 
42248 
42228 
42211 
42256 
42245 
42203 
42200 
42252 
42303 
42320 
42299 
42287 
42284 
42252 
42223 
42191 
42200 
42197 
42199 
42159 
42104 
42080 
42075 
42014 
41876 
41740 
41570 
41328 
41140 
40961 
40768 
40530 
40331 
40127 
39916 
39716 
39549 
39389 
39218 
39023 
38814 
38633 
38455 
38249 
38089 
37953 
37785 
37695 
37576 
37424 
37265 
37161 
37048 
37002 
36963 
36872 
36805 
36753 
36720 
36700 
36658 
36616 
36539 
36561 
36646 
36708 
36713 
36769 
36864 
36955 
37053 
37074 
37075 
37139 
37244 
37347 
37422 
37524 
37637 
37713 
37794 
37857 
37920 
38035 
38093 
38162 
38295 
38362 
38376 
38420 
38524 
38592 
38688 
38840 
38941 
38978 
39018 
39074 
39165 
39318 
39465 
39537 
39620 
39693 
39750 
39824 
39851 
39930 
40042 
40116 
40223 
40331 
40375 
40399 
40484 
40526 
40541 
40630 
40726 
40769 
40817 
40890 
40989 
41090 
41159 
41191 
41191 
41254 
41317 
41334 
41395 
41453 
41470 
41540 
41640 
41708 
41746 
41803 
41857 
41865 
41843 
41832 
41857 
41887 
41947 
42006 
42046 
42110 
42146 
42160 
42163 
42214 
42279 
42357 
42387 
42365 
42434 
42517 
42519 
42489 
42492 
42515 
42569 
42605 
42634 
42602 
42585 
42582 
42633 
42688 
42674 
42698 
42726 
42758 
42789 
42741 
42716 
42691 
42659 
42641 
42624 
42585 
42639 
42635 
42576 
42510 
42487 
42434 
42327 
42150 
41949 
41793 
41630 
41414 
41190 
40993 
40777 
40493 
40265 
40097 
39873 
39701 
39577 
39453 
39280 
39002 
38752 
38567 
38402 
38287 
38202 
38074 
37974 
37869 
37713 
37551 
37417 
37325 
37273 
37253 
37205 
37205 
37216 
37144 
37105 
37054 
37013 
36987 
36984 
37029 
37074 
37084 
37065 
37069 
37144 
37143 
37219 
37301 
37320 
37391 
37488 
37563 
37704 
37782 
37848 
37908 
38007 
38120 
38197 
38325 
38417 
38474 
38537 
38604 
38681 
38805 
38900 
38959 
38989 
39001 
39065 
39102 
39205 
39352 
39444 
39543 
39606 
39639 
39705 
39799 
39840 
39878 
39935 
39982 
40014 
40087 
40156 
40219 
40257 
40296 
40374 
40472 
40513 
40502 
40556 
40595 
40677 
40734 
40770 
40800 
40852 
40903 
41019 
41042 
41077 
41164 
41206 
41290 
41371 
41508 
41611 
41654 
41672 
41694 
41648 
41652 
41724 
41844 
41919 
41900 
41864 
41882 
41951 
42027 
42128 
42159 
42164 
42208 
42293 
42380 
42402 
42384 
42385 
42379 
42355 
42386 
42461 
42511 
42541 
42574 
42588 
42575 
42566 
42580 
42587 
42616 
42689 
42725 
42722 
42727 
42707 
42684 
42661 
42611 
42641 
42716 
42771 
42743 
42668 
42640 
42591 
42496 
42318 
42142 
41979 
41750 
41582 
41407 
41183 
40946 
40689 
40484 
40237 
40013 
39843 
39627 
39405 
39191 
38983 
38780 
38616 
38463 
38315 
38120 
37916 
37794 
37660 
37523 
37442 
37332 
37165 
37043 
36923 
36792 
36739 
36712 
36671 
36557 
36543 
36549 
36573 
36599 
36644 
36707 
36752 
36839 
36921 
36965 
37012 
37089 
37167 
37255 
37359 
37408 
37462 
37563 
37649 
37754 
37846 
37988 
38149 
38237 
38277 
38315 
38383 
38409 
38510 
38584 
38712 
38852 
38947 
38993 
39064 
39113 
39181 
39258 
39280 
39364 
39446 
39543 
39615 
39649 
39719 
39843 
39940 
40045 
40122 
40171 
40175 
40188 
40247 
40312 
40310 
40323 
40384 
40464 
40545 
40570 
40614 
40648 
40675 
40763 
40863 
40958 
41060 
41116 
41130 
41191 
41243 
41227 
41248 
41296 
41369 
41451 
41483 
41482 
41500 
41541 
41587 
41625 
41663 
41671 
41684 
41722 
41805 
41857 
41899 
41943 
41945 
41917 
41910 
41920 
41912 
41972 
42029 
42066 
42078 
42061 
42111 
42172 
42210 
42225 
42199 
42194 
42270 
42342 
42414 
42416 
42349 
42274 
42305 
42361 
42384 
42426 
42415 
42435 
42456 
42477 
42454 
42427 
42449 
42467 
42424 
42342 
42278 
42201 
42115 
41975 
41836 
41606 
41400 
41250 
41089 
40911 
40680 
40429 
40224 
40055 
39876 
39691 
39508 
39321 
39146 
38927 
38767 
38610 
38431 
38280 
38147 
38024 
37920 
37770 
37641 
37620 
37536 
37487 
37396 
37300 
37251 
37227 
37219 
37174 
37153 
37214 
37259 
37313 
37375 
37396 
37412 
37423 
37441 
37505 
37537 
37603 
37727 
37856 
37924 
37991 
38105 
38190 
38339 
38479 
38575 
38636 
38696 
38854 
38990 
39102 
39222 
39275 
39310 
39308 
39388 
39456 
39562 
39662 
39726 
39768 
39846 
39902 
39959 
40086 
40157 
40257 
40309 
40399 
40480 
40495 
40557 
40700 
40724 
40721 
40809 
40912 
40978 
41026 
41037 
41131 
41188 
41182 
41224 
41325 
41366 
41361 
41410 
41468 
41565 
41683 
41733 
41798 
41856 
41860 
41883 
41894 
41909 
41950 
41987 
42018 
42076 
42146 
42211 
42260 
42292 
42316 
42339 
42364 
42455 
42511 
42545 
42568 
42600 
42601 
42693 
42773 
42810 
42830 
42785 
42820 
42902 
42938 
42952 
42951 
42940 
42973 
42983 
43000 
43003 
42976 
42951 
42957 
42979 
42992 
43043 
43049 
43049 
43036 
43074 
43050 
43053 
43059 
43044 
43086 
43089 
43163 
43211 
43188 
43161 
43083 
42973 
42858 
42781 
42691 
42521 
42327 
42110 
41905 
41706 
41523 
41314 
41164 
40952 
40782 
40586 
40378 
40148 
39925 
39717 
39500 
39320 
39168 
39059 
38960 
38789 
38642 
38510 
38373 
38284 
38154 
38029 
37926 
37859 
37783 
37728 
37723 
37668 
37574 
37528 
37488 
37503 
37542 
37637 
37688 
37609 
37626 
37723 
37847 
37875 
37908 
37987 
38092 
38219 
38331 
38435 
38518 
38561 
38668 
38767 
38860 
38913 
38961 
39011 
39126 
39281 
39445 
39553 
39592 
39626 
39690 
39768 
39889 
39999 
40114 
40207 
40258 
40304 
40345 
40393 
40441 
40539 
40620 
40634 
40636 
40642 
40684 
40755 
40858 
40906 
40954 
41045 
41128 
41220 
41265 
41366 
41446 
41480 
41525 
41616 
41668 
41698 
41725 
41823 
41892 
41956 
41997 
42027 
42036 
42054 
42071 
42079 
42054 
42132 
42214 
42235 
42245 
42297 
42361 
42416 
42426 
42389 
42425 
42487 
42526 
42546 
42576 
42645 
42679 
42678 
42667 
42670 
42685 
42726 
42791 
42907 
42979 
42968 
43000 
42983 
42939 
42949 
43003 
43032 
43110 
43165 
43202 
43246 
43254 
43246 
43226 
43235 
43244 
43228 
43233 
43254 
43197 
43222 
43244 
43191 
43159 
43160 
43161 
43179 
43247 
43292 
43244 
43186 
43119 
43013 
42910 
42795 
42580 
42319 
42163 
42026 
41829 
41615 
41419 
41186 
40978 
40800 
40599 
40397 
40229 
40039 
39827 
39649 
39490 
39345 
39187 
39051 
38949 
38850 
38699 
38522 
38378 
38282 
38226 
38121 
38102 
38127 
38096 
38073 
38108 
38142 
38220 
38244 
38284 
38353 
38387 
38412 
38467 
38521 
38609 
38711 
38767 
38826 
38881 
38932 
39037 
39114 
39149 
39196 
39261 
39348 
39467 
39617 
39804 
39892 
39915 
39958 
40043 
40125 
40212 
40311 
40377 
40434 
40516 
40546 
40605 
40668 
40742 
40867 
40951 
40959 
41012 
41082 
41124 
41148 
41214 
41294 
41309 
41322 
41360 
41446 
41496 
41571 
41668 
41778 
41808 
41812 
41882 
41968 
41972 
41945 
41978 
42084 
42164 
42155 
42174 
42197 
42188 
42162 
42205 
42241 
42280 
42329 
42412 
42481 
42543 
42567 
42613 
42652 
42677 
42664 
42690 
42760 
42798 
42799 
42808 
42826 
42811 
42795 
42795 
42864 
42929 
42939 
42932 
42991 
43052 
43125 
43171 
43143 
43166 
43184 
43148 
43107 
43167 
43178 
43141 
43126 
43163 
43207 
43213 
43184 
43185 
43171 
43197 
43210 
43257 
43296 
43286 
43227 
43185 
43193 
43150 
43088 
43002 
42941 
42918 
42851 
42749 
42565 
42355 
42119 
41851 
41641 
41413 
41155 
40912 
40665 
40429 
40234 
40014 
39809 
39572 
39294 
38997 
38781 
38581 
38377 
38211 
38077 
37880 
37687 
37495 
37336 
37261 
37130 
37015 
36969 
36923 
36821 
36734 
36730 
36659 
36637 
36618 
36570 
36539 
36516 
36590 
36598 
36588 
36642 
36703 
36703 
36728 
36824 
36927 
37037 
37166 
37297 
37404 
37448 
37528 
37626 
37818 
37992 
38097 
38204 
38342 
38474 
38585 
38700 
38807 
38925 
39072 
39245 
39345 
39404 
39435 
39456 
39570 
39700 
39761 
39852 
39927 
39988 
40011 
40075 
40151 
40242 
40295 
40298 
40350 
40471 
40526 
40556 
40674 
40777 
40840 
40862 
40953 
41028 
41100 
41175 
41312 
41401 
41479 
41559 
41656 
41732 
41823 
41947 
42031 
42040 
42138 
42235 
42341 
42454 
42519 
42600 
42691 
42787 
42861 
42956 
43044 
43149 
43188 
43260 
43420 
43585 
43667 
43684 
43656 
43666 
43743 
43891 
43970 
44045 
44153 
44254 
44297 
44270 
44253 
44288 
44309 
44351 
44376 
44413 
44471 
44522 
44590 
44715 
44788 
44810 
44819 
44886 
44907 
44959 
45005 
45028 
45038 
45027 
45018 
45088 
45134 
45168 
45171 
45152 
45172 
45149 
45089 
45084 
45051 
44957 
44829 
44697 
44527 
44378 
44214 
44027 
43824 
43564 
43300 
43033 
42809 
42568 
42298 
42067 
41843 
41559 
41326 
41108 
40889 
40691 
40488 
40323 
40183 
40076 
39992 
39907 
39824 
39745 
39629 
39552 
39500 
39467 
39413 
39403 
39402 
39336 
39289 
39308 
39305 
39330 
39404 
39434 
39442 
39470 
39528 
39557 
39560 
39586 
39680 
39774 
39831 
39925 
40037 
40122 
40211 
40277 
40364 
40382 
40442 
40571 
40705 
40823 
40874 
40907 
40928 
40959 
41004 
41081 
41131 
41142 
41147 
41186 
41274 
41370 
41465 
41505 
41531 
41489 
41503 
41550 
41560 
41600 
41603 
41628 
41658 
41656 
41651 
41691 
41716 
41728 
41717 
41749 
41751 
41828 
41892 
41914 
41965 
42042 
42097 
42102 
42054 
42015 
42029 
42074 
42135 
42188 
42236 
42253 
42258 
42312 
42404 
42574 
42712 
42788 
42868 
42846 
42880 
42920 
42949 
42952 
42951 
43052 
43149 
43226 
43259 
43226 
43341 
43487 
43533 
43569 
43608 
43598 
43592 
43637 
43658 
43731 
43759 
43827 
43910 
43937 
43911 
43921 
43929 
43967 
43990 
44058 
44074 
44034 
44016 
44008 
44020 
44012 
44028 
43988 
43969 
44003 
44025 
43955 
43893 
43817 
43712 
43595 
43461 
43280 
43131 
42977 
42766 
42508 
42280 
42116 
41913 
41645 
41422 
41193 
40996 
40756 
40550 
40267 
40014 
39880 
39791 
39664 
39474 
39322 
39192 
39009 
38878 
38746 
38712 
38677 
38634 
38602 
38540 
38528 
38577 
38595 
38627 
38673 
38671 
38659 
38700 
38763 
38818 
38834 
38839 
38887 
38948 
39059 
39186 
39226 
39297 
39454 
39616 
39751 
39863 
39945 
40052 
40155 
40212 
40272 
40373 
40485 
40640 
40789 
40869 
40942 
41093 
41196 
41222 
41247 
41309 
41409 
41458 
41522 
41597 
41642 
41695 
41741 
41842 
41892 
41938 
41979 
41945 
41907 
41920 
41919 
41933 
41977 
42042 
42031 
42058 
42084 
42164 
42263 
42270 
42337 
42436 
42489 
42442 
42417 
42501 
42581 
42609 
42643 
42736 
42819 
42945 
42995 
43015 
43068 
43133 
43190 
43238 
43279 
43379 
43440 
43495 
43557 
43629 
43729 
43831 
43863 
43833 
43823 
43874 
43905 
44000 
44104 
44182 
44255 
44345 
44419 
44496 
44565 
44637 
44697 
44672 
44612 
44560 
44565 
44469 
44420 
44444 
44461 
44454 
44438 
44425 
44431 
44429 
44394 
44321 
44240 
44201 
44054 
43919 
43774 
43653 
43496 
43310 
43126 
42890 
42676 
42453 
42229 
42007 
41740 
41442 
41183 
40997 
40787 
40559 
40337 
40153 
39983 
39781 
39605 
39405 
39265 
39149 
39017 
38850 
38720 
38623 
38531 
38512 
38454 
38382 
38325 
38271 
38195 
38198 
38208 
38229 
38229 
38256 
38299 
38340 
38330 
38387 
38481 
38499 
38576 
38771 
38926 
39050 
39154 
39256 
39334 
39449 
39565 
39695 
39868 
40030 
40155 
40195 
40307 
40441 
40580 
40688 
40857 
40956 
41025 
41084 
41168 
41259 
41361 
41426 
41511 
41582 
41677 
41762 
41855 
41884 
41918 
42014 
42119 
42174 
42222 
42253 
42272 
42266 
42223 
42224 
42304 
42406 
42515 
42613 
42685 
42710 
42744 
42818 
42825 
42864 
42970 
43086 
43129 
43176 
43244 
43284 
43391 
43501 
43538 
43577 
43625 
43701 
43757 
43774 
43792 
43835 
43894 
43980 
43963 
43988 
44065 
44162 
44245 
44300 
44325 
44413 
44471 
44525 
44628 
44722 
44734 
44774 
44825 
44897 
44955 
44975 
45002 
45050 
45145 
45217 
45230 
45207 
45251 
45340 
45431 
45504 
45555 
45587 
45647 
45705 
45691 
45706 
45753 
45841 
45875 
45922 
45930 
45914 
45903 
45903 
45829 
45740 
45668 
45540 
45327 
45057 
44766 
44577 
44387 
44198 
43979 
43741 
43478 
43218 
42993 
42763 
42515 
42254 
42050 
41838 
41643 
41442 
41238 
41116 
40969 
40839 
40750 
40636 
40523 
40413 
40341 
40276 
40265 
40297 
40357 
40391 
40402 
40414 
40438 
40482 
40497 
40479 
40522 
40598 
40651 
40703 
40707 
40795 
40923 
41054 
41110 
41222 
41368 
41469 
41626 
41742 
41865 
41974 
42081 
42192 
42356 
42430 
42504 
42644 
42791 
42884 
43005 
43082 
43140 
43253 
43308 
43326 
43375 
43477 
43545 
43622 
43737 
43769 
43820 
43881 
43935 
43987 
44087 
44114 
44094 
44131 
44237 
44320 
44342 
44399 
44437 
44421 
44452 
44521 
44589 
44721 
44886 
44993 
45057 
45166 
45273 
45389 
45440 
45452 
45477 
45569 
45699 
45808 
45877 
45921 
45984 
46042 
46100 
46201 
46301 
46381 
46416 
46417 
46408 
46432 
46538 
46652 
46735 
46769 
46801 
46856 
46939 
47063 
47146 
47175 
47172 
47150 
47174 
47229 
47268 
47329 
47457 
47534 
47559 
47574 
47605 
47658 
47680 
47680 
47631 
47579 
47530 
47515 
47523 
47525 
47468 
47444 
47471 
47442 
47358 
47272 
47231 
47181 
47069 
46919 
46729 
46477 
46224 
45964 
45723 
45421 
45076 
44792 
44524 
44264 
43910 
43506 
43147 
42852 
42561 
42264 
42095 
41810 
41480 
41243 
41023 
40804 
40590 
40364 
40134 
39922 
39763 
39607 
39451 
39315 
39194 
39077 
38936 
38833 
38764 
38740 
38735 
38709 
38685 
38685 
38676 
38687 
38719 
38783 
38847 
38917 
39023 
39108 
39206 
39321 
39393 
39455 
39538 
39648 
39783 
39861 
39901 
39967 
40012 
40138 
40306 
40446 
40583 
40724 
40830 
40953 
41027 
41059 
41063 
41069 
41069 
41086 
41119 
41080 
41042 
41006 
40991 
41008 
41024 
41014 
41018 
40984 
40942 
40897 
40832 
40843 
40897 
40878 
40817 
40759 
40722 
40735 
40793 
40804 
40780 
40786 
40839 
40925 
40962 
40940 
40939 
40946 
40966 
41003 
41020 
41032 
41039 
41056 
41092 
41145 
41166 
41136 
41089 
41117 
41168 
41124 
41137 
41167 
41103 
41054 
41059 
40989 
40910 
40895 
40887 
40880 
40828 
40824 
40858 
40905 
40886 
40850 
40870 
40853 
40808 
40759 
40771 
40714 
40716 
40704 
40669 
40670 
40721 
40736 
40673 
40623 
40617 
40630 
40623 
40628 
40692 
40849 
40916 
40915 
40883 
40890 
40879 
40862 
40807 
40760 
40730 
40676 
40592 
40469 
40328 
40163 
39959 
39813 
39649 
39381 
39134 
38914 
38722 
38558 
38380 
38117 
37855 
37617 
37397 
37201 
36983 
36765 
36560 
36391 
36264 
36148 
36004 
35867 
35758 
35661 
35634 
35600 
35520 
35464 
35400 
35406 
35433 
35466 
35514 
35562 
35632 
35652 
35745 
35858 
35979 
36115 
36176 
36209 
36326 
36465 
36579 
36684 
36761 
36866 
36959 
37024 
37115 
37255 
37391 
37431 
37507 
37678 
37814 
37873 
38001 
38115 
38231 
38364 
38500 
38607 
38669 
38698 
38725 
38779 
38785 
38787 
38891 
38972 
39039 
39137 
39178 
39145 
39172 
39199 
39213 
39287 
39357 
39375 
39376 
39380 
39343 
39314 
39260 
39210 
39202 
39239 
39286 
39235 
39189 
39161 
39131 
39080 
39027 
38970 
38965 
38940 
38906 
38905 
38937 
38987 
38974 
38890 
38824 
38831 
38811 
38804 
38782 
38765 
38796 
38774 
38755 
38694 
38699 
38689 
38676 
38661 
38630 
38576 
38536 
38514 
38485 
38483 
38482 
38424 
38381 
38412 
38463 
38513 
38535 
38563 
38599 
38596 
38594 
38637 
38695 
38680 
38615 
38554 
38542 
38493 
38455 
38458 
38492 
38501 
38453 
38322 
38233 
38186 
38125 
38068 
37968 
37841 
37702 
37505 
37303 
37107 
36939 
36805 
36659 
36418 
36223 
36042 
35854 
35599 
35373 
35174 
34975 
34763 
34591 
34408 
34198 
34031 
33910 
33814 
33711 
33563 
33491 
33487 
33418 
33291 
33267 
33308 
33362 
33428 
33454 
33508 
33519 
33485 
33412 
33419 
33463 
33557 
33596 
33708 
33770 
33830 
33984 
34164 
34365 
34492 
34613 
34797 
34990 
35162 
35341 
35514 
35625 
35733 
35892 
36051 
36211 
36378 
36535 
36630 
36697 
36832 
36944 
37048 
37189 
37346 
37574 
37815 
37960 
38050 
38141 
38188 
38273 
38436 
38541 
38603 
38689 
38806 
38878 
38908 
38914 
38967 
38999 
39020 
39036 
39045 
39095 
39255 
39327 
39386 
39466 
39482 
39548 
39616 
39631 
39674 
39770 
39822 
39887 
39903 
39945 
40034 
40098 
40212 
40246 
40254 
40281 
40338 
40376 
40422 
40510 
40618 
40707 
40736 
40806 
40862 
40876 
40912 
41034 
41141 
41280 
41399 
41434 
41460 
41487 
41493 
41523 
41594 
41592 
41629 
41609 
41630 
41656 
41684 
41748 
41876 
41962 
41942 
41887 
41919 
41935 
42006 
42068 
42130 
42130 
42121 
42196 
42229 
42199 
42223 
42245 
42197 
42181 
42095 
42023 
41952 
41836 
41686 
41516 
41314 
41045 
40855 
40635 
40390 
40121 
39835 
39542 
39267 
38954 
38631 
38280 
37954 
37639 
37348 
37053 
36783 
36531 
36225 
35938 
35752 
35561 
35315 
35075 
34891 
34706 
34530 
34333 
34174 
34070 
33948 
33851 
33755 
33643 
33625 
33573 
33507 
33423 
33287 
33179 
33180 
33148 
33125 
33118 
33098 
33017 
32930 
32928 
32883 
32862 
32935 
33022 
33101 
33198 
33292 
33347 
33414 
33568 
33762 
33921 
34039 
34154 
34312 
34426 
34535 
34619 
34779 
34978 
35099 
35166 
35239 
35293 
35336 
35402 
35452 
35507 
35526 
35510 
35557 
35677 
35771 
35878 
35926 
35953 
36062 
36156 
36195 
36196 
36250 
36342 
36474 
36574 
36710 
36832 
36974 
37013 
37058 
37159 
37294 
37428 
37520 
37604 
37680 
37710 
37700 
37783 
37959 
38090 
38171 
38277 
38349 
38419 
38481 
38519 
38552 
38590 
38550 
38490 
38512 
38605 
38653 
38676 
38778 
38863 
38879 
38834 
38855 
38868 
38872 
38888 
38876 
38845 
38798 
38773 
38790 
38787 
38813 
38845 
38839 
38861 
38860 
38927 
38930 
38940 
38927 
38907 
38957 
39001 
39012 
39011 
39062 
39035 
38974 
38990 
38994 
38964 
38960 
38936 
38883 
38825 
38724 
38611 
38471 
38324 
38092 
37908 
37739 
37569 
37416 
37226 
36973 
36707 
36464 
36254 
35988 
35677 
35404 
35191 
34989 
34697 
34450 
34206 
33955 
33758 
33569 
33378 
33165 
32932 
32800 
32692 
32531 
32369 
32202 
32042 
31912 
31814 
31807 
31785 
31734 
31707 
31742 
31707 
31687 
31697 
31720 
31761 
31758 
31789 
31807 
31839 
31879 
31961 
32093 
32223 
32353 
32431 
32550 
32721 
32900 
33015 
33119 
33191 
33311 
33411 
33548 
33647 
33751 
33884 
33986 
34088 
34214 
34365 
34489 
34612 
34685 
34744 
34840 
34936 
35003 
35033 
35109 
35224 
35348 
35430 
35494 
35527 
35541 
35587 
35671 
35800 
35860 
35847 
35880 
35981 
36108 
36144 
36186 
36239 
36251 
36302 
36375 
36472 
36579 
36671 
36776 
36825 
36828 
36870 
36934 
36962 
37003 
37050 
37092 
37205 
37284 
37351 
37392 
37425 
37518 
37597 
37670 
37740 
37782 
37846 
37852 
37882 
37944 
38017 
38067 
38133 
38200 
38222 
38219 
38244 
38244 
38287 
38324 
38279 
38294 
38356 
38357 
38349 
38378 
38411 
38481 
38578 
38622 
38623 
38581 
38603 
38637 
38710 
38714 
38770 
38828 
38870 
38914 
38987 
39030 
39052 
39086 
39093 
39081 
39111 
39209 
39271 
39211 
39174 
39071 
38950 
38828 
38651 
38431 
38251 
38020 
37822 
37631 
37393 
37170 
36936 
36717 
36460 
36171 
35893 
35632 
35370 
35142 
34918 
34742 
34565 
34330 
34141 
33975 
33773 
33649 
33601 
33556 
33507 
33399 
33310 
33196 
33132 
33114 
33113 
33140 
33139 
33095 
33073 
33055 
33033 
33050 
33116 
33153 
33188 
33176 
33143 
33134 
33180 
33232 
33310 
33418 
33472 
33535 
33618 
33684 
33792 
33900 
34021 
34149 
34236 
34326 
34377 
34484 
34581 
34655 
34681 
34749 
34782 
34781 
34816 
34884 
34978 
35070 
35105 
35122 
35116 
35135 
35225 
35308 
35333 
35329 
35381 
35474 
35559 
35613 
35673 
35761 
35828 
35882 
35913 
35914 
35944 
36009 
36075 
36131 
36197 
36230 
36271 
36304 
36331 
36393 
36447 
36535 
36625 
36724 
36835 
36931 
37040 
37133 
37160 
37113 
37169 
37284 
37362 
37461 
37529 
37525 
37510 
37544 
37601 
37667 
37700 
37713 
37717 
37791 
37828 
37776 
37838 
37914 
37924 
37931 
37984 
38003 
37980 
38043 
38164 
38199 
38231 
38282 
38314 
38354 
38355 
38318 
38319 
38367 
38378 
38386 
38420 
38436 
38396 
38376 
38379 
38373 
38413 
38444 
38421 
38331 
38251 
38177 
38090 
37956 
37790 
37592 
37426 
37228 
37025 
36797 
36547 
36308 
36071 
35833 
35665 
35481 
35300 
35134 
35001 
34878 
34755 
34608 
34422 
34307 
34197 
34037 
33917 
33768 
33657 
33574 
33424 
33327 
33264 
33236 
33246 
33283 
33265 
33255 
33202 
33149 
33181 
33170 
33166 
33225 
33261 
33283 
33318 
33409 
33502 
33543 
33556 
33594 
33677 
33751 
33856 
33973 
34045 
34123 
34169 
34250 
34302 
34354 
34474 
34540 
34560 
34602 
34716 
34777 
34779 
34848 
34917 
34985 
35040 
35032 
35051 
35079 
35135 
35167 
35196 
35269 
35289 
35248 
35218 
35218 
35247 
35239 
35231 
35223 
35250 
35300 
35364 
35448 
35504 
35628 
35693 
35694 
35748 
35851 
35902 
35975 
36037 
36144 
36251 
36346 
36434 
36479 
36556 
36649 
36722 
36818 
36947 
37058 
37129 
37192 
37297 
37322 
37347 
37407 
37461 
37539 
37644 
37788 
37824 
37810 
37805 
37834 
37879 
37924 
37950 
37974 
37976 
37972 
37968 
37912 
37890 
37931 
37955 
37944 
37915 
37864 
37914 
37988 
37994 
37982 
38007 
37956 
37893 
37873 
37886 
37876 
37819 
37797 
37819 
37817 
37685 
37621 
37508 
37300 
37108 
36877 
36642 
36452 
36307 
36045 
35771 
35511 
35313 
35129 
34946 
34772 
34560 
34377 
34183 
33997 
33847 
33679 
33517 
33354 
33140 
33018 
32916 
32752 
32600 
32553 
32520 
32448 
32376 
32340 
32280 
32202 
32149 
32133 
32170 
32206 
32191 
32123 
32045 
32011 
32067 
32117 
32162 
32243 
32325 
32406 
32478 
32522 
32565 
32696 
32792 
32883 
32914 
32946 
33038 
33179 
33224 
33271 
33324 
33405 
33430 
33519 
33599 
33695 
33747 
33842 
33954 
34057 
34148 
34166 
34230 
34342 
34432 
34572 
34610 
34627 
34694 
34789 
34844 
34946 
35036 
35101 
35157 
35248 
35352 
35441 
35510 
35606 
35716 
35862 
35874 
35898 
35965 
35987 
36079 
36172 
36260 
36316 
36381 
36410 
36445 
36564 
36609 
36613 
36660 
36737 
36832 
36909 
36941 
36974 
37006 
36996 
37003 
37065 
37115 
37168 
37165 
37193 
37295 
37287 
37267 
37327 
37366 
37443 
37474 
37425 
37387 
37438 
37469 
37493 
37451 
37408 
37438 
37462 
37487 
37505 
37516 
37525 
37497 
37502 
37491 
37430 
37388 
37417 
37438 
37423 
37434 
37411 
37372 
37314 
37261 
37218 
37139 
37039 
36889 
36779 
36690 
36534 
36327 
36073 
35864 
35616 
35333 
35021 
34756 
34472 
34171 
33917 
33667 
33460 
33295 
33135 
32915 
32659 
32456 
32239 
32053 
31877 
31669 
31421 
31231 
31116 
30954 
30849 
30799 
30718 
30628 
30566 
30557 
30578 
30566 
30508 
30450 
30388 
30404 
30415 
30449 
30543 
30622 
30657 
30689 
30725 
30829 
30933 
31030 
31056 
31084 
31177 
31311 
31414 
31532 
31693 
31798 
31884 
32015 
32133 
32218 
32302 
32467 
32636 
32827 
32972 
33065 
33158 
33235 
33335 
33409 
33498 
33584 
33711 
33804 
33859 
33912 
33962 
34037 
34074 
34141 
34272 
34302 
34319 
34358 
34408 
34458 
34547 
34664 
34690 
34699 
34696 
34704 
34744 
34818 
34875 
34959 
35040 
35090 
35180 
35272 
35287 
35274 
35286 
35376 
35391 
35398 
35469 
35538 
35551 
35596 
35718 
35872 
35922 
35960 
35988 
35988 
36012 
36003 
36047 
36070 
36083 
36100 
36147 
36246 
36270 
36308 
36331 
36412 
36528 
36536 
36554 
36602 
36650 
36715 
36751 
36731 
36757 
36819 
36843 
36837 
36819 
36861 
36906 
36846 
36756 
36696 
36649 
36653 
36613 
36545 
36544 
36529 
36490 
36413 
36301 
36245 
36116 
35927 
35758 
35577 
35323 
35054 
34835 
34644 
34432 
34229 
34068 
33845 
33624 
33381 
33156 
32968 
32781 
32592 
32414 
32200 
31967 
31787 
31613 
31478 
31318 
31183 
31025 
30921 
30800 
30690 
30591 
30482 
30428 
30410 
30416 
30401 
30329 
30283 
30234 
30156 
30131 
30165 
30161 
30193 
30239 
30289 
30372 
30399 
30399 
30430 
30446 
30471 
30474 
30528 
30603 
30651 
30764 
30854 
30935 
30991 
30973 
30956 
31006 
31081 
31158 
31197 
31182 
31241 
31332 
31393 
31425 
31488 
31554 
31540 
31571 
31668 
31703 
31740 
31757 
31783 
31863 
31893 
31913 
31955 
32030 
32116 
32187 
32225 
32242 
32319 
32385 
32423 
32482 
32521 
32524 
32538 
32554 
32591 
32612 
32676 
32761 
32822 
32786 
32750 
32743 
32804 
32874 
32937 
32984 
32998 
32963 
32934 
32911 
32907 
32828 
32823 
32837 
32774 
32693 
32631 
32628 
32625 
32603 
32604 
32610 
32629 
32638 
32664 
32688 
32774 
32842 
32870 
32906 
32953 
33034 
33084 
33108 
33166 
33269 
33332 
33394 
33433 
33440 
33472 
33496 
33561 
33646 
33700 
33730 
33754 
33799 
33870 
33936 
33928 
33933 
33933 
33863 
33822 
33752 
33675 
33578 
33461 
33333 
33200 
33031 
32887 
32760 
32632 
32484 
32297 
32148 
32059 
31956 
31802 
31655 
31553 
31510 
31429 
31314 
31194 
31098 
30964 
30881 
30843 
30845 
30802 
30806 
30742 
30719 
30793 
30842 
30877 
30907 
30886 
30857 
30891 
30911 
30959 
31030 
31088 
31178 
31318 
31417 
31430 
31458 
31575 
31678 
31749 
31846 
31938 
32095 
32257 
32385 
32484 
32591 
32661 
32669 
32731 
32838 
32925 
33018 
33122 
33217 
33272 
33305 
33401 
33499 
33580 
33630 
33673 
33732 
33730 
33746 
33812 
33867 
33876 
33897 
33964 
33983 
33986 
34025 
34085 
34123 
34144 
34215 
34276 
34296 
34348 
34382 
34420 
34455 
34442 
34441 
34507 
34549 
34621 
34689 
34734 
34801 
34882 
34936 
35002 
35053 
35075 
35103 
35116 
35146 
35179 
35266 
35325 
35405 
35498 
35507 
35590 
35676 
35695 
35752 
35807 
35804 
35799 
35840 
35940 
36007 
36120 
36246 
36290 
36303 
36338 
36424 
36444 
36409 
36426 
36504 
36532 
36587 
36584 
36564 
36623 
36651 
36624 
36646 
36664 
36669 
36662 
36653 
36663 
36644 
36599 
36533 
36417 
36282 
36167 
36008 
35812 
35648 
35506 
35364 
35205 
35008 
34820 
34708 
34567 
34337 
34138 
33936 
33748 
33521 
33332 
33254 
33152 
33033 
32905 
32825 
32727 
32619 
32488 
32404 
32324 
32242 
32158 
32122 
32083 
32030 
32008 
31993 
31983 
31967 
31979 
31971 
31954 
31967 
31999 
32070 
32206 
32340 
32349 
32350 
32367 
32358 
32429 
32536 
32660 
32750 
32800 
32853 
32975 
33084 
33169 
33274 
33372 
33504 
33619 
33674 
33810 
33897 
33988 
34042 
34147 
34249 
34334 
34401 
34482 
34516 
34550 
34576 
34620 
34731 
34824 
34835 
34818 
34891 
34976 
35053 
35101 
35138 
35243 
35265 
35277 
35313 
35296 
35288 
35355 
35434 
35510 
35573 
35652 
35697 
35710 
35767 
35848 
35907 
35924 
35967 
36042 
36123 
36161 
36161 
36213 
36261 
36307 
36408 
36490 
36522 
36566 
36545 
36581 
36590 
36604 
36632 
36666 
36700 
36753 
36783 
36784 
36797 
36863 
36911 
36981 
36952 
36906 
36900 
36927 
36986 
37030 
37026 
37030 
37067 
37064 
37053 
37098 
37120 
37146 
37109 
37084 
37118 
37128 
37068 
37023 
37056 
37079 
37060 
37049 
37008 
36955 
36842 
36729 
36615 
36551 
36512 
36477 
36357 
36254 
36118 
35905 
35714 
35551 
35371 
35141 
35019 
34919 
34749 
34603 
34464 
34302 
34173 
34039 
33933 
33917 
33882 
33815 
33767 
33626 
33512 
33394 
33314 
33287 
33220 
33164 
33133 
33053 
32999 
32957 
32900 
32854 
32809 
32835 
32870 
32882 
32911 
32946 
32971 
32945 
32978 
33003 
33033 
33059 
33106 
33190 
33376 
33461 
33455 
33514 
33609 
33667 
33703 
33713 
33805 
33891 
34019 
34111 
34161 
34228 
34279 
34249 
34244 
34318 
34422 
34434 
34471 
34526 
34567 
34575 
34573 
34620 
34689 
34752 
34793 
34868 
34914 
34996 
35108 
35207 
35269 
35310 
35268 
35325 
35383 
35422 
35466 
35490 
35543 
35640 
35710 
35779 
35856 
35893 
35898 
35977 
36067 
36126 
36214 
36297 
36348 
36364 
36403 
36433 
36487 
36529 
36525 
36487 
36495 
36430 
36421 
36484 
36523 
36573 
36633 
36617 
36579 
36551 
36533 
36482 
36444 
36463 
36477 
36492 
36520 
36494 
36475 
36403 
36296 
36219 
36185 
36171 
36201 
36217 
36214 
36242 
36267 
36324 
36312 
36285 
36210 
36168 
36203 
36229 
36193 
36144 
36138 
36076 
36078 
36055 
36075 
36098 
36099 
36092 
36125 
36151 
36167 
36196 
36253 
36281 
36287 
36321 
36339 
36365 
36362 
36381 
36367 
36368 
36339 
36277 
36253 
36159 
36043 
35952 
35904 
35862 
35844 
35790 
35709 
35683 
35688 
35590 
35501 
35430 
35352 
35316 
35318 
35266 
35236 
35165 
35173 
35179 
35128 
35051 
35025 
35024 
35019 
35031 
35059 
35025 
35032 
35098 
35169 
35182 
35189 
35232 
35247 
35255 
35332 
35397 
35467 
35503 
35564 
35605 
35604 
35624 
35642 
35675 
35668 
35642 
35604 
35591 
35587 
35607 
35628 
35593 
35579 
35569 
35528 
35512 
35534 
35513 
35508 
35483 
35478 
35494 
35377 
35335 
35303 
35264 
35256 
35256 
35252 
35317 
35300 
35253 
35194 
35154 
35139 
35207 
35235 
35176 
35136 
35129 
35161 
35135 
35134 
35154 
35181 
35174 
35114 
35080 
35079 
35099 
35141 
35155 
35155 
35166 
35155 
35176 
35180 
35132 
35159 
35200 
35159 
35180 
35238 
35269 
35288 
35303 
35275 
35242 
35296 
35352 
35401 
35475 
35517 
35548 
35625 
35691 
35650 
35659 
35742 
35794 
35806 
35810 
35794 
35883 
35958 
36031 
36091 
36130 
36180 
36272 
36316 
36377 
36415 
36513 
36552 
36555 
36637 
36728 
36810 
36905 
36962 
37059 
37116 
37113 
37116 
37179 
37219 
37237 
37372 
37507 
37545 
37547 
37604 
37649 
37680 
37731 
37859 
37965 
37995 
38047 
38148 
38216 
38257 
38313 
38363 
38400 
38378 
38425 
38493 
38480 
38483 
38502 
38539 
38561 
38571 
38639 
38648 
38598 
38593 
38596 
38652 
38714 
38760 
38694 
38634 
38638 
38668 
38648 
38663 
38717 
38732 
38721 
38734 
38690 
38634 
38646 
38720 
38752 
38684 
38650 
38664 
38674 
38658 
38610 
38575 
38568 
38586 
38564 
38540 
38519 
38444 
38394 
38398 
38376 
38378 
38359 
38429 
38445 
38414 
38338 
38320 
38338 
38315 
38254 
38261 
38272 
38289 
38308 
38308 
38342 
38347 
38312 
38338 
38367 
38357 
38327 
38279 
38238 
38240 
38276 
38309 
38350 
38329 
38302 
38256 
38288 
38350 
38352 
38360 
38403 
38433 
38442 
38491 
38509 
38442 
38435 
38426 
38423 
38449 
38478 
38494 
38565 
38644 
38665 
38673 
38667 
38602 
38517 
38494 
38494 
38507 
38555 
38580 
38543 
38496 
38490 
38523 
38566 
38630 
38624 
38599 
38541 
38509 
38460 
38436 
38384 
38393 
38433 
38445 
38456 
38507 
38520 
38503 
38475 
38429 
38480 
38445 
38398 
38364 
38372 
38404 
38429 
38435 
38470 
38473 
38460 
38466 
38461 
38448 
38422 
38425 
38398 
38403 
38438 
38435 
38453 
38491 
38512 
38461 
38441 
38452 
38522 
38523 
38457 
38358 
38249 
38202 
38203 
38182 
38220 
38265 
38200 
38159 
38178 
38142 
38124 
38156 
38172 
38190 
38242 
38235 
38174 
38174 
38204 
38188 
38143 
38116 
38162 
38138 
38124 
38094 
38048 
38056 
38037 
38064 
38096 
38052 
38028 
37995 
37995 
38013 
37977 
37978 
38006 
38013 
38027 
38022 
37946 
37903 
37910 
37896 
37839 
37786 
37764 
37757 
37719 
37728 
37756 
37750 
37777 
37753 
37766 
37754 
37723 
37703 
37718 
37724 
37694 
37703 
37707 
37647 
37642 
37707 
37703 
37639 
37614 
37552 
37485 
37408 
37356 
37350 
37330 
37299 
37244 
37236 
37232 
37188 
37107 
37036 
36995 
36929 
36908 
36914 
36932 
36927 
36932 
36973 
36994 
37003 
37039 
37059 
37040 
36993 
36966 
36920 
36877 
36847 
36875 
36898 
36961 
36969 
36937 
36966 
36966 
37042 
37077 
37043 
37019 
37026 
37019 
37007 
37032 
37052 
37040 
37065 
37105 
37096 
37097 
37130 
37096 
37054 
37054 
37073 
37064 
37002 
36961 
37001 
37030 
37035 
37037 
37051 
37061 
37062 
37031 
36997 
36985 
37015 
37051 
37019 
36991 
37013 
37040 
37060 
37051 
37060 
37064 
37057 
37036 
37010 
37012 
36994 
36972 
36954 
36978 
36982 
36953 
36954 
36923 
36920 
36937 
36933 
36894 
36935 
36942 
36896 
36820 
36762 
36734 
36716 
36704 
36685 
36675 
36652 
36617 
36565 
36551 
36602 
36667 
36685 
36699 
36678 
36639 
36603 
36575 
36491 
36490 
36526 
36568 
36564 
36487 
36453 
36502 
36540 
36536 
36530 
36539 
36539 
36512 
36537 
36605 
36589 
36588 
36538 
36457 
36444 
36472 
36469 
36476 
36500 
36525 
36537 
36542 
36515 
36474 
36435 
36325 
36299 
36333 
36362 
36386 
36407 
36478 
36541 
36521 
36467 
36464 
36504 
36503 
36442 
36380 
36360 
36386 
36403 
36343 
36279 
36330 
36334 
36310 
36303 
36320 
36356 
36353 
36350 
36375 
36382 
36358 
36296 
36233 
36231 
36300 
36355 
36345 
36337 
36355 
36340 
36313 
36258 
36209 
36273 
36342 
36336 
36303 
36283 
36343 
36421 
36427 
36406 
36368 
36320 
36268 
36281 
36305 
36253 
36276 
36322 
36360 
36377 
36433 
36445 
36415 
36396 
36393 
36377 
36404 
36410 
36380 
36363 
36418 
36470 
36480 
36554 
36581 
36558 
36525 
36498 
36533 
36544 
36514 
36493 
36504 
36586 
36634 
36641 
36648 
36692 
36702 
36672 
36662 
36652 
36676 
36716 
36709 
36732 
36765 
36751 
36782 
36769 
36789 
36791 
36730 
36814 
36878 
36882 
36855 
36855 
36907 
36931 
36979 
36983 
36977 
37000 
37011 
37021 
37023 
37034 
37106 
37135 
37077 
37075 
37088 
37056 
37058 
37077 
37101 
37091 
37084 
37108 
37191 
37198 
37188 
37237 
37262 
37280 
37298 
37291 
37272 
37270 
37297 
37292 
37356 
37360 
37340 
37327 
37314 
37333 
37309 
37351 
37394 
37416 
37446 
37439 
37438 
37439 
37432 
37435 
37381 
37353 
37445 
37487 
37462 
37493 
37483 
37438 
37402 
37384 
37417 
37416 
37430 
37445 
37478 
37483 
37485 
37498 
37513 
37496 
37486 
37488 
37477 
37499 
37527 
37554 
37572 
37576 
37570 
37562 
37558 
37565 
37568 
37537 
37487 
37491 
37507 
37521 
37526 
37532 
37463 
37434 
37437 
37460 
37484 
37479 
37466 
37431 
37415 
37401 
37354 
37354 
37405 
37384 
37360 
37389 
37440 
37425 
37409 
37430 
37472 
37495 
37418 
37367 
37281 
37310 
37345 
37429 
37470 
37412 
37367 
37333 
37315 
37329 
37307 
37298 
37293 
37327 
37329 
37325 
37379 
37352 
37285 
37251 
37218 
37252 
37255 
37294 
37325 
37336 
37374 
37403 
37354 
37330 
37324 
37296 
37275 
37283 
37309 
37335 
37387 
37440 
37411 
37368 
37310 
37280 
37236 
37209 
37206 
37208 
37202 
37205 
37224 
37223 
37194 
37212 
37242 
37299 
37303 
37227 
37222 
37260 
37308 
37339 
37307 
37343 
37327 
37282 
37255 
37295 
37332 
37369 
37340 
37223 
37205 
37248 
37310 
37362 
37336 
37288 
37269 
37223 
37215 
37286 
37328 
37291 
37292 
37345 
37376 
37336 
37301 
37281 
37255 
37267 
37231 
37241 
37285 
37296 
37253 
37277 
37279 
37297 
37303 
37262 
37218 
37269 
37319 
37238 
37174 
37166 
37149 
37165 
37116 
37078 
37106 
37187 
37205 
37172 
37216 
37214 
37167 
37139 
37168 
37172 
37173 
37211 
37282 
37282 
37248 
37238 
37237 
37241 
37243 
37245 
37264 
37244 
37223 
37246 
37263 
37276 
37285 
37237 
37180 
37180 
37188 
37190 
37193 
37173 
37149 
37147 
37137 
37094 
37154 
37241 
37191 
37120 
37100 
37114 
37134 
37091 
37100 
37134 
37142 
37125 
37127 
37101 
37065 
37034 
37019 
37014 
37024 
37080 
37116 
37142 
37166 
37112 
37060 
37009 
37019 
37080 
37078 
37005 
36945 
36947 
36982 
36985 
37042 
37131 
37174 
37175 
37144 
37071 
37007 
36922 
36909 
37000 
37069 
37106 
37109 
37074 
37045 
37007 
37033 
37007 
37009 
37019 
36995 
37008 
37036 
37098 
37068 
37026 
37021 
37104 
37143 
37144 
37123 
37082 
37039 
37030 
37071 
37132 
37135 
37072 
37030 
37022 
37009 
36969 
36958 
36999 
37012 
37061 
37100 
37107 
37078 
37063 
37107 
37100 
37098 
37134 
37055 
37027 
37052 
37030 
37026 
36991 
37001 
37000 
37019 
37061 
37085 
37089 
37074 
37129 
37125 
37108 
37126 
37122 
37054 
37013 
37015 
36997 
37018 
37058 
37082 
37100 
37115 
37119 
37100 
37055 
37045 
37056 
37068 
37035 
36993 
36955 
37021 
37076 
37044 
36968 
36957 
36937 
36965 
37034 
37056 
37046 
37089 
37172 
37087 
36964 
36958 
36954 
36940 
36909 
36950 
36961 
36977 
36998 
37010 
36992 
37034 
37070 
37065 
37103 
37064 
37020 
37020 
37045 
37123 
37097 
37067 
37043 
37054 
37066 
37063 
37030 
36967 
36920 
36861 
36863 
36953 
37037 
37026 
37011 
36997 
36998 
37018 
37020 
37037 
37054 
37011 
36986 
36996 
36993 
37040 
37104 
37090 
37064 
37049 
37064 
37095 
37127 
37166 
37148 
37063 
37003 
37013 
37058 
37075 
37096 
37119 
37112 
37131 
37191 
37186 
37131 
37065 
37015 
37012 
36967 
36957 
36951 
36931 
36985 
36945 
36902 
36862 
36840 
36815 
36820 
36844 
36826 
36839 
36845 
36845 
36803 
36801 
36862 
36865 
36826 
36773 
36730 
36740 
36739 
36754 
36799 
36787 
36791 
36799 
36789 
36802 
36787 
36753 
36758 
36729 
36672 
36614 
36605 
36614 
36594 
36555 
36519 
36551 
36611 
36654 
36686 
36666 
36665 
36750 
36742 
36738 
36746 
36733 
36693 
36676 
36670 
36603 
36606 
36701 
36753 
36751 
36738 
36725 
36695 
36748 
36784 
36733 
36734 
36707 
36667 
36663 
36683 
36693 
36690 
36740 
36786 
36785 
36756 
36788 
36813 
36816 
36793 
36791 
36767 
36758 
36775 
36788 
36783 
36818 
36834 
36820 
36806 
36775 
36779 
36767 
36826 
36886 
36915 
36961 
36924 
36880 
36933 
36968 
36982 
36969 
36984 
36968 
36956 
36935 
36942 
36936 
36891 
36838 
36807 
36803 
36816 
36844 
36876 
36860 
36873 
36896 
36903 
36932 
36954 
36987 
36994 
36955 
36977 
36955 
36923 
36917 
36916 
36931 
36989 
36966 
36961 
36972 
36994 
36988 
36936 
36933 
36973 
36992 
36945 
36943 
36957 
36980 
37026 
37036 
37017 
37031 
37008 
36978 
36965 
36938 
36901 
36902 
36925 
36961 
36907 
36872 
36873 
36822 
36744 
36677 
36667 
36639 
36530 
36412 
36362 
36346 
36340 
36369 
36354 
36305 
36239 
36175 
36182 
36219 
36218 
36239 
36206 
36203 
36215 
36209 
36151 
36071 
36031 
35959 
35924 
35959 
35966 
35946 
35959 
35931 
35881 
35841 
35838 
35842 
35876 
35891 
35866 
35925 
35928 
35942 
35915 
35913 
35949 
35916 
35885 
35882 
35912 
35886 
35868 
35881 
35923 
35936 
35974 
36002 
36080 
36122 
36135 
36131 
36065 
36024 
36065 
36190 
36265 
36262 
36281 
36296 
36271 
36211 
36146 
36181 
36251 
36298 
36308 
36329 
36352 
36324 
36300 
36303 
36336 
36392 
36419 
36403 
36466 
36474 
36456 
36517 
36546 
36488 
36489 
36576 
36613 
36636 
36617 
36590 
36559 
36572 
36629 
36695 
36780 
36856 
36849 
36820 
36823 
36825 
36786 
36795 
36869 
36901 
36885 
36817 
36807 
36878 
36930 
36912 
36942 
36934 
36952 
36945 
36996 
37076 
37109 
37076 
37095 
37131 
37145 
37150 
37178 
37218 
37283 
37255 
37262 
37310 
37306 
37247 
37197 
37148 
37147 
37162 
37188 
37180 
37212 
37242 
37252 
37269 
37275 
37239 
37205 
37190 
37119 
37066 
37011 
36974 
36932 
36889 
36894 
36890 
36851 
36780 
36660 
36525 
36471 
36511 
36487 
36422 
36372 
36293 
36227 
36189 
36133 
36112 
36105 
36063 
36001 
35946 
35890 
35832 
35816 
35831 
35800 
35727 
35694 
35701 
35705 
35679 
35723 
35674 
35630 
35597 
35597 
35640 
35602 
35574 
35637 
35672 
35657 
35630 
35644 
35683 
35744 
35782 
35790 
35890 
35923 
35893 
35878 
35869 
35910 
35966 
35953 
35911 
35885 
35867 
35914 
36000 
36005 
36041 
36131 
36165 
36156 
36132 
36136 
36221 
36289 
36297 
36327 
36407 
36490 
36468 
36427 
36430 
36464 
36533 
36544 
36548 
36524 
36547 
36557 
36563 
36591 
36615 
36682 
36740 
36748 
36729 
36822 
36846 
36832 
36801 
36758 
36744 
36837 
36946 
36953 
36923 
36878 
36858 
36851 
36856 
36926 
36954 
36952 
36998 
37073 
37057 
37049 
37068 
37063 
37107 
37167 
37193 
37225 
37222 
37236 
37238 
37238 
37211 
37208 
37223 
37231 
37225 
37236 
37280 
37326 
37351 
37401 
37396 
37369 
37418 
37469 
37414 
37378 
37346 
37288 
37256 
37214 
37161 
37060 
36975 
36887 
36776 
36632 
36505 
36442 
36396 
36306 
36181 
36073 
35975 
35827 
35690 
35571 
35492 
35397 
35264 
35120 
35036 
34971 
34883 
34749 
34708 
34754 
34763 
34691 
34584 
34499 
34504 
34497 
34479 
34426 
34384 
34351 
34334 
34326 
34283 
34287 
34258 
34242 
34211 
34260 
34287 
34277 
34273 
34343 
34412 
34465 
34457 
34398 
34389 
34449 
34485 
34487 
34477 
34477 
34506 
34502 
34504 
34586 
34677 
34736 
34785 
34870 
34967 
35054 
35124 
35166 
35217 
35245 
35326 
35433 
35443 
35431 
35464 
35527 
35588 
35633 
35687 
35704 
35798 
35880 
35963 
36018 
36034 
36077 
36159 
36254 
36340 
36389 
36440 
36552 
36583 
36572 
36624 
36702 
36741 
36816 
36913 
37008 
37064 
37076 
37120 
37194 
37264 
37258 
37321 
37353 
37332 
37343 
37488 
37588 
37642 
37675 
37655 
37700 
37814 
37844 
37850 
37882 
37930 
38010 
38077 
38100 
38086 
38155 
38192 
38199 
38225 
38304 
38357 
38455 
38502 
38512 
38533 
38484 
38485 
38595 
38652 
38628 
38555 
38463 
38409 
38356 
38330 
38215 
38082 
37918 
37744 
37590 
37424 
37228 
37055 
36929 
36798 
36647 
36510 
36354 
36220 
36146 
36013 
35836 
35677 
35544 
35442 
35370 
35298 
35158 
34999 
34894 
34768 
34695 
34618 
34542 
34541 
34492 
34352 
34309 
34306 
34317 
34279 
34248 
34299 
34292 
34267 
34256 
34252 
34278 
34325 
34345 
34304 
34313 
34320 
34316 
34296 
34274 
34350 
34372 
34317 
34350 
34495 
34552 
34572 
34613 
34577 
34542 
34585 
34611 
34680 
34784 
34852 
34895 
34902 
34869 
34830 
34884 
34976 
34990 
35081 
35191 
35259 
35329 
35392 
35472 
35502 
35513 
35531 
35609 
35719 
35831 
35853 
35929 
36021 
36095 
36129 
36196 
36267 
36297 
36354 
36375 
36409 
36490 
36538 
36594 
36684 
36751 
36804 
36884 
36955 
36969 
37013 
37059 
37129 
37238 
37351 
37479 
37526 
37528 
37567 
37652 
37732 
37741 
37773 
37783 
37802 
37866 
37939 
37953 
38058 
38210 
38286 
38315 
38328 
38374 
38458 
38523 
38540 
38585 
38647 
38674 
38710 
38770 
38822 
38893 
38903 
38888 
38868 
38889 
38927 
38920 
38904 
38878 
38868 
38802 
38798 
38761 
38693 
38548 
38453 
38355 
38237 
38099 
37935 
37809 
37674 
37538 
37435 
37384 
37318 
37240 
37158 
37064 
36955 
36796 
36645 
36514 
36419 
36355 
36301 
36260 
36259 
36202 
36143 
36085 
36019 
35981 
35943 
35948 
35955 
35923 
35905 
35978 
35959 
35919 
35947 
36010 
36043 
36085 
36109 
36159 
36162 
36158 
36208 
36222 
36239 
36309 
36418 
36473 
36505 
36543 
36591 
36719 
36792 
36800 
36822 
36877 
36934 
36983 
37014 
37045 
37109 
37262 
37382 
37424 
37458 
37496 
37505 
37548 
37646 
37674 
37705 
37829 
37901 
37943 
38011 
38056 
38140 
38213 
38291 
38365 
38414 
38470 
38558 
38664 
38708 
38751 
38786 
38890 
38978 
39005 
39053 
39045 
39040 
39131 
39244 
39283 
39350 
39458 
39571 
39612 
39654 
39724 
39816 
39860 
39864 
39913 
40014 
40102 
40177 
40249 
40295 
40385 
40459 
40499 
40485 
40468 
40523 
40566 
40626 
40679 
40748 
40831 
40891 
40956 
40990 
41034 
41129 
41209 
41229 
41223 
41240 
41323 
41355 
41351 
41382 
41476 
41516 
41462 
41487 
41533 
41511 
41508 
41508 
41407 
41276 
41216 
41140 
40972 
40792 
40632 
40465 
40338 
40203 
40015 
39836 
39635 
39476 
39332 
39144 
38990 
38881 
38783 
38641 
38531 
38438 
38319 
38181 
38072 
37950 
37859 
37790 
37727 
37644 
37587 
37551 
37480 
37455 
37497 
37455 
37360 
37396 
37406 
37423 
37438 
37451 
37457 
37465 
37464 
37488 
37509 
37602 
37652 
37703 
37744 
37789 
37926 
38039 
38175 
38201 
38177 
38224 
38321 
38418 
38460 
38508 
38573 
38660 
38765 
38823 
38849 
38924 
39017 
39019 
39006 
39038 
39108 
39184 
39288 
39391 
39482 
39538 
39593 
39681 
39733 
39792 
39855 
39957 
40061 
40120 
40119 
40148 
40227 
40291 
40330 
40398 
40516 
40589 
40693 
40738 
40773 
40868 
40916 
40971 
41006 
41113 
41195 
41289 
41363 
41431 
41490 
41548 
41606 
41638 
41674 
41743 
41775 
41821 
41911 
41909 
41952 
42074 
42193 
42202 
42194 
42231 
42255 
42335 
42399 
42470 
42471 
42431 
42473 
42506 
42553 
42630 
42683 
42719 
42770 
42851 
42861 
42895 
42969 
43006 
43028 
43060 
43084 
43108 
43122 
43110 
43064 
43011 
42978 
42925 
42831 
42668 
42514 
42357 
42245 
42089 
41887 
41694 
41487 
41284 
41108 
40925 
40727 
40567 
40417 
40249 
40037 
39930 
39809 
39614 
39437 
39292 
39195 
39109 
39035 
38938 
38840 
38744 
38664 
38574 
38527 
38457 
38435 
38400 
38340 
38333 
38352 
38377 
38395 
38412 
38485 
38537 
38543 
38498 
38466 
38492 
38506 
38513 
38494 
38532 
38634 
38733 
38829 
38877 
38953 
39066 
39168 
39282 
39370 
39448 
39559 
39653 
39706 
39782 
39807 
39831 
39883 
39952 
40033 
40114 
40229 
40282 
40355 
40402 
40402 
40446 
40517 
40562 
40632 
40747 
40807 
40800 
40839 
40932 
40997 
41034 
41050 
41139 
41235 
41306 
41360 
41444 
41470 
41521 
41602 
41634 
41679 
41718 
41738 
41742 
41821 
41900 
41943 
41992 
42054 
42104 
42148 
42202 
42262 
42295 
42374 
42486 
42500 
42487 
42546 
42659 
42698 
42726 
42749 
42788 
42838 
42844 
42843 
42870 
42861 
42901 
42938 
42980 
43057 
43115 
43157 
43174 
43160 
43183 
43188 
43185 
43205 
43278 
43339 
43448 
43520 
43565 
43593 
43558 
43512 
43466 
43439 
43423 
43350 
43231 
43060 
42849 
42623 
42383 
42217 
42055 
41846 
41585 
41344 
41208 
41082 
40898 
40745 
40565 
40368 
40177 
39932 
39680 
39462 
39340 
39264 
39155 
39010 
38857 
38722 
38627 
38544 
38457 
38378 
38303 
38243 
38222 
38213 
38167 
38110 
38044 
38025 
38076 
38112 
38130 
38168 
38283 
38382 
38389 
38421 
38497 
38589 
38651 
38745 
38786 
38862 
39004 
39124 
39200 
39285 
39353 
39413 
39498 
39585 
39679 
39781 
39902 
40086 
40198 
40315 
40384 
40449 
40519 
40555 
40608 
40627 
40675 
40839 
40963 
41014 
41120 
41201 
41272 
41337 
41358 
41427 
41437 
41471 
41551 
41628 
41681 
41794 
41937 
41969 
42033 
42100 
42147 
42197 
42240 
42289 
42306 
42387 
42442 
42487 
42571 
42623 
42686 
42796 
42886 
42923 
42951 
43016 
43085 
43128 
43174 
43205 
43318 
43397 
43430 
43444 
43492 
43581 
43601 
43638 
43678 
43716 
43752 
43773 
43792 
43862 
43935 
43970 
44026 
44107 
44191 
44179 
44143 
44176 
44206 
44256 
44282 
44286 
44377 
44437 
44446 
44435 
44442 
44484 
44538 
44606 
44637 
44653 
44683 
44688 
44639 
44538 
44460 
44371 
44307 
44227 
44057 
43871 
43654 
43392 
43155 
42938 
42738 
42540 
42334 
42090 
41862 
41608 
41371 
41123 
40838 
40561 
40375 
40178 
40021 
39839 
39667 
39530 
39342 
39197 
39078 
38926 
38759 
38652 
38554 
38470 
38395 
38297 
38225 
38205 
38240 
38256 
38265 
38269 
38281 
38293 
38361 
38459 
38497 
38553 
38601 
38643 
38732 
38817 
38889 
38951 
39030 
39182 
39296 
39366 
39428 
39557 
39681 
39813 
39967 
40105 
40149 
40227 
40366 
40514 
40577 
40594 
40689 
40842 
40908 
40986 
41068 
41113 
41257 
41364 
41454 
41560 
41643 
41741 
41801 
41854 
41922 
41979 
41975 
41937 
41952 
42037 
42180 
42301 
42356 
42403 
42475 
42522 
42514 
42583 
42673 
42740 
42826 
42925 
42968 
43033 
43130 
43234 
43299 
43354 
43404 
43449 
43423 
43440 
43507 
43518 
43511 
43564 
43640 
43715 
43767 
43841 
43912 
43968 
44048 
44069 
44115 
44164 
44153 
44180 
44231 
44277 
44345 
44377 
44467 
44485 
44532 
44561 
44538 
44566 
44649 
44767 
44854 
44847 
44836 
44843 
44885 
44928 
44949 
44968 
45017 
45045 
45018 
44995 
44955 
44912 
44892 
44967 
44968 
44947 
44951 
44937 
44920 
44825 
44691 
44528 
44403 
44252 
44086 
43867 
43641 
43409 
43120 
42811 
42567 
42351 
42169 
41948 
41736 
41510 
41290 
41049 
40776 
40599 
40469 
40272 
40083 
39910 
39783 
39634 
39463 
39335 
39232 
39112 
38999 
38904 
38844 
38769 
38716 
38748 
38766 
38752 
38711 
38701 
38718 
38748 
38725 
38757 
38852 
38905 
39010 
39079 
39166 
39277 
39314 
39355 
39467 
39544 
39613 
39754 
39880 
39993 
40111 
40163 
40242 
40414 
40526 
40605 
40705 
40801 
40891 
40989 
41073 
41180 
41229 
41288 
41421 
41567 
41603 
41622 
41655 
41701 
41825 
41938 
42002 
42036 
42103 
42119 
42117 
42194 
42240 
42281 
42356 
42515 
42549 
42535 
42573 
42633 
42687 
42693 
42704 
42775 
42848 
42924 
42942 
42997 
43109 
43192 
43207 
43223 
43242 
43287 
43369 
43410 
43427 
43474 
43513 
43582 
43670 
43718 
43684 
43711 
43748 
43777 
43776 
43782 
43807 
43872 
43929 
43931 
43943 
43979 
44008 
44013 
44020 
44031 
44053 
44100 
44119 
44110 
44091 
44146 
44229 
44272 
44307 
44357 
44352 
44340 
44398 
44487 
44523 
44546 
44551 
44469 
44410 
44412 
44492 
44506 
44441 
44278 
44158 
44086 
43988 
43819 
43632 
43472 
43273 
43043 
42817 
42571 
42344 
42081 
41795 
41554 
41306 
41067 
40887 
40694 
40516 
40351 
40156 
39980 
39789 
39626 
39455 
39377 
39336 
39276 
39194 
39119 
39007 
38894 
38820 
38694 
38592 
38512 
38467 
38360 
38321 
38347 
38341 
38396 
38423 
38460 
38505 
38517 
38553 
38628 
38771 
38911 
39022 
39090 
39127 
39216 
39328 
39392 
39483 
39593 
39722 
39809 
39916 
40029 
40076 
40198 
40322 
40407 
40552 
40674 
40755 
40787 
40812 
40840 
40899 
40975 
41008 
41044 
41105 
41127 
41157 
41202 
41277 
41329 
41381 
41440 
41506 
41540 
41590 
41657 
41750 
41862 
41889 
41931 
41993 
41974 
42000 
42058 
42064 
42150 
42211 
42205 
42278 
42385 
42428 
42549 
42641 
42729 
42744 
42730 
42791 
42859 
42865 
42874 
42926 
42954 
42971 
43011 
43070 
43059 
43090 
43141 
43238 
43285 
43342 
43412 
43406 
43357 
43336 
43382 
43407 
43488 
43531 
43570 
43590 
43625 
43693 
43786 
43853 
43809 
43745 
43772 
43802 
43806 
43776 
43796 
43814 
43844 
43849 
43812 
43789 
43757 
43725 
43673 
43604 
43539 
43450 
43365 
43193 
42907 
42619 
42371 
42070 
41778 
41517 
41292 
41036 
40774 
40555 
40384 
40181 
39988 
39774 
39591 
39349 
39090 
38883 
38717 
38590 
38423 
38311 
38187 
38048 
37924 
37818 
37677 
37600 
37560 
37498 
37403 
37316 
37283 
37278 
37267 
37297 
37326 
37351 
37417 
37453 
37494 
37549 
37622 
37742 
37795 
37832 
37899 
38016 
38173 
38308 
38417 
38551 
38698 
38822 
38877 
38954 
39057 
39206 
39281 
39389 
39562 
39768 
39921 
39972 
40030 
40165 
40221 
40290 
40461 
40635 
40713 
40801 
40915 
40970 
41027 
41112 
41205 
41290 
41324 
41416 
41531 
41588 
41630 
41690 
41725 
41785 
41814 
41869 
41905 
41957 
42030 
42101 
42167 
42253 
42286 
42304 
42368 
42444 
42532 
42595 
42595 
42602 
42646 
42693 
42785 
42866 
42856 
42891 
43019 
43090 
43150 
43178 
43214 
43231 
43245 
43212 
43280 
43360 
43374 
43440 
43520 
43591 
43628 
43702 
43733 
43757 
43768 
43808 
43861 
43835 
43812 
43862 
43897 
43852 
43859 
43902 
43929 
43941 
43942 
43952 
43979 
44006 
44014 
44038 
44103 
44100 
44135 
44179 
44142 
44142 
44110 
44103 
44100 
44021 
44001 
43955 
43847 
43708 
43555 
43411 
43211 
42970 
42743 
42489 
42227 
41993 
41731 
41449 
41162 
40867 
40572 
40309 
40039 
39844 
39652 
39375 
39094 
38879 
38687 
38429 
38229 
38074 
37949 
37778 
37651 
37545 
37436 
37316 
37205 
37147 
37073 
36991 
37019 
37044 
37046 
37029 
36955 
36964 
36997 
37035 
37091 
37145 
37187 
37196 
37291 
37393 
37499 
37619 
37769 
37891 
38012 
38124 
38288 
38460 
38581 
38707 
38918 
39076 
39178 
39334 
39490 
39622 
39737 
39815 
39912 
40045 
40168 
40295 
40460 
40606 
40700 
40763 
40816 
40946 
41151 
41263 
41320 
41352 
41447 
41544 
41636 
41670 
41738 
41828 
41956 
42063 
42161 
42247 
42323 
42361 
42388 
42404 
42416 
42454 
42449 
42460 
42509 
42611 
42667 
42768 
42835 
42900 
42989 
43029 
43057 
43081 
43150 
43229 
43302 
43349 
43302 
43296 
43342 
43361 
43397 
43469 
43520 
43592 
43651 
43748 
43814 
43833 
43828 
43845 
43876 
43966 
44000 
44077 
44196 
44235 
44162 
44165 
44215 
44249 
44256 
44322 
44356 
44355 
44343 
44401 
44486 
44486 
44446 
44469 
44506 
44552 
44570 
44602 
44605 
44642 
44641 
44605 
44582 
44552 
44572 
44592 
44580 
44579 
44546 
44474 
44295 
44101 
43927 
43691 
43478 
43288 
43034 
42753 
42491 
42246 
41991 
41692 
41326 
41010 
40814 
40623 
40405 
40123 
39856 
39656 
39480 
39307 
39142 
38910 
38643 
38469 
38360 
38245 
38155 
38082 
37981 
37923 
37862 
37770 
37726 
37736 
37744 
37745 
37747 
37723 
37770 
37840 
37881 
37854 
37896 
37979 
38107 
38232 
38301 
38374 
38510 
38630 
38766 
38886 
38988 
39114 
39267 
39461 
39611 
39727 
39852 
39974 
40093 
40235 
40347 
40389 
40471 
40578 
40684 
40824 
40900 
41018 
41145 
41272 
41384 
41394 
41463 
41552 
41614 
41687 
41771 
41835 
41911 
41973 
42044 
42097 
42171 
42231 
42259 
42307 
42352 
42386 
42444 
42485 
42556 
42657 
42732 
42795 
42896 
42952 
42958 
42975 
43007 
43077 
43096 
43125 
43160 
43182 
43229 
43289 
43355 
43394 
43482 
43505 
43508 
43517 
43509 
43603 
43675 
43693 
43750 
43858 
43951 
43948 
43990 
44023 
44116 
44148 
44123 
44113 
44129 
44146 
44167 
44189 
44230 
44278 
44308 
44311 
44293 
44264 
44254 
44337 
44377 
44369 
44355 
44380 
44342 
44297 
44316 
44359 
44366 
44345 
44326 
44333 
44331 
44316 
44328 
44370 
44345 
44298 
44162 
44052 
44004 
43936 
43830 
43707 
43540 
43343 
43089 
42823 
42606 
42378 
42134 
41877 
41617 
41394 
41129 
40847 
40614 
40395 
40211 
40063 
39924 
39747 
39581 
39397 
39229 
39120 
38992 
38824 
38664 
38540 
38529 
38453 
38351 
38331 
38278 
38226 
38216 
38206 
38223 
38208 
38190 
38162 
38178 
38218 
38255 
38264 
38298 
38345 
38428 
38539 
38646 
38712 
38783 
38891 
38953 
39057 
39218 
39379 
39439 
39459 
39581 
39691 
39796 
39894 
40035 
40196 
40369 
40487 
40565 
40641 
40686 
40813 
40917 
40970 
41083 
41127 
41178 
41304 
41375 
41393 
41418 
41461 
41431 
41443 
41512 
41559 
41631 
41802 
41842 
41888 
41899 
41914 
41958 
42020 
42077 
42151 
42270 
42385 
42490 
42568 
42587 
42635 
42769 
42889 
42985 
43023 
43105 
43168 
43242 
43368 
43437 
43545 
43649 
43681 
43734 
43754 
43864 
44088 
44250 
44385 
44490 
44608 
44703 
44776 
44846 
44985 
45115 
45211 
45307 
45362 
45437 
45555 
45678 
45737 
45764 
45825 
45937 
46031 
46059 
46035 
46027 
46116 
46213 
46258 
46237 
46278 
46359 
46435 
46415 
46413 
46418 
46440 
46440 
46475 
46471 
46379 
46246 
46155 
45986 
45802 
45611 
45381 
45185 
45036 
44841 
44578 
44312 
44074 
43845 
43618 
43363 
43092 
42819 
42583 
42381 
42147 
41896 
41663 
41427 
41249 
41084 
40925 
40784 
40614 
40473 
40359 
40285 
40235 
40121 
39998 
39954 
39891 
39873 
39863 
39858 
39822 
39834 
39876 
39893 
39935 
39977 
40040 
40053 
40086 
40177 
40241 
40323 
40478 
40656 
40813 
40907 
40943 
41038 
41189 
41277 
41358 
41474 
41588 
41733 
41896 
42015 
42135 
42223 
42314 
42415 
42561 
42649 
42683 
42812 
42884 
42939 
43005 
43082 
43165 
43255 
43256 
43243 
43249 
43292 
43352 
43414 
43426 
43454 
43476 
43487 
43448 
43406 
43487 
43597 
43639 
43637 
43626 
43639 
43645 
43682 
43731 
43766 
43808 
43868 
43903 
43930 
43936 
44007 
44000 
44030 
44080 
44094 
44083 
44055 
44030 
44059 
44125 
44185 
44197 
44237 
44313 
44360 
44375 
44397 
44405 
44390 
44346 
44371 
44416 
44426 
44420 
44391 
44386 
44423 
44460 
44444 
44450 
44451 
44398 
44351 
44337 
44298 
44292 
44252 
44225 
44171 
44148 
44161 
44118 
44058 
44035 
44102 
44123 
44070 
44053 
44048 
44015 
44025 
44012 
43965 
43939 
43867 
43765 
43657 
43535 
43409 
43253 
43028 
42801 
42549 
42260 
41983 
41712 
41416 
41107 
40828 
40567 
40244 
39917 
39644 
39338 
39057 
38777 
38485 
38148 
37854 
37534 
37310 
37135 
36958 
36750 
36544 
36343 
36137 
35959 
35860 
35774 
35695 
35553 
35439 
35339 
35259 
35200 
35191 
35160 
35125 
35118 
35089 
35048 
35056 
35109 
35190 
35231 
35228 
35254 
35298 
35381 
35491 
35545 
35638 
35741 
35838 
35941 
36050 
36130 
36291 
36429 
36539 
36625 
36756 
36870 
36966 
37105 
37239 
37332 
37432 
37593 
37719 
37859 
37995 
38101 
38258 
38370 
38449 
38515 
38557 
38626 
38703 
38803 
38901 
38963 
39048 
39094 
39149 
39168 
39190 
39256 
39385 
39427 
39401 
39407 
39432 
39476 
39578 
39717 
39847 
39916 
39966 
40011 
40102 
40215 
40270 
40283 
40336 
40362 
40366 
40339 
40335 
40350 
40383 
40436 
40523 
40586 
40602 
40642 
40678 
40704 
40739 
40794 
40846 
40845 
40870 
40895 
40874 
40899 
40985 
41050 
41078 
41118 
41153 
41125 
41072 
41040 
41026 
41003 
41049 
41094 
41120 
41102 
41096 
41089 
41104 
41121 
41136 
41154 
41232 
41226 
41174 
41143 
41148 
41195 
41182 
41159 
41132 
41136 
41113 
41083 
41079 
41048 
40936 
40822 
40650 
40487 
40296 
40132 
39894 
39673 
39468 
39167 
38864 
38613 
38314 
37958 
37643 
37387 
37139 
36869 
36592 
36300 
36046 
35773 
35514 
35318 
35110 
34923 
34693 
34468 
34292 
34137 
33977 
33814 
33675 
33550 
33435 
33347 
33248 
33216 
33190 
33104 
33062 
33083 
33097 
33092 
33126 
33151 
33206 
33274 
33359 
33365 
33435 
33522 
33634 
33723 
33801 
33917 
34060 
34218 
34313 
34375 
34448 
34594 
34735 
34874 
34988 
35167 
35369 
35497 
35585 
35715 
35867 
36005 
36122 
36228 
36308 
36344 
36421 
36501 
36575 
36644 
36723 
36787 
36779 
36824 
36968 
37042 
37115 
37158 
37206 
37223 
37239 
37315 
37433 
37472 
37481 
37526 
37547 
37611 
37712 
37801 
37886 
37927 
37948 
37959 
37985 
38075 
38138 
38254 
38304 
38327 
38369 
38365 
38396 
38496 
38546 
38553 
38555 
38568 
38663 
38729 
38743 
38738 
38767 
38860 
38900 
38962 
39014 
39010 
38954 
38956 
39027 
39038 
39140 
39224 
39197 
39229 
39326 
39346 
39363 
39386 
39380 
39366 
39359 
39406 
39450 
39447 
39398 
39391 
39376 
39309 
39263 
39233 
39205 
39200 
39120 
39050 
38937 
38781 
38657 
38522 
38322 
38084 
37858 
37583 
37268 
36981 
36757 
36527 
36243 
36004 
35712 
35506 
35296 
35077 
34867 
34603 
34378 
34173 
34013 
33821 
33610 
33440 
33353 
33243 
33086 
32934 
32836 
