51591.15661277254,51611.67551418251,51653.562683291755,51714.65000088811,51750.01046061641,51820.664324839636,51949.924463024676,52014.8786324118,52094.897877561794,52151.89482592283,52105.89493583381,52106.67724688975,52167.71986099719,52161.79664871653,52181.68970128176,52290.028606656626,52444.81443700963,52516.76470241126,52509.76860639675,52546.55957777019,52537.79769394371,52545.330231825144,52590.771328302784,52608.20568897793,52637.10649455863,52667.01312863984,52668.75656470735,52696.15980340956,52734.0460102613,52761.09162105223,52793.12167085668,52825.12936891668,52847.74933430545,52894.79975638387,52943.97359418555,52959.061021692876,52986.68777783964,52971.91327475468,52974.3049114114,52998.981237290056,53068.204589868146,53191.921495428265,53227.97485923468,53204.930210701255,53173.257788808085,53150.816637374955,53116.79728231398,53078.30757836194,53122.005238772064,53210.42873983726,53230.6123650804,53206.49483281313,53191.87679193936,53230.74647554714,53249.20901646722,53242.21292045271,53212.10512067141,53208.73000725866,53189.46280353818,53160.80786714648,53168.56392247247,53165.83700964892,53166.7981346605,53169.12271608385,53135.12571276733,53120.46296840465,53154.66113742127,53172.92251264126,53190.178059360755,53187.49585002612,53206.71835025768,53224.04095221054,53235.619155838394,53248.5161123891,53234.1662924488,53242.63760359736,53232.62402208138,53215.279068384065,53192.65910299529,53181.930265656745,53164.07122183695,53160.80786714648,53128.62135513084,53100.212287928145,53017.82375786588,52882.70746263355,52797.636723236654,52762.58918793073,52632.65849741203,52465.221579697325,52258.289129530094,52028.24497559607,51741.1144663232,51434.56029111866,51148.86029349093,50854.82309518136,50568.787821386795,50263.910027016405,49942.06725860444,49614.07776046727,49319.302954590676,49055.30650082904,48790.52773601148,48565.468021090994,48381.736681668364,48127.217367555786,47876.94488488971,47693.4594146561,47492.49488025843,47286.09887195812,47096.06434059911,46937.16578926633,46833.543101971525,46704.79705390895,46542.724554863526,46414.00085854541,46333.7357442064,46254.275292667786,46230.090705167146,46165.18123926893,46088.090072642575,46084.22322085181,46098.95302044786,46068.085261355074,46078.41176729343,46047.78987738966,45976.55486781059,45952.750259965695,45955.07484138905,45983.103928936,45979.594705056516,45988.535402838635,45990.010617972686,46008.83078680406,46083.15033711796,46161.0461665447,46209.86237643509,46264.333577672674,46262.165458460506,46295.246040254366,46378.215715672464,46412.547995155815,46429.02123081937,46516.282441172894,46613.244308620015,46749.25467363056,46855.67132898228,46890.94238173275,46951.962644095736,47061.39678494892,47174.49661189278,47281.18148817796,47392.56023079875,47470.903095114605,47577.789137099884,47717.28637424545,47807.94504975618,47893.03814089753,48010.831834177,48107.41372196838,48167.38345234197,48270.33558730312,48395.505356252834,48467.05329025428,48519.02109611286,48596.24637320595,48702.01482796846,48794.72986396908,48863.30501595796,48950.34270886692,48979.44468014773,48985.479651150665,48972.5603428555,48989.23474421916,49010.40184621833,49033.446494751755,49106.67080958734,49137.2479960022,49130.274251732146,49179.87277267847,49287.74229141978,49377.64100761903,49398.07050205118,49427.12776984308,49450.12771488759,49484.66116007104,49544.541483466804,49596.084606180746,49629.6122228637,49675.16507806362,49716.538157050396,49726.12705542172,49734.93364273711,49787.46024220708,49903.24227848557,50001.120567455364,50039.87849234087,50084.35846380693,50184.78485164462,50278.19279172335,50385.36940638655,50394.19834544639,50372.830077747116,50471.78125045076,50598.06860662325,50696.148061293134,50771.33932964079,50889.87063048728,50971.253332049055,50993.00157940407,50986.96660840113,51087.169478794276,51209.21000352025,51276.30994037509,51330.49056893475,51409.36987511753,51494.462966258885,51626.80764517876,51696.634494857135,51760.7169462105,51761.789829944355,51764.941425912555,51816.88688002669,51901.86821244576,51997.95836185913,52009.46951025361,51989.01766407701,52012.285830054985,52067.852266770875,52136.76269492658,52197.00064623364,52304.289019619115,52410.616267993006,52484.71230086235,52544.65967949149,52552.12516213956,52518.5975454566,52506.34878949509,52496.178745767924,52576.510915340295,52604.85292730963,52588.334988157156,52620.36503796161,52644.59432895116,52673.15985836505,52680.93826543549,52658.05007911326,52677.09376538918,52726.58052761323,52766.97012984397,52790.707682455504,52769.808801389794,52757.023603561356,52810.33251408726,52795.13332785766,52771.7534031574,52799.49191802644,52857.4276396546,52867.03888977038,52841.2226249245,52838.16043593412,52837.98162197848,52836.864034755716,52812.14300538815,52809.48314779796,52789.0089498769,52792.5628772453,52767.573626944264,52769.98761534544,52771.708699668496,52722.49015837791,52743.47844642144,52788.338397543244,52817.753293246424,52825.0176101944,52787.9584178875,52787.46667950949,52752.64266164812,52701.97125696794,52693.07526267473,52707.62624831513,52698.68555053301,52675.305625832756,52653.91500638903,52656.30664304575,52620.633258895075,52599.53321212927,52586.34568290063,52617.10168327113,52625.68475314197,52661.91693090402,52700.317227878244,52652.05981159923,52573.78400251675,52531.82977817414,52447.00490796625,52349.104267252005,52238.86546359843,52083.654950100776,51855.35423223427,51574.68337710898,51355.99390935826,51142.0206596876,50875.31964484688,50630.74685701691,50404.61425836256,50167.05991829156,49907.95849656564,49687.14561309166,49423.57384247468,49064.73893698918,48772.9145613807,48553.42043082958,48360.99426281384,48189.221106674806,48014.296354567574,47758.61474974332,47485.18585982155,47253.062993653184,47050.824409821565,46907.706190074234,46815.61700291836,46675.739786117054,46529.76054307944,46432.37399248767,46338.228444841916,46264.80296430623,46236.796228503736,46181.40860574348,46092.850994211556,46018.44203691984,45980.511126579186,46007.5120338812,45998.63839133244,45983.66272254738,46007.847310048026,46058.85399089503,46072.220334079306,46089.94526743237,46103.02103793872,46099.04242742568,46187.86825989107,46280.11390925812,46366.07871843323,46389.41393964457,46398.354637426695,46409.44110267652,46382.26138141887,46403.36142818468,46444.10865832671,46501.7761590214,46540.64584262918,46643.53092235696,46747.84651372988,46798.428511432234,46864.18734361975,46978.69533046429,47089.89525912944,47167.880495534,47277.515802087284,47343.49815171935,47405.16661467154,47510.93506943406,47615.56358522935,47685.63630409674,47723.83543537086,47742.700307691135,47772.204610372144,47855.397803234795,48004.55099398506,48120.645954685926,48191.389225886975,48220.24532797877,48281.19853510839,48366.40338497203,48457.196170949486,48495.32824699023,48521.25627055839,48646.828370908304,48684.62517078223,48650.42700176561,48628.54464394387,48669.44833629708,48717.83986304282,48754.96611058308,48715.135301963724,48713.70479031859,48814.89113746776,48875.84434459738,48929.8014557125,48929.37677256785,48964.69252880723,48990.240572719646,49001.52820366958,48990.50879365311,49065.90122770086,49178.44226103333,49217.55781383012,49247.95618628934,49330.32236460714,49355.69159456392,49371.382519171544,49428.80415067723,49486.13637520509,49567.697890722506,49670.96295010602,49769.91412280966,49885.24912419905,50016.6550298518,50080.31279806051,50051.456695968714,50068.6675391993,50090.460490043224,50146.943348281784,50171.93259858282,50200.52047974116,50272.82837305408,50323.36566726753,50362.61533053104,50418.74056085832,50515.83653877217,50627.662316282076,50785.778556558915,50902.99110448255,50981.75865194305,51003.082216153416,51068.52812391855,51124.18396761227,51165.35588089894,51250.31486157356,51329.79766485663,51338.134865538465,51367.013319374724,51430.89460502799,51485.38815801003,51531.365696354595,51589.43552844948,51618.09046484119,51674.46156435747,51708.860899074185,51740.689783178546,51748.66935594909,51837.40578143666,51917.08975041983,51954.57362587138,51942.21311118759,51942.90601526571,51970.28690222346,52005.96028637413,52058.419830610736,52085.01840651255,52127.196148299714,52179.67804428078,52220.80525407854,52256.16571380684,52231.04235303907,52199.32522765699,52235.93738507479,52301.38329283992,52348.970156785275,52364.325805226064,52416.85240469604,52475.45867865785,52498.30216149118,52496.80459461267,52509.38862674101,52488.02035904174,52440.679364285395,52449.061268456135,52449.79887602316,52445.440285854376,52445.88732074348,52414.70663722833,52407.531727258174,52439.02533519571,52419.914593686415,52408.33639005857,52383.86122988001,52373.22179951928,52375.79225013164,52365.48809593774,52267.67686220132,52094.45084267269,51958.99927127353,51841.49615067198,51690.823041298754,51491.22196331286,51295.688902817834,51081.49213570263,50812.19831850509,50559.37773697111,50339.23540583079,50091.39926331035,49807.93444012814,49538.685326419516,49326.96960293884,49157.43162124534,48905.34864727839,48660.08295537031,48451.63058658011,48241.45713346686,48063.738413302715,47866.48426848463,47651.01345193547,47471.05955732579,47365.64873047456,47279.95214223291,47143.517094077724,46955.49421971968,46822.25547102159,46773.126336708825,46736.02244091302,46725.69593497467,46690.96132409112,46662.261684210505,46641.1616374447,46596.122872367254,46567.46793597555,46568.47376447604,46539.52825540641,46565.009244085464,46579.895505892695,46639.23938742154,46680.14307977475,46674.778661105476,46715.39178078077,46784.83865080341,46830.48091298115,46854.62079699288,46878.000721693126,46909.874309286395,46949.05691731655,47035.26759568067,47122.685268245375,47184.890173064494,47254.02411866476,47362.877114162104,47501.949668163026,47580.06901503432,47602.957201356556,47653.53919905892,47680.49540287202,47697.52743214696,47793.237601904584,47982.60158092995,48145.76931545369,48230.92946182841,48260.90315114298,48357.64150114555,48525.83837817173,48698.505604088976,48826.581099817886,48950.96855771167,49029.64669819435,49082.732091275706,49173.97191214227,49265.09997428655,49355.53513235273,49417.42711274947,49443.77981946228,49482.671854814515,49503.05664575776,49533.007983327865,49549.794143413805,49611.08262671025,49667.789002393365,49723.109569920256,49739.29223290589,49743.784933541414,49748.9928899995,49771.47874492154,49826.57579500387,49891.35115043535,49896.08972025987,49937.6863166912,50068.84635315494,50118.10959793444,50123.742237537175,50164.98120605722,50231.74586674522,50323.81270215663,50352.847618204076,50354.38988857149,50389.16920294395,50398.37812165954,50413.733770100334,50448.51308447279,50458.14668633303,50483.56061977871,50523.279669675794,50562.66344340604,50640.55927283279,50745.90304445065,50798.85432706527,50852.6549759692,50890.47412758758,50950.26504400552,51014.459254081165,51052.144295232814,51069.3551384634,51128.58726126996,51226.8902333844,51287.28464690264,51370.16491534292,51386.41463356193,51371.68483396588,51374.97054040081,51433.12977947352,51527.09651316363,51619.72214218642,51655.529636803825,51691.71711107697,51700.32253269226,51704.61406762768,51689.41488139807,51756.559521741816,51859.936339847605,51929.89729999272,51944.47063737758,51993.91269611272,52071.16032495026,52101.491642176115,52186.7188437842,52274.96353089375,52304.17726089684,52311.06159818907,52379.65910192241,52392.19843056184,52374.65231116442,52373.110040797,52354.44633417682,52364.2587499927,52398.255753309226,52461.578245351106,52492.267190488245,52493.09420503309,52505.566478439156,52490.97078930984,52470.585998366594,52526.957097882885,52582.74705204333,52598.817956306695,52572.599360060616,52549.42060106047,52594.63818009355,52568.330176869655,52520.2962780352,52505.18649878341,52559.188313387436,52614.64299138105,52604.7188168429,52566.586740802144,52553.10863889559,52586.94918000093,52629.3727909771,52626.73528513137,52560.149438399014,52502.23606851531,52488.065062530644,52455.27505341471,52433.01271593723,52430.5763757916,52406.078863868584,52355.36275569949,52323.15389193939,52257.238597540694,52158.667404492786,52016.398551034756,51876.588389466815,51697.37210242416,51492.51836449127,51296.20299294031,51063.29781571601,50795.88154505272,50509.086311946674,50226.96259343179,49960.82037220244,49698.276781830406,49475.85457275565,49233.04757273765,48969.49815386512,48711.46961587306,48460.794801806784,48212.17634823041,47982.53452569658,47802.625334575816,47602.75603565646,47393.722521510426,47229.30308929719,47015.82157800455,46887.65667529782,46786.067996748454,46667.648454624235,46517.51178711794,46381.0990907072,46288.47346168441,46212.36577181408,46148.55154139418,46092.60512502255,46053.2213512923,45975.16905965436,45934.60064346798,45927.38103000892,45892.24408772518,45873.15569796034,45895.082759271,45935.31589929055,45978.20889690029,45995.57620234206,46011.98238277226,45988.58010632755,45948.23520758572,45983.372149869465,46010.2612984492,46041.4196302199,46090.12408138801,46138.71677383385,46199.20059432991,46196.585440228635,46234.65046103603,46343.79402921129,46398.71226533798,46446.4108880056,46505.48654860098,46560.15891553866,46601.93432592563,46719.48215001609,46839.332203785445,46918.680896601785,46963.987882612695,46972.32508329453,47031.26663342317,47175.05540550416,47301.27570644328,47386.54761154028,47472.06538582628,47568.84843931776,47658.70245202809,47744.73431643657,47892.14407111932,48006.13796784139,48090.69461711581,48144.897597419935,48246.86625562504,48309.36173312208,48364.32467273768,48470.517810644844,48527.157131094595,48589.85377429173,48642.49213248398,48678.03140616792,48694.75051102049,48740.95156680961,48788.60548598832,48872.87156258483,48931.857816202384,48948.06283093248,49011.09475029645,49010.42419796279,49041.694288455765,49071.15388764786,49104.457986886264,49054.61359675093,49111.945821278794,49172.004958630205,49227.437284879365,49353.2999579072,49476.88275300059,49542.887454377116,49657.70836564402,49755.02786100243,49764.10266925129,49745.28250041992,49752.5468173679,49761.10753549427,49812.091864596834,49861.46686809861,49889.004217267546,49949.75625869707,50048.12628604488,50143.76940056913,50221.59817476251,50246.69918378582,50317.174234053404,50377.27807489372,50478.79969820973,50565.502114951865,50586.78097567332,50596.481632766925,50702.451253229534,50834.9523943606,50847.53642648893,50863.45086854111,50944.542997424964,51036.81099853647,51075.09953678841,51133.97403168369,51196.51421266964,51256.64040525442,51269.31384436058,51301.58976335404,51380.290255581174,51448.21720698085,51453.08988727211,51498.776852938754,51511.56205076719,51549.895292508045,51643.90672968706,51680.51888710486,51709.71026536349,51794.937466971576,51850.101572287276,51831.97430753402,51857.87997935772,51878.42123251215,51984.927294841684,52053.61420555285,52060.94557773419,52091.50041240459,52152.49832302312,52116.06497956097,52123.9551453537,52160.544951027034,52267.34158603449,52293.53783053611,52255.33869926199,52263.65354819936,52302.76910099615,52334.88855777843,52372.4618402078,52457.28671041569,52531.852129918596,52516.71999892235,52477.11270774755,52475.30221644667,52534.556690997684,52607.17750873298,52634.8713201131,52591.955970758914,52549.465304549376,52559.27772036526,52556.863731964084,52569.9618542149,52618.107511771625,52628.098741543145,52583.574066588175,52520.095112335104,52495.217620756346,52459.2313121833,52407.196451091346,52344.29864219411,52301.33858935101,52184.90835248332,52013.69398995567,51842.14435126119,51642.31975583074,51420.501043856275,51158.18097092879,50885.28852287395,50631.48446458393,50318.381228253995,50028.92613755776,49773.26688447796,49512.37732319562,49294.15724207846,49039.81674192152,48836.57232958941,48585.27166667839,48277.95753216238,48018.54318601408,47790.801261758956,47582.41594820213,47398.52814656832,47246.58098776114,47060.83799133754,46908.35439066344,46764.72208079363,46684.32285598789,46595.206450844584,46505.28538290088,46387.33522741023,46259.796173548246,46191.86922214857,46175.70891090738,46111.60410780956,46048.57218844559,46000.51593786669,45983.506260336195,45999.174833199366,45997.05141747611,46032.076601037574,45986.7025597933,45960.52866703614,45961.95917868128,46002.88522277895,46057.624644949996,46120.05306721367,46164.60009391309,46182.99557959981,46198.59709722961,46195.37844602805,46285.25481048284,46376.85225926069,46432.3069372543,46518.316449918326,46605.10827363828,46690.491937457555,46732.91554843373,46755.55786556696,46789.33135143892,46894.89864050134,46998.29781035159,47070.40453796441,47213.92508911194,47386.61466677364,47508.83400545526,47560.243017702465,47664.64801605321,47813.532985870006,47964.78724059907,48117.89669011792,48184.191964172365,48195.94898175586,48228.11314202704,48358.02148080128,48494.32241848975,48512.78495940983,48523.69261070402,48638.69233592658,48727.093485247315,48729.37336318176,48742.09150577683,48868.5353241605,48964.82663927396,48987.60306687392,49027.567985960006,49069.47750681371,49077.79235575108,49047.75161120315,49033.33473602948,49002.01994204759,48977.0083400021,49022.382381246374,49052.668994983316,49124.01576328466,49140.73486813723,49119.61246962696,49149.563807197075,49222.542252843654,49277.907523859445,49232.689944826365,49225.827959278584,49260.65197713995,49330.36706809606,49399.72453114087,49418.20942380541,49464.34342436116,49486.672817072016,49490.11498571813,49526.727143135926,49584.729919997444,49631.13214148666,49669.35362450524,49695.616924240225,49759.81113431587,49870.83224902538,49919.73786589359,49945.8894069063,50000.82999477744,50054.16125704781,50141.75774356815,50299.561059422624,50384.989426730805,50431.905738342495,50492.27780011628,50576.23095229041,50691.52125019089,50749.70284100805,50794.20516421857,50871.11751688928,50970.202800059655,51033.90527175728,51128.18492986976,51197.43063419231,51257.78034422164,51277.6510450424,51303.042626743634,51363.61585421752,51410.643924551485,51500.877916917554,51566.323824682695,51668.739517776914,51746.545940225835,51836.35524944726,51947.21990194558,51969.86221907881,51939.508550108505,51947.555178112416,52006.83200440789,52072.43437438421,52059.895045744786,52073.28374067351,52102.944505565705,52127.57612795546,52133.94637512522,52180.57211405899,52272.57189423703,52275.768193694144,52288.19576361129,52322.460987861275,52340.2529764477,52352.54643589812,52389.04683459364,52419.020523908206,52414.259602339225,52422.39563732096,52416.09244538456,52392.51135498421,52388.28687528216,52369.17613377287,52351.87588356446,52361.28596798015,52343.65044160491,52394.1653840739,52375.30051175362,52317.364790125466,52196.26303866661,52102.07278753195,51986.201344275636,51849.36396472025,51632.8873196706,51377.18336310189,51159.097392451455,50962.379689500296,50761.124582424716,50482.867715700595,50252.600044322025,50046.04757381053,49796.62445743376,49522.36855296714,49304.21552708335,49101.887536273905,48826.089361439874,48592.98301851547,48368.68326290647,48141.410725284906,47913.17706265176,47737.5147029775,47576.20216324356,47466.36569099018,47348.840218644174,47237.97556614585,47122.61821301201,47018.30262163909,46913.160015721325,46823.86479662237,46714.45300751365,46686.60273392234,46687.228582767086,46628.51055008299,46594.379436299736,46531.034592513395,46476.40692906463,46461.09598411274,46470.26019933942,46488.43216758158,46503.60900206673,46458.16790558909,46451.37297527468,46459.88898991216,46456.29035905485,46459.57606548978,46512.32618240431,46565.925665608134,46571.8935813777,46617.89347146672,46664.31804470039,46682.35590247583,46690.96132409112,46719.14687384926,46803.01061904557,46935.69057413228,47090.63286669646,47160.61617858603,47202.07866455062,47294.0113894953,47365.62637873011,47378.2327626029,47439.67770811054,47564.75807008244,47772.96456968362,47882.62222798136,47934.746496051135,48062.86669526895,48170.49034482126,48271.855505926076,48367.52097219479,48418.99703967536,48450.93768250199,48477.55861014827,48548.92773019406,48632.90323411265,48730.28978470442,48807.76093098652,48851.05625999645,48898.57606870843,48950.49917107811,49022.20356729074,49089.52702159012,49096.94780074928,49128.374353453444,49149.94378685281,49138.946728580806,49174.933037153845,49232.77935180418,49219.27889815318,49209.466482337295,49207.387770102956,49201.2633921222,49270.710262144836,49334.748010009294,49369.773193570756,49398.159909029,49429.67586871098,49457.570845791204,49471.071299442214,49528.962317581456,49539.84761713119,49569.48603027893,49613.20604243351,49641.05631602482,49737.16881718264,49837.30463234242,49847.36291734731,49885.0256067545,49985.60845680338,50072.17676307879,50145.758705825654,50180.00157833118,50148.32915643801,50167.68576713631,50195.625447705446,50213.573898503055,50268.7156520743,50334.183911583896,50347.930234423904,50402.53554612822,50483.426509311976,50569.45837372045,50604.61766774865,50573.86166737815,50594.76054844386,50653.70209857251,50755.96132945554,50868.4576592991,50957.79758188696,51042.01895499456,51135.80687472902,51156.1246104389,51202.28096273911,51297.05235922961,51342.0687725626,51345.37683074198,51373.584732244584,51410.5321658292,51463.416393210464,51509.550393766214,51570.41419391802,51678.261360914876,51724.35065798172,51729.1115795507,51753.31851879579,51807.230926421995,51855.42128746764,51900.616514756264,51960.74270734104,51996.50549846954,52032.760027976045,52068.54517084899,52134.92985188125,52186.27180889509,52203.21443119222,52240.51949268812,52278.830382684515,52280.84203968549,52280.506763518664,52298.902249205385,52320.13640643792,52336.855511290494,52294.990693925705,52280.61852224094,52253.66231842784,52312.58151681203,52336.654345590396,52328.98769724223,52339.47066539177,52324.07031346206,52362.22474124727,52377.78155538817,52346.377354428456,52323.712685550774,52310.1451766664,52251.87417887142,52160.67906149376,52079.184601209716,51981.865105851306,51916.26273587498,51809.55550784535,51622.44905500997,51385.78878471718,51144.769924255605,50910.27777317498,50701.065445073305,50507.23111715688,50274.63886435496,50041.24194875264,49786.029730561946,49549.9953091139,49283.718977417826,48964.021976473574,48715.93996476412,48461.21948495144,48178.35815886953,47961.74740335315,47753.69736596315,47572.31295970833,47425.305536425774,47312.36217169311,47176.217696215834,46986.92077242384,46875.38556759186,46744.56080729495,46646.57075960288,46628.13057042725,46526.89951978916,46444.17571356007,46402.84733806221,46354.03112817182,46307.24892702686,46271.195563220455,46273.54249638826,46265.451164895436,46188.09177733562,46160.42031769995,46147.232788471316,46127.451494628374,46124.94809924938,46096.762549491235,46104.31743911713,46105.703247273355,46156.531114164725,46224.77098998678,46233.644632535535,46274.70478709994,46303.15855779154,46289.76986286281,46292.4744239419,46294.86606059862,46324.392715024085,46353.42763107153,46394.66659959157,46458.05614686682,46538.522426905925,46585.17051758415,46650.19174220464,46747.0865544184,46827.48577922413,46921.4748646587,47080.4628229693,47186.87947832102,47263.14363040253,47336.72557314939,47431.83224580673,47504.54247051984,47565.6744916051,47631.58978600381,47758.25712183203,47898.402559566806,47992.10107232345,48032.40126757637,48121.249451786214,48200.73225506929,48264.859409911565,48357.082707534166,48442.95810973145,48481.33605496121,48531.04633462982,48607.73516985597,48684.15578414867,48708.96622049406,48710.57554609484,48706.93221174863,48686.03333068292,48646.64955695267,48671.57175202033,48700.51726108995,48753.20032277112,48823.34009687187,48850.09513498487,48870.65873988375,48913.64114447131,48935.21057787068,48966.88299976385,49008.211375261715,49079.26757088513,49142.59006292702,49170.64150221843,49175.51418250969,49197.17302288688,49245.676308354894,49298.1358525915,49369.996711015316,49404.97719108787,49448.04900265324,49552.163428326065,49588.64147527712,49603.974771973466,49692.37592129421,49817.277469310466,49886.81374631092,49912.138272778786,50021.527710143055,50081.184516094276,50161.919017066844,50263.485343871755,50278.28219870117,50284.741852848754,50332.708696449845,50407.11765374156,50455.0621455982,50552.091068278685,50636.71477278647,50656.384307907145,50714.5211952354,50770.44525986258,50841.25558629699,50905.36038939481,50943.62657590229,50938.530378166484,50931.2213577296,50924.58288962638,50966.224189546614,50966.47005873562,51010.52534705703,51055.02767026755,51148.01092720163,51263.03300416863,51353.311700023616,51392.91899119842,51424.211433435856,51458.47665768584,51523.02849567276,51579.757223100336,51618.9845346194,51692.83469829973,51722.361352725195,51741.315632023296,51774.19504811705,51833.985964535,51914.22872712955,51964.184875987165,51984.48025995258,52005.89323114076,52043.86884497033,52104.73264512213,52136.583880970946,52137.0085641156,52143.11059035189,52175.431212834264,52212.17748071879,52236.09384728597,52307.150042909394,52385.89523862544,52365.42104070438,52330.68642982083,52346.06443000608,52431.69396301436,52437.326602617104,52453.48691385829,52456.03501272619,52463.14286746298,52499.79972836968,52533.32734505265,52560.9541011994,52549.57706327165,52535.38370554253,52531.53920549622,52552.3039760952,52545.21847310287,52513.43429248742,52562.8539994781,52564.44097333443,52534.33317355313,52442.42280035291,52347.8078660736,52294.16367938086,52202.54387885855,52101.15636600928,51964.609559131815,51796.77031001691,51632.55204350377,51369.807287431635,51097.45128124372,50841.367345019265,50529.67226859001,50326.696077191365,50195.17841281634,50000.96410524417,49716.3369913503,49438.59421474865,49144.244092016714,48854.6325391093,48584.31054166681,48337.8602073026,48151.64782424543,48020.48778778169,47865.21021905068,47652.935701958624,47470.21019103649,47335.67504115999,47168.23812344529,46999.92948769683,46880.4147100943,46783.65400834728,46723.81838844042,46608.17046262866,46529.38056342371,46497.01523745242,46464.35933880322,46365.139945166105,46282.438490681474,46239.97017621639,46250.38608913256,46260.24320843735,46315.563775964234,46332.46169477245,46263.26069393882,46258.25390318083,46323.65510745706,46294.35197047615,46278.14695574605,46317.038991098285,46349.44902055848,46350.43249731451,46351.12540139263,46420.46051269299,46444.17571356007,46406.42361717506,46463.24175158045,46570.038386587905,46654.6620910957,46754.6861475332,46801.17777600024,46823.50716871109,46813.35947672838,46847.49059051163,46892.93168698927,47009.65249653489,47162.314911164634,47269.22330489437,47381.02673065981,47550.65411933114,47712.14547302073,47783.87222097781,47845.78655311901,47949.565702625005,48036.91631995634,48122.14352156443,48248.36382250355,48336.94378577993,48403.32846681219,48529.72758170695,48622.10734154074,48617.50288218295,48638.69233592658,48721.12556947775,48758.341223995834,48802.19534661715,48931.54489178001,49029.55729121653,49065.94593118977,49105.82144329804,49150.68139441984,49180.90095292342,49187.18179311536,49184.47723203626,49236.4226861504,49279.583904693594,49342.72758277984,49325.13675989351,49314.22910859932,49346.57208282615,49398.383426473556,49517.22765174242,49575.74451872642,49550.30823353628,49578.449079805505,49592.17305090107,49598.29742888182,49630.0145542639,49681.96000837803,49710.234965113996,49778.98893105852,49893.85454581434,49933.46183698915,50000.60647733289,50051.30023375753,50089.74523422065,50157.96275829825,50212.14338685792,50266.23460843976,50353.83109496011,50449.07187808417,50527.14652146656,50537.271861704816,50550.39233570008,50599.85674617967,50663.46981089948,50743.489056049475,50896.01736021249,51028.20557692118,51084.12964154836,51090.29872301802,51147.899168479344,51253.131181374934,51315.09021700505,51390.97438943081,51451.21234073786,51410.19688966237,51424.94904100288,51497.36869303807,51541.17811217048,51545.46964710589,51547.54835934024,51615.87764214011,51704.92699205005,51719.992067812935,51763.265045078406,51785.415623833615,51819.90436552816,51892.77105245245,51915.7039422636,51924.62228830127,51908.64079101572,51913.491119562525,51899.47657578905,51911.61357302828,51935.35112563981,51914.116968407274,51935.64169831773,52017.60554523535,52002.29460028346,51894.35802630878,51821.692505084575,51742.924957624076,51655.239064125904,51628.484026012906,51601.19254603297,51528.43761783095,51530.024591687274,51564.513333381816,51620.05741835325,51632.84261618169,51635.16719760504,51603.45007222296,51532.125655666074,51496.02758837075,51487.399815011006,51468.98197757983,51541.89336799304,51613.53070897231,51599.98555183239,51602.600705933655,51595.55990643024,51597.12452854211,51552.130466953575,51515.786530469246,51487.17629756645,51491.22196331286,51511.27147808927,51517.68642874795,51513.417245556986,51537.11009467961,51582.41708069052,51553.20335068743,51557.360775156114,51573.83401081968,51535.38901035655,51526.94005095244,51494.08298660314,51406.75472101626,51345.2203685308,51297.0076557407,51220.274117025634,51133.59405202795,51007.08317841091,50852.36440329128,50662.37457542117,50476.65393074202,50280.58442838007,50046.204036021714,49831.49317878404,49611.01557147689,49435.50967401382,49194.848441463524,48922.96182190917,48681.40651958067,48491.014360310364,48305.80780575369,48128.7596379232,47918.27326038758,47708.32332471888,47459.704871142494,47262.562485046685,47106.368494793,46931.24257698567,46786.93971478221,46646.6601665807,46512.46029287104,46390.19625070051,46341.089468132195,46277.409348179026,46199.37940828555,46187.6000389576,46166.723509636344,46083.21739235132,46074.85783992503,46074.656674224934,46060.44096475136,46059.703357184335,46008.13788272595,45985.09323419252,46040.79378137515,46083.329151073594,46144.3941169255,46127.9879364953,46153.75949785227,46202.48630076484,46193.88087914955,46221.261766107295,46223.161664385996,46244.39582161854,46294.86606059862,46320.99524986688,46301.7280461464,46306.24309852637,46360.043747430296,46381.61318082967,46443.81808564879,46590.736101953524,46733.18376936719,46830.32445076996,46908.10852147442,46990.18412711431,47078.764090390694,47194.63553364701,47325.39323871055,47405.65835304956,47540.238206414964,47659.037728194926,47755.26198807502,47798.780834529505,47831.12380875633,47878.755376190595,47961.792106842055,48018.923165669825,48106.452596956806,48214.232708720294,48343.82812307216,48406.88239418059,48438.89009224059,48479.16793574905,48531.47101777447,48604.114187254214,48639.18407430459,48648.70591744255,48684.379301593224,48683.17230739264,48641.70982142804,48628.76816138842,48650.06937385433,48634.7807806469,48704.74174079201,48749.89226459173,48733.329621950346,48756.396622228225,48816.18753864617,48847.36822216132,48824.055352694435,48826.04465795096,48855.12427748732,48914.57991773843,48954.00839495759,48983.78091857206,49038.676802954295,49108.302486932575,49172.94373189733,49263.22242775231,49371.8519058051,49457.01205217982,49477.3297878897,49570.91654192407,49629.79103681935,49664.27977851388,49741.95209049608,49760.481686649524,49830.196777605626,49899.55424065045,50008.89897452581,50077.98821663716,50118.93661247929,50160.71202286625,50253.85174201152,50352.24412110378,50408.70462759789,50459.91247414499,50547.106629265145,50600.68376072452,50629.40575234959,50662.86631379918,50719.25976505992,50805.87277482424,50866.40129880921,50914.97163951059,51002.925753942225,51065.555341905994,51098.010074855105,51096.06547308749,51103.19567956874,51179.37042467242,51263.03300416863,51315.33608619405,51424.211433435856,51482.437727741926,51517.77583572577,51505.03534138625,51530.69514402094,51599.76203438784,51644.912558187556,51708.99500954092,51800.14542342966,51848.0899152863,51907.053817159394,51931.21605291558,51935.239366917536,51946.99638450103,51920.978953955055,51908.90901194919,51934.52411109497,51969.03520453396,51979.04878604994,52002.138138072274,52006.608486963334,52021.785321448486,52034.45876055465,52030.14487387477,52006.45202475214,52071.58500809491,52089.533458892525,52082.939694278204,52100.642275886814,52091.70157810469,52068.5898743379,52063.11369694635,52101.42458694275,52082.76088032257,52043.28769961449,52054.97766196462,52065.125353947325,52116.06497956097,52107.7501306236,52104.71029337768,52152.855950934405,52142.39533452933,52175.27475062308,52142.61885197388,52067.11465920385,52022.36646680433,51949.72329732458,51853.67785140012,51725.26707950438,51609.462691481436,51491.06550110168,51382.74894747126,51238.311974801065,51083.14616479232,50934.86469207582,50717.51632899241,50515.590669583165,50317.3753997535,50128.234938172696,49909.59017391088,49668.03487158238,49450.32888058769,49172.34023479703,48924.97347891015,48717.25871768698,48502.92784010504,48331.91464327749,48214.031543020195,48116.33206800605,48010.98829638819,47869.83703015292,47753.25033107404,47669.96773123357,47636.61892850625,47592.384826229194,47530.0681626878,47451.21120824948,47410.687495552,47414.33082989822,47394.840108733195,47374.969407912424,47369.42617528751,47336.47970396039,47320.945241563946,47352.57295996821,47425.8419782927,47462.87881885515,47430.20056846149,47370.14143111008,47381.80904171575,47479.19559230752,47516.09832240323,47515.07014215829,47542.920415749606,47614.04366660639,47718.381609723765,47816.394009160285,47873.05568135449,47920.59784181092,47974.28673199257,48036.603395533966,48099.12122477547,48221.89935706847,48364.16821052649,48439.627699807614,48521.278622302845,48643.05092609536,48776.06615734889,48913.484682260125,49041.11314309992,49203.09623516753,49324.86853896005,49422.23273780737,49496.84286079918,49608.89215575364,49671.141764061664,49715.55468029436,49759.36409942676,49839.89743469923,49882.81278405342,49865.087850700365,49878.789470051466,49912.94293557918,49962.85438094788,49993.588029573926,50016.90089904081,50016.40916066279,50027.74149510163,50045.28761449905,50075.70833870272,50097.63540001338,50099.82587097,50073.09318460145,50026.66861136778,50058.72101291669,50078.323492804,50074.5683997355,50122.95992648124,50190.03751159162,50180.33685449802,50153.22418847373,50143.25531044666,50167.52930492513,50159.50502866567,50148.910301793854,50147.88212154891,50186.46123247877,50241.826503494565,50252.443582110835,50240.99948894972,50256.086916457054,50260.26669267019,50249.60491056501,50270.839067797555,50323.07509458961,50421.08749402613,50472.943541162436,50502.157271165524,50515.94829749445,50506.58291656768,50527.99588775586,50556.44965844747,50593.41944377655,50641.855674011196,50657.12191547417,50687.564991422296,50731.888500677174,50812.86887083875,50887.59075255284,50933.300069963945,50962.379689500296,51031.69244905621,51052.36781267737,51075.278350744054,51106.12375809238,51140.1207614089,51153.95649122674,51182.56672412953,51281.093213688524,51328.18833925585,51332.88220559147,51378.479764280295,51399.132776157,51412.29795364117,51448.48542791432,51469.83134386913,51433.30859342916,51428.637078838,51370.723708954305,51306.64125760094,51282.277856144654,51300.51687962018,51321.840443830544,51314.933754793856,51313.749112337726,51386.95107542886,51393.74600574327,51402.17261340292,51459.81776235316,51522.58146078366,51481.23073354134,51455.593282651105,51419.450511866875,51361.20186581634,51317.034818772656,51320.09700776303,51332.122246279985,51340.68296440637,51370.366081043016,51355.39041225796,51332.97161256929,51276.66756828637,51225.52677697263,51212.339247744,51177.1799537158,51118.126644864875,51063.02959478254,51033.90527175728,51002.90340219777,50956.791753386475,50968.21349480313,51006.54673654398,51000.77998647452,50956.165904541725,50942.62074740181,50878.001854181515,50824.55883318887,50749.23345437449,50701.534831706864,50677.4620029285,50584.456394249966,50476.3633580641,50325.82435915761,50174.145421283894,50028.07677126846,49878.789470051466,49715.15234889417,49541.836922387716,49316.30782083367,49053.27249208361,48849.75985881804,48695.82339475434,48464.192266964,48206.141377227475,47950.906807292326,47687.08916748633,47441.91288255607,47215.89204262401,47020.22487166225,46803.681171379234,46568.96550285405,46390.64328558961,46207.09076012263,46037.73159238477,45843.65139527934,45605.62766857477,45418.85649190623,45283.04729259578,45149.137991564035,45075.2878278837,45024.45996099233,44962.72444280678,44920.546701019615,44879.10656679947,44787.48676627717,44700.15850069028,44692.08952094192,44687.70857902868,44720.945623033724,44706.14876820431,44627.180055043704,44592.95953428263,44559.387214110764,44484.66533239667,44445.66153832216,44452.52352386994,44493.740140645525,44599.68740936368,44686.27806738354,44657.08668912491,44612.78553161449,44601.16262449773,44622.933223597196,44666.2956078405,44694.436454109724,44758.407146740814,44810.39730434386,44831.92203425432,44811.71605726672,44829.64215631988,44819.449760848256,44819.226243403704,44833.86663602193,44922.46895104277,45027.94683312736,45087.42482512294,45164.69480570493,45272.40786223506,45388.32400898028,45535.666708429664,45659.4283174787,45778.0043218141,45933.1924835673,46008.3614001705,46107.1337589185,46170.009216071274,46273.36368243262,46394.24191644692,46550.949996823074,46629.00228846101,46698.94089686166,46732.043830399976,46769.66181631826,46789.6442758613,46822.18841578822,46936.00349855465,47084.55319220462,47208.42655997593,47271.88316248455,47294.592534851145,47344.7274976644,47421.43868463501,47490.10324360171,47521.77566549488,47605.41589324664,47680.92008601667,47699.47203391457,47653.53919905892,47663.999815464,47727.90345286173,47754.367918296804,47805.59811658837,47844.221931007145,47906.40448408181,47941.49672287664,47980.83579311798,48101.02112305417,48180.83920250407,48206.85663305005,48283.21019210937,48384.37418751409,48431.69283052598,48404.267240079316,48461.688871585,48546.22316911497,48590.27845743638,48612.42903619159,48646.068411596825,48666.699071729076,48655.925530901615,48764.93498861015,48832.07962895389,48860.689861856685,48881.879315600316,48956.42238335877,49049.316233315025,49124.68631561832,49246.54802638865,49339.10660017808,49408.285249267254,49487.991569994876,49587.07685316526,49679.45661299904,49748.52350336594,49808.98497211754,49836.47761779757,49843.898396956734,49913.814653612935,50031.608346892404,50166.322310724536,50256.86922751299,50276.18113472237,50315.31903926362,50315.922536363905,50262.39010839345,50250.99071872124,50226.51555854268,50266.4134223954,50354.725164738324,50421.914508570975,50444.89210187103,50463.46640151339,50527.63825984458,50548.76065835484,50603.96946715945,50703.83706138576,50758.19650390107,50727.12757910819,50717.29281154786,50730.9273756656,50740.38216357019,50702.00421834043,50732.67081173311,50803.257620722965,50856.2536068265,50882.49455481703,50923.77822682598,50978.65175946376,50944.58770091387,50916.17863371118,50911.283601675466,50952.96960508461,51011.933506957714,51016.694428526695,51064.1024785164,51044.54470211801,51048.076277741944,51101.31813303449,51119.601859998926,51150.38021211389,51185.09247125298,51194.59196264648,51141.99830794315,51162.4278023753,51138.57849104148,51124.04985714553,51130.442456059754,51126.374438568884,51050.736135332125,50939.022116544504,50811.661876638165,50662.26281669889,50509.645105558055,50342.856388432556,50144.61876685843,49972.68914850821,49805.67691393816,49598.63270504865,49332.0434489302,49164.91945563787,48935.34468833741,48664.665062983644,48414.70550473994,48178.62637980299,48012.30704931105,47855.77778289054,47678.23787668203,47489.410339523594,47240.83658943613,47056.92643605786,46875.58673329195,46746.39365034028,46646.593111347334,46564.00341558497,46454.74808868743,46386.5976198432,46337.31202331925,46203.40272228751,46106.88788972949,46045.84527562204,45985.115585936976,45949.08457387502,45897.04971278307,45829.435685805765,45847.518247070104,45886.85731731145,45891.931163302805,45868.79710779156,45849.708718026726,45840.14217139986,45841.05859292252,45818.59508974494,45859.94581698726,45876.46375613973,45868.730052558196,45882.40932016484,45836.74470624265,45839.80689523303,45833.481351552175,45832.363764329406,45866.763099046126,45922.396590995384,46028.790894602644,46085.564325519124,46088.581811020595,46125.75276204977,46163.54956192369,46217.68548699444,46276.694092356454,46403.36142818468,46539.0365170284,46674.37632970528,46762.15163018127,46856.47599178267,46991.70404573728,47069.957503075304,47128.38496308148,47187.01358878775,47264.99882519231,47329.394200968054,47414.19671943149,47517.77470323738,47579.17494525611,47635.546044772396,47701.68485661565,47772.338720838874,47819.61266036185,47787.6273140463,47812.951840514164,47893.708693231194,47992.95043861275,48067.582913349026,48044.60532004897,48040.40319209137,48038.212721134754,48037.653927523366,48048.78509626211,48043.13010491492,48074.46725064126,48172.1220221665,48227.71081062684,48259.07030809764,48310.2558029003,48344.833951572655,48337.74844858032,48342.77759108277,48369.35381524012,48387.07874859319,48370.44905071844,48356.8144866007,48407.5752982587,48523.91612814857,48601.610791875224,48638.42411499311,48663.65923448315,48725.52886313544,48811.89600371075,48854.72194608712,48898.15138556378,48926.15812136628,48963.5078863511,48993.101596009925,49008.837224106464,49041.31430880002,49086.91186748885,49172.11671735248,49221.80464527663,49239.30606118513,49279.1815732934,49313.04446614319,49384.68180712245,49440.96349966091,49466.243322639864,49476.77099427831,49550.39764051409,49715.84525297228,49856.21420815161,49891.55231613545,49859.43285935317,49817.63509722175,49911.06538904493,50034.58112890496,50068.68989094376,50096.0260744126,50130.514816107134,50181.16386904286,50220.86056719549,50289.65923662892,50382.284865651716,50444.89210187103,50499.69857927544,50507.78991076826,50535.19314947047,50612.03844690781,50705.960477109016,50759.76112601294,50769.59589357328,50801.04479802189,50799.413120676654,50886.093185674334,50962.08911682238,50980.59636123137,50970.02398610401,51008.26782086704,51019.93543147272,51000.44471030769,51062.73902210463,51102.189851068244,51127.223804858186,51184.55602938605,51230.77943691963,51258.450896555296,51292.425548127365,51259.836704711524,51249.219626095255,51260.28373960063,51263.81531522457,51265.491696058714,51266.38576583693,51202.593887161485,51112.203432584225,51040.00729799358,50894.273924144974,50702.674770674086,50543.95503329695,50347.61731000153,50161.76255485565,49962.13912512531,49747.070639976344,49562.48993426442,49389.35332171361,49189.43931930534,48966.12304045237,48754.49672394952,48548.056012160305,48311.619259312065,48160.700280749836,48017.716171469234,47849.89927409879,47703.85297582782,47544.239168672466,47328.1201515341,47185.62778063152,47074.874886855476,46982.60688574397,46872.70335825722,46735.68716474619,46631.84096000683,46560.38243298321,46536.846046071776,46509.509862602936,46430.4070389756,46388.67633207754,46380.4955936069,46361.96599745345,46349.9407589365,46340.038936142795,46338.11668611964,46329.913595904545,46320.43645625549,46345.5374652788,46327.6337179701,46362.86006723167,46410.8045590883,46403.80846307379,46367.442174845004,46326.65024121407,46354.07583166073,46402.42265491756,46475.22228660849,46478.28447559887,46487.225173381,46540.5340839069,46637.004212976004,46719.75037094956,46758.01655745704,46808.240927248116,46873.41861407979,46930.639079885375,46986.18316485681,46996.86729870645,47061.26267448219,47171.702643835866,47304.62846811157,47474.14409806062,47661.898751485205,47739.66047044522,47787.76142451304,47851.843875866405,47923.704734290215,48041.431372336316,48148.3621178105,48244.47461896833,48356.792134856245,48390.36445502812,48393.78427192978,48394.94656264145,48422.39450483257,48559.4106983436,48633.976117846505,48699.22085991155,48703.6465053137,48716.051723486395,48780.42474751768,48821.194329404156,48840.215663935625,48864.266140969536,48902.59938271039,48904.07459784444,48850.09513498487,48838.13695170128,48904.56633622245,48945.58178729794,48937.110476149384,48961.02684271656,48968.46997362018,48973.63322658935,48915.74220845011,48893.23400178361,48940.84321747342,48970.88396202135,48974.52729636757,48936.08229590444,48926.29223183301,48921.10662711938,48890.66355117125,48851.883274541295,48822.446027093654,48823.60831780533,48828.48099809659,48865.67430087022,48901.01240885406,48926.202824855194,48970.727499810164,49003.875136837385,49007.45141595023,49076.07127142802,49122.38408593942,49114.35980967997,49153.56476945458,49190.89218269494,49228.063133724114,49241.45182865284,49248.760849089726,49283.94249486238,49334.613899542564,49357.92676900945,49347.689670048916,49352.160018939976,49400.21626951889,49505.15770973655,49585.46752756447,49627.57821411827,49681.69178744457,49685.916267146626,49663.02808082439,49664.19037153607,49752.21154120106,49769.377680942736,49784.50981193898,49851.87796972728,49928.566804953436,49982.36745385736,50029.015544535585,50053.02131808059,50037.93389057325,50112.856937987446,50204.78966293212,50220.21236660628,50279.086861501564,50312.68153341789,50350.65714724745,50417.153587001994,50509.75686428033,50536.33308843769,50521.26801267482,50495.18352689547,50492.858945472115,50498.536288563766,50466.75210794832,50478.59853250963,50534.85787330364,50537.98711752738,50490.15438439303,50558.39426021508,50600.169670602045,50636.06657219727,50664.6097498667,50564.69745215148,50473.07765162917,50437.359563989594,50362.570627042136,50286.082957516075,50146.20574071476,49972.06329966347,49791.125928297755,49628.5616908743,49403.8596038651,49168.33927253953,48935.09881914841,48751.12161053677,48546.960776682,48337.077896246665,48111.66055341489,47927.07984770297,47730.317441262894,47478.0556533403,47260.1037931566,47061.68735762684,46897.40203588033,46779.83186004542,46600.950849169596,46421.846320849225,46258.34331015865,46139.09675348959,46033.283595238165,45928.05158234258,45847.40648834783,45783.48049920565,45668.83840189438,45564.85808668829,45523.082676301325,45457.21208539153,45371.64960761662,45270.30679825626,45193.79677698574,45168.159326095505,45170.01452088529,45177.4129483,45198.669457277,45222.965803499916,45202.73747476786,45158.68218644645,45210.739399282866,45272.92195235753,45268.183382533,45257.29808298327,45250.05611777975,45264.87532435362,45325.78382799433,45343.82168576976,45424.936166398074,45484.39180664919,45566.44506054462,45664.4798117256,45696.4875097856,45756.859571559384,45865.645511823364,45901.11773027393,45967.68122526184,46061.62560720749,46137.71094533336,46221.57469052967,46294.06139779823,46408.904660809596,46558.92956959362,46674.19751574964,46732.781437967,46752.47332483212,46781.21766820165,46811.83955810542,46844.13782884334,46945.36887948142,47045.48234289674,47105.60853548152,47189.91931556694,47266.98813044884,47325.25912824382,47412.69915255298,47439.43183892153,47423.76326605836,47430.222920205946,47480.93902837503,47574.10109926476,47587.95918082705,47618.737532942,47640.82105646385,47650.52171355745,47726.07060981639,47765.297921335456,47787.00146520155,47851.24037876611,47947.37523166838,47955.46656316121,47992.97279035721,47996.817290403524,47991.45287173425,47967.603560400436,48034.12235189943,48150.10555387802,48199.771130057714,48197.044217234165,48189.75754854173,48176.145336168454,48238.39494447648,48324.44916062942,48377.62396068859,48429.77058050282,48470.78603157831,48494.098901045196,48513.18729081003,48534.1085236202,48561.53411406685,48546.62550051517,48561.064727433295,48589.876126036186,48686.70388301658,48772.37811951377,48809.39260833176,48859.61697812283,48903.560507721966,48967.39708988632,49036.016945364114,49053.160733361336,49080.765137763636,49150.16730429737,49180.78919420114,49213.2662788947,49258.21563699432,49326.41080932746,49377.14926924101,49389.5097839248,49415.63897319305,49414.58844120365,49465.25984588383,49515.77478835283,49571.85531519119,49596.084606180746,49635.53543514436,49658.714194144515,49635.69189735555,49670.0241768389,49691.37009279372,49708.44682555757,49715.66643901663,49737.12411369373,49782.78872761592,49863.903208244235,49901.700008118154,49981.763956757066,50004.965067501675,50063.39252750785,50051.21082677971,50034.692887627236,50039.923195829775,50064.733632175165,50111.29231587557,50124.45749335975,50156.398136186384,50257.964462991295,50333.51335925023,50357.16150488395,50399.473357137846,50418.8523195806,50410.67158110996,50402.15556647248,50391.40437738948,50388.02926397673,50357.83205721761,50312.636829928975,50320.191719554874,50284.83125982658,50195.08900583852,50052.23900702465,49950.426811030724,49890.97117077961,49766.248436719,49612.73665579995,49443.31043282872,49234.70160182734,49023.20939579122,48811.24780312154,48534.33204106475,48284.305427587686,48072.43324189583,47932.19839718323,47813.13065446981,47688.027940753454,47523.340287606756,47361.75952693934,47215.42265599044,47056.546456402124,46909.51668137511,46749.25467363056,46565.32216850784,46443.90749262661,46350.61131127016,46265.96525501791,46183.06263483318,46159.21332349937,46162.72254737885,46115.292145644686,46095.443796568376,46068.75581368874,46012.87645255047,45945.77651569564,45906.45979719875,45893.98752379269,45934.71240219026,45944.90479766188,45959.81341121357,45959.61224551347,45929.16916956534,45895.641552882385,45895.283924971096,45914.305259502566,45941.30616680458,45946.75999245167,45978.477117833754,46020.565452643095,46087.128947631,46140.61667211255,46229.21898713338,46265.62997885108,46295.380150721096,46315.45201724196,46419.879367337155,46484.49826055745,46528.26297620094,46562.66231091766,46649.63294859326,46785.97858977063,46913.092960487964,47040.341441672026,47073.19850602133,47125.92627119139,47167.344053667075,47222.91049038297,47205.90081285248,47218.35073451409,47296.38067440756,47314.306773460725,47361.915989150526,47421.52809161283,47487.5104412449,47545.69203206206,47585.14286102568,47639.07762039633,47705.95403980661,47721.10852254731,47728.998688340034,47742.09681059085,47754.792601441455,47777.390215085776,47814.1364829703,47805.37459914382,47802.02183747552,47860.650463181795,47878.688320957226,47935.08177221796,47957.83584807347,47946.19058921225,47916.39571385333,47926.208129669205,47915.83692024195,47905.77863523706,47924.889376746345,47979.15941228383,47999.92418288281,48047.33223287252,48130.838350157544,48137.63328047196,48122.41174249789,48127.19501581133,48169.48451632077,48192.61857183201,48260.97020637634,48345.102172506115,48409.81047270423,48416.985382674386,48438.75598177385,48474.47406941344,48502.480805215935,48503.08430231623,48536.56721551028,48572.30765489431,48605.164719243614,48711.96135425107,48814.80173048994,48907.91909789075,48945.2018076422,48962.23383691715,48968.291159664535,48998.44366293474,49096.61252458245,49202.24686887823,49279.04746282667,49304.79667243918,49262.93185507439,49273.012491823734,49344.85099850309,49414.096702825635,49499.27920094481,49634.64136536615,49739.76161953946,49781.17940201514,49806.03454184944,49871.41339438122,49925.6834299187,49927.851549130864,49940.726153937125,49941.46376150415,49946.49290400659,49957.62407274533,49980.020520689555,49978.29943636649,49991.5987243174,50072.13205958987,50155.05703151906,50227.499035298715,50258.18798043585,50244.21814015128,50278.37160567899,50302.019751312706,50298.28700998867,50297.43764369937,50311.85451887304,50305.70778914783,50340.35299305356,50380.675540050936,50396.29940942519,50382.128403440525,50442.72398265886,50495.80937574022,50593.68766471001,50665.03443301135,50672.92459880407,50668.52130514638,50562.23876026139,50467.53441900425,50366.482182321815,50281.120870246996,50196.8994971394,50122.982278225696,49988.42477660475,49836.3658590753,49640.29635671334,49385.93350481195,49141.42777221534,48901.794719909994,48679.99835967999,48471.97067403444,48324.73973330733,48153.994757413246,47995.923220625315,47782.64287503277,47523.87672947368,47292.35736040561,47124.160483379426,47007.37261860044,46867.026015165575,46750.64048178679,46639.61936707728,46470.48371678397,46388.11753846616,46312.16631080703,46198.3065245517,46047.52165645619,45876.9778462622,45789.18019404176,45727.62348981184,45675.18629731969,45622.97262227209,45576.570400782875,45573.17293562567,45597.84926150433,45570.08839489084,45483.587143848796,45425.89729140965,45416.44250350505,45380.23267748746,45387.519346179884,45380.813822843294,45403.99258184345,45467.31507388534,45468.834992508295,45473.52885884391,45465.482230839996,45535.51024621847,45609.87450002128,45616.468264635594,45625.297203695445,45660.76942214602,45702.72364648863,45747.494190632606,45824.40654330332,45891.84175632498,45973.80560324259,46051.43321173587,46093.968581434325,46112.006439209756,46137.50977963326,46228.8613592221,46361.921293964544,46451.52943748587,46510.71685680352,46610.807968474386,46690.067254312904,46763.135106937305,46827.61988969087,46903.05702722753,47018.25791815018,47141.483085332286,47135.4257625849,47121.18770136687,47192.2886004792,47311.155177492525,47361.42425077251,47414.0402572203,47494.77475819287,47542.29456690486,47566.948541039055,47622.64908822168,47649.649995523694,47664.893885242214,47707.3621997073,47740.91216813471,47745.89660714824,47793.63993330478,47866.730137673636,47850.74864038809,47880.23059132464,47892.21112635269,47870.351120275394,47923.347106378926,47991.00583684514,48019.79488370358,48017.716171469234,47962.12738300889,47923.12358893437,47904.28106835855,47964.809592343525,48013.201119089266,48080.792794322115,48139.42142002838,48185.30955139513,48182.69439729385,48180.906257737435,48209.762359829234,48261.41724126545,48277.286979828714,48321.58813733914,48319.42001812697,48346.13035275106,48419.33231584219,48461.77827856282,48436.18553116149,48456.92795001602,48550.20177962801,48617.122902527204,48698.68441804462,48763.88445662075,48752.23919775953,48737.308232463394,48738.96226155308,48738.559930152885,48789.14192785525,48859.32640544491,48889.81418488195,48899.492490231096,48972.73915681114,49029.57964296098,49025.690439425765,48961.87620900586,48951.996737956615,49008.189023517254,49075.91480921684,49084.408472109855,49103.407454896864,49113.01870501265,49151.1507810534,49191.47332805077,49248.24675896725,49325.025001171234,49334.613899542564,49280.25445702725,49340.693574034405,49402.764368386794,49422.8138831632,49495.971142765426,49542.8427508882,49516.937079064504,49538.90884386407,49640.72103985799,49720.852043730265,49773.71391936707,49795.57392544436,49772.1492972552,49736.878244504725,49754.53612262441,49739.873378261735,49764.52735239594,49846.692365013645,49937.46279924665,49964.66487224876,49954.18190409922,49959.72513672413,49983.82031724696,50002.21580293367,50004.94271575722,50049.04270756754,50049.221521523184,50046.89694009983,50020.18660547574,49928.49974972007,49832.54371077344,49742.28736666291,49621.453836137516,49528.06824780325,49429.38529603306,49280.880305872,49153.78828689913,48994.62151463288,48796.60741050332,48564.775117012876,48323.68920131793,48135.666326959894,47981.05931056253,47824.95472728667,47649.27001586795,47461.56006593229,47342.29115751877,47217.25549903578,47016.22390940475,46870.98227393416,46749.366432352836,46613.22195687556,46452.043527608344,46328.237215070396,46234.561054058206,46154.25123623029,46063.10082234154,45995.86677501998,45968.061204917576,45914.19350078029,45888.913677801334,45869.71352931423,45819.556214756514,45758.35713843789,45718.07929492943,45641.099887025346,45637.14362825676,45661.9764163466,45682.5847247344,45708.37863783582,45794.43285398875,45844.85838947992,45842.89143596786,45808.55915648451,45796.422159245274,45813.09656060893,45879.2800759411,45917.70272465977,45930.443218999295,45952.43733554332,45991.128205195455,46069.60517997804,46165.09183229111,46229.62131853358,46239.83606574966,46299.69403740097,46410.938669555035,46441.94053911454,46443.505161226414,46504.16779567812,46609.332753340335,46759.9388074802,46889.15424217633,46997.35903708447,47045.25882545219,47102.90397440243,47185.49367016479,47262.76365074678,47354.80813441374,47474.38996724963,47554.856247288735,47613.19430031709,47714.82768235537,47742.92382513569,47765.96847366911,47819.92558478422,47868.78649816352,47941.16144670981,48001.64526720587,48020.867767437434,48031.8871774539,48041.34196535849,48077.909419287374,48121.472969230774,48138.035611872154,48167.85283897553,48246.039241080194,48270.96143614787,48294.40841608148,48292.12853814704,48335.93795727944,48406.5247662693,48391.616152717615,48356.59096915615,48358.893198835045,48444.00864172085,48487.236915497415,48524.05023861531,48560.75180301092,48598.30273369583,48618.50871068343,48648.43769650909,48663.52512401642,48687.77676675043,48712.207223440084,48683.909914959666,48736.59297664082,48791.60061974533,48850.60922510734,48877.20780100916,48839.2768906685,48857.828838566405,48868.1329927603,48864.86963806983,48892.87637387233,48955.438906602736,49008.189023517254,49054.43478279529,49099.25003042818,49160.78438291364,49212.28280213867,49225.827959278584,49208.23713639226,49156.58225495604,49238.903729784935,49325.941422693904,49351.51181835077,49365.52636212425,49395.365940972086,49477.35213963415,49507.012904526346,49540.71933516495,49523.2402710009,49473.75350877685,49536.0925240627,49572.05648089129,49609.45094936502,49654.087383042264,49659.63061566718,49653.752106875436,49693.8287846838,49729.524520578925,49746.735363809516,49790.81300387538,49828.945079916135,49817.32217279937,49863.21030416612,49858.807010508426,49942.201369071176,50021.885338054344,50042.00190806412,50088.11355687542,50122.93757473679,50102.86570821592,50114.19804265476,50200.40872101888,50235.120980157975,50243.32407037307,50261.00430023722,50227.96842193227,50183.77902314413,50174.301883495085,50255.036384467654,50279.04215801265,50350.455981547355,50400.90386878298,50400.1439094715,50445.607357693596,50447.41784899448,50479.80552671022,50527.99588775586,50500.25737288682,50465.83568642565,50448.401325750514,50377.792165016195,50320.10231257705,50287.93815230586,50252.84591351103,50201.30279079709,50169.339796226006,50116.29910663356,50025.059285767,49997.007846475586,49958.51814252355,49799.5525359574,49579.0525769058,49310.27284983073,49125.84860632999,48980.13758422585,48871.86573408434,48678.03140616792,48480.799613094285,48303.12559641905,48085.64312286891,47949.09631599144,47793.21525016013,47600.67732342212,47442.583434889726,47297.14063371905,47135.269300373715,46961.2833215336,46829.49743622511,46738.21291186964,46616.70882901059,46529.13469423469,46389.682160578035,46258.030385736274,46154.5418089082,46052.26022628072,45981.47225159076,45898.2343552392,45826.418200304295,45828.49691253864,45813.65535422032,45753.05977500198,45755.898446547806,45737.368850394356,45689.29024807099,45703.595364522385,45727.53408283402,45697.76155921955,45727.57878632293,45774.49509793462,45767.36489145338,45776.12677527986,45779.166612525776,45812.78363618656,45869.53471535858,45947.51995176315,46002.97462975677,46017.07858050807,46060.15039207344,46110.106540931054,46132.413581897454,46159.9956345553,46187.62239070206,46268.245132952354,46320.23529055539,46356.28865436181,46385.59179134271,46370.90669523558,46372.47131734745,46446.299129283325,46537.09191526078,46592.18896534311,46617.98287844454,46654.41622190669,46703.791225408466,46761.12344993633,46829.78800890303,46868.277712855066,46904.04050398356,46996.37556032844,47082.5638869481,47171.30031243567,47214.68504842342,47305.18726172296,47308.38356118007,47298.16881396399,47322.30869797572,47387.486384807395,47442.76224884537,47495.17708959307,47479.553220218804,47466.008063078894,47499.759197206404,47540.77464828189,47583.91351508063,47611.87554739422,47671.8005742789,47678.461394126585,47645.447867566094,47674.415728380176,47713.37481896577,47769.053014403944,47800.27840140801,47876.47549825615,47906.02450442607,47925.314059890996,47954.751307338636,47968.58703715647,47984.97086584221,47973.21384825872,47934.97001349569,47947.2187694572,47986.267267020616,48076.00952100867,48132.805303669615,48175.094804179054,48209.40473191795,48226.72733387081,48255.24815979578,48304.69021853092,48339.5589398812,48374.62882693158,48429.569414802725,48475.45754616947,48478.564438648755,48515.84714840021,48549.33006159426,48600.96259128602,48687.665008028154,48774.143907325735,48808.409131575725,48771.79697415793,48786.99616038754,48811.89600371075,48825.35175387285,48870.278760228015,48905.68392344522,48960.44569736072,48982.50686913811,49008.12196828389,49060.69327124277,49094.62321932593,49150.99431884221,49244.37990717649,49266.55283767615,49272.27488425671,49296.504175246264,49345.029812458735,49407.99467658933,49473.59704656566,49481.24134316938,49449.30070034274,49460.96831094841,49472.59121806517,49523.8884715901,49540.58522469822,49563.987501142925,49618.63751633615,49633.1661502321,49614.92712675657,49645.996051549446,49676.72970017549,49681.6247322112,49694.432281784095,49715.9346599501,49779.32420722535,49752.32329992334,49679.23309555449,49648.231225994976,49619.88921402564,49585.35576884219,49604.13123418466,49612.33432439975,49622.973754760475,49634.44019966605,49656.92605458809,49668.10192681574,49672.70638617354,49629.835740308255,49548.14011432411,49564.34512905421,49582.67355950756,49571.9000186801,49561.01471913037,49491.478442129905,49414.96842085939,49354.57400734115,49249.0737735121,49146.03223157314,49084.85550699896,49003.517508926096,48867.57419914892,48663.6368827387,48519.959869379985,48371.43252747447,48173.79840300064,47956.20417072823,47751.14926709524,47560.35477642474,47374.81294570124,47169.69098683489,46994.16273762736,46877.71014901521,46780.3906536568,46631.46098035109,46512.77321729341,46369.87851499063,46212.186957858445,46110.84414849808,46021.37011544348,45947.005861640675,45878.60952360744,45762.22399022865,45628.11352349681,45545.657938201184,45492.01375150845,45442.974024173505,45422.499826252446,45410.184015057566,45407.83708188976,45416.531910482874,45419.45998900652,45365.68169184705,45352.27064517387,45345.87804625965,45437.49784678195,45493.13133873121,45489.2868386849,45543.62392945575,45544.09331608931,45542.43928699962,45513.47142618554,45485.04000723839,45507.01177203796,45576.95038043861,45622.39147691625,45624.58194787287,45651.04641330796,45729.41162936827,45778.71957763667,45808.35799078441,45940.12152434844,46027.002755046226,46064.62074096451,46063.10082234154,46099.556517548146,46202.106321109095,46278.526935401795,46368.26918938985,46510.761560292434,46588.03154087443,46643.7097363126,46719.45979827164,46796.57331664245,46844.11547709888,46856.967730160686,46839.332203785445,46818.88035760884,46898.94430624775,46979.25412407567,47061.62030239347,47123.08759964557,47141.550140565654,47101.89814590194,47116.538538520166,47149.5297133362,47241.39538304751,47306.662476857004,47291.84327028314,47245.95513891639,47285.69654055793,47315.02202928329,47300.515747131794,47279.16983117698,47259.701461756405,47272.59841830712,47303.44382565544,47329.528311434784,47321.54873866424,47338.200788283444,47351.36596576762,47388.06753016324,47452.70877512798,47515.003086924924,47513.952554935524,47524.033191684866,47578.41498594463,47683.37877790675,47730.78682789646,47680.67421682766,47664.06687069737,47695.85105131281,47717.040505056444,47717.040505056444,47711.00553405351,47728.17167379519,47764.850886446344,47820.305564439965,47854.056698567474,47873.81564066597,47923.90589999031,47931.594900082935,47920.53078657756,47923.45886510121,47912.97589695167,47902.805853224505,47929.069152959484,47954.01369977161,48003.813386418034,48095.47789042925,48121.249451786214,48162.220199372794,48215.66322036544,48211.952830785856,48204.35323767105,48217.8313395776,48313.38504712404,48408.804644203745,48434.665612538534,48400.71331271092,48378.98741710036,48381.20023980144,48449.35070864567,48535.15905560959,48582.47769862148,48621.30267874035,48624.610736919734,48584.15407945563,48523.714962448474,48531.85099743021,48574.90045725113,48553.12985815166,48541.73046847945,48544.2562156029,48536.79073295483,48573.022910716885,48649.24235930948,48698.66206630017,48712.631906584735,48743.812590099886,48725.59591836881,48744.34903196681,48764.06327057639,48721.72906657804,48736.61532838528,48772.13225032476,48858.4323356667,48938.429229072244,48958.83637175994,48968.02293873107,48953.58371181294,48942.47489481865,48927.11924637786,48945.2018076422,48946.49820882061,48953.4048978573,48975.73429056815,49008.32313398399,49003.15988101481,48946.609967542885,48884.02508306802,48781.65409346272,48725.79708406891,48703.08771170232,48651.20931282155,48580.019006731396,48545.820837714775,48406.3236005692,48182.225010660295,47991.56463045652,47871.78163192054,47725.02007782699,47531.54337782185,47361.29014030578,47158.73863205178,46988.61950500244,46830.57031995897,46698.31504801691,46532.35334543626,46327.70077320347,46116.409732867454,45896.245049982674,45682.070634611926,45542.61810095526,45443.84574220726,45341.20653166849,45247.82094333422,45142.81244788319,45006.735027639275,44962.85855327351,44910.10843635898,44808.65386827634,44703.22068968066,44650.44822102168,44633.66206093575,44591.79724357095,44590.9255255372,44586.097548734855,44518.483521757546,44472.349521201795,44484.91120158568,44457.239741950005,44440.118305697244,44422.6839450221,44455.27278843794,44500.110387815286,44506.257117540496,44472.12600375724,44493.91895460117,44567.38913862576,44608.65045889026,44650.35881404386,44638.95942437166,44675.10219515589,44736.8600650859,44766.92316137829,44792.58296401298,44838.89577852438,44834.42542963332,44863.88502882541,44886.66145642537,44939.635090784446,45014.02169633171,45113.46460741337,45183.44791930293,45259.19798126197,45304.37085680615,45416.55426222733,45464.76697501743,45500.84269056829,45596.79872951493,45620.84920654884,45657.03668082198,45786.47563296266,45878.74363407417,45950.313919820066,46035.652880150425,46083.59737200706,46086.011360408236,46145.824628570634,46202.463949020384,46258.70093806994,46262.34427241615,46312.25571778485,46353.02529967133,46402.6014688732,46470.48371678397,46488.745092003956,46549.67594738912,46562.05881381736,46598.76037821297,46669.92833255867,46632.198587918116,46579.56022972587,46617.11116041079,46668.542524402445,46676.656207639724,46733.273176345014,46741.4315630712,46752.29451087648,46801.11072076687,46880.57117230549,46882.962808962206,46883.43219559577,46935.33294622099,46974.56025774006,47033.72532531325,47042.621319606464,47015.30748788208,47037.100438726,47097.874831899986,47204.2914872517,47220.18357755942,47238.91433941297,47227.403191018486,47216.33907751311,47249.82199070716,47361.02191937232,47411.60391707467,47419.13645495611,47434.894434797105,47443.61161513467,47472.60182769321,47526.08955217476,47563.819296815316,47561.27119794741,47550.56471235332,47625.21953883404,47650.365251346266,47650.38760309072,47669.0513097109,47706.89281307373,47761.40871780023,47807.54271835598,47853.721422400646,47917.15567316481,47980.16524078432,48028.66852625234,48108.531309191145,48143.62354798598,48113.6051551825,48141.47778051827,48146.19399859834,48254.152924317474,48369.89025710705,48384.329484025184,48394.5218794968,48410.99511516036,48401.875603422595,48419.779350731296,48468.66261585506,48524.497273504414,48622.95670783004,48730.78152308244,48771.349939268825,48799.42373030469,48804.43052106268,48849.40223090676,48873.74328061858,48857.29239669948,48867.52949566001,48935.36704008187,48952.30966237899,48963.41847937328,48969.52050560957,48935.59055752642,48950.07448793346,48996.29789546703,49000.41061644681,48996.74493035614,49002.48932868116,49067.979939935205,49131.347135466,49103.74273106369,49108.07896948802,49140.06431580357,49131.19067325481,49123.412266184365,49118.13725449291,49088.90117274537,49068.51638180213,49012.65937240832,48972.470935877674,48957.092935692424,48877.788946365,48734.156636495194,48596.04520750585,48469.57903737772,48336.51910263528,48217.16078724394,48038.50329381267,47883.33748380393,47718.13574053475,47491.26553431339,47294.14549996203,47158.15748669595,46960.03162384411,46792.639409618314,46618.31815461137,46461.36420504621,46365.98931145541,46238.22674014887,46111.46999734283,45964.708443249285,45836.38707833136,45732.607928825375,45674.80631766395,45599.54799408293,45519.796969866395,45495.92530678813,45480.54730660288,45421.33753554077,45374.57768614026,45346.81681952677,45351.62244458467,45316.01611566736,45247.39626018957,45238.94730078546,45207.87837599259,45167.62288422858,45100.92527877394,45089.48118561282,45101.75229331879,45146.56754095168,45122.31589821767,45043.39188854598,45022.98474585829,45095.82908103813,45149.83089564215,45175.3118843212,45192.478024062875,45179.87164019008,45197.998904943335,45238.92494904101,45289.46224325446,45367.69334884803,45387.40758745761,45414.76612267091,45453.166419645124,45511.30330697338,45570.53542977994,45619.12812222578,45601.22437491708,45596.97754347057,45674.1804688192,45765.1520687523,45819.35504905642,45926.48696023071,46029.14852251393,46061.82677290759,46159.749765366294,46208.4542165344,46250.25197866583,46381.300256407296,46455.06101310981,46494.623600795705,46512.61675508222,46569.72546216553,46600.61557300277,46622.766151757976,46610.33858184083,46645.699041569125,46679.33841697436,46698.91854511721,46721.91849016172,46733.89902518976,46742.035060171496,46759.26825514654,46819.752075642595,46883.722768273685,46883.5663060625,46863.9638261752,46866.93660818775,46881.621704294885,46884.52743107408,46899.03371322557,47000.421226074846,47063.65431113891,47153.776544782704,47192.802690601675,47177.491745649786,47238.98139464634,47274.49831658582,47315.916099061506,47347.2755965323,47369.448527031964,47390.90620170906,47437.196664476,47484.78352842135,47511.60562176772,47499.69214197304,47514.801921224825,47554.096287977256,47613.596631717286,47657.49545782751,47671.44294636762,47650.92404495765,47691.5595163774,47674.616894080275,47704.23295548355,47810.00141024607,47837.47170418164,47823.6359743638,47884.23155358214,47980.65697916233,48085.48666065773,48174.84893499004,48179.9227809814,48148.38446955496,48214.523281398215,48316.84956751461,48327.57840485316,48321.99046873933,48348.07495451868,48368.43739371746,48397.00292313134,48445.0368219658,48476.30691245877,48538.15418936661,48623.984888074985,48685.58629579381,48755.10022104981,48801.18951811666,48846.854132038854,48868.043585782485,48852.66558559723,48833.89012025477,48895.2903622735,48962.23383691715,49047.505742014146,49070.10335565846,48907.047379856995,48468.32733968823,47513.59492702424,45558.97957789655,42439.391307758255,37916.94050037152,32434.41521339598,27278.806540823763,21730.477718171802,16351.396304535427,11636.854605299784,7994.414328862946,5179.212114717021,3393.0842152934333,2575.770327540675,2218.8129685894214,2038.9484809575656,1944.0206222558766,1822.427132419006,1720.883157358546,1660.4887438403064,1676.2020201923872,1715.5634421781829,1776.2260766298864,1816.1686439715202,1893.6397902536144,1939.840846042734,1965.0089102994098,2008.192480587063,2001.2857915503732,1972.742613880946,1912.1470346626086,1851.0373653217991,1791.0229314592996,1754.6789949749702,1693.792843078714,1631.6549934929603,1562.4763444037849,1455.2326745072216,1296.6693993412732,1142.688231788663,956.0735173313043,751.2644828873257,580.295989548682,383.42182438633733,194.41547327226084,60.32735828487376,-59.835619906857005,-138.67022260072503,-204.69727572170208,-327.0060213811423,-454.61213047649034,-522.2932126871601,-559.9111986054419,-4146.025079014907,-10033.675734242885,-15234.099654447993,-20008.029938701384,-27146.640675859533,-32997.96974634764,-36855.05382478879,-39282.45327263514,-42842.90735040991,-45814.23649957615,-47574.03404403139,-48459.02901399482,-50474.03877664075,-52336.095551979015,-52955.685908280124,-52845.06712497081,-53760.996909260386,-55217.615391923835,-55795.29622737125,-55483.15411605289,-55508.52334600966,-56967.6452240521,-58366.64090950977,-58934.9116605415,-59374.72693618858,-60589.723061290155,-60972.18376066491,-60457.78071377048,-59918.589582275104,-60597.277950916054,-60743.97244977623,-60208.98344623845,-59681.37051837093,-36540.11774541351,-58901.764023514275,-49059.41922180882,-38267.549963897465,-36504.0643816071,-34435.05280435715,-35011.92897700417,-35406.34785966252,-36728.297081982746,-36801.74491426288,-36760.84122190967,-36607.37414447953,-36629.27885404573,-36279.65286727582,-35584.20069029339,-34919.50451368147,-34657.83264134319,-34846.57077152381,-35016.421677639686,-35000.57429082088,-34817.55820722082,-34629.110649718124,-34343.16478290138,-34187.708400214724,-34131.76198384309,-34248.43808989979,-34159.70166441222,-34095.75332352559,-33950.46698456609,-34042.80204091097,-33984.419284393705,-33816.490628300984,-33688.638650016626,-33816.20005562306,-33755.805642104824,-33600.23750069589,-33415.835608939604,-33720.60164458772,-33819.30694810235,-33870.06775976035,-34101.028335217045,-34435.65630145744,-34535.18861951693,-34578.97568690487,-34716.237749604916,-35054.71021589163,-35137.1434494428,-35146.62058909185,-35153.236705450625,-35287.593041371474,-35193.715714659185,-35129.23093190562,-35077.866623147325,-35232.853619200425,-35262.134404436874,-36044.020777227975,-37558.39616756394,-38792.145406263524,-39593.63425894192,-40061.99271225843,-40339.243750482055,-40366.11054731734,-40061.50097388041,-39825.98064255484,-39827.142933266514,-39699.73798987127,-39499.24284210716,-38929.89920734158,-38573.38888327943,-38605.418933083885,-38642.813401557614,-38621.713354791806,-38783.8529090706,-38774.57693512165,-38743.46330683986,-38592.18670036634,-38906.251061707866,-39232.653585988715,-39299.70881935464,-39225.54573125193,-39437.28380647705,-39486.077664622986,-39380.80094823849,-39258.358092112314,-39379.01280868206,-39554.33989218949,-39514.598490547956,-39258.20162990113,-38892.99647724587,-38494.822501519026,-37904.04354382081,-37449.76668951115,-37117.86563609429,-36925.55122680083,-36538.01668143472,-36132.46663003763,-35868.42547278708,-35839.23409452845,-35599.891614901026,-35338.37620477393,-35059.85111711635,-34821.60387296723,-34507.405401158976,-34219.49258083017,-33924.76247844249,-33802.520788016416,-33512.171627541975,-33012.49838024359,-32625.03089011084,-32375.83129117862,-32276.969525452798,-32247.465222771792,-32235.10470808801,-32396.12667514404,-32867.77083489548,-33082.61580259989,-33176.403722334355,-33385.23607078029,-33806.58880550728,-34066.80781445597,-34205.00865042313,-34391.57866139158,-34757.11909021367,-34908.95449029857,-35011.0125554815,-35127.26397839355,-35407.353688163006,-35578.43394022393,-35719.65226169256,-35769.36254136116,-35892.74417075446,-35770.21190765046,-35512.205721402854,-35343.248885065186,-35360.437376551316,-35492.580889771096,-35518.53126508371,-35581.02674258074,-35701.0779620502,-35915.98998498797,-35949.18232550411,-35959.79940412038,-36066.93131529466,-36403.5932902805,-36551.494783341266,-36698.63631709055,-36825.99655699689,-37083.04161823292,-37164.11139537232,-37199.78477952299,-37231.61366362735,-37434.50044804817,-37574.55647880513,-37618.58941538208,-37643.623369172026,-37803.080714116186,-37977.424320867576,-38015.4222864416,-38019.222082999004,-38103.130531684226,-38239.40911762823,-38233.53060883649,-38220.633652285775,-38213.45874231562,-38369.98800873614,-38346.78689799153,-38189.14004434825,-38083.77392098593,-38224.478152332085,-38247.679263076694,-38215.872730716794,-38124.163523216674,-38178.72413143208,-38117.07802022434,-38033.05781281684,-37988.264916928405,-38107.28795615291,-38088.490139066,-37951.85392521071,-37827.35470859465,-37908.424485734045,-37949.3058263428,-37821.655013758544,-37637.811915613645,-37641.388194726496,-37716.19948341841,-37605.67010708691,-37443.28468361911,-37393.41794173932,-37425.93972992179,-37318.29372862503,-37128.77328738848,-36961.26931444041,-36989.678381643105,-36852.52807766534,-36707.35349742812,-36626.507237733276,-36700.3126979247,-36677.469215091376,-36579.94855403287,-36397.06658089955,-36353.368920489425,-36244.6053319699,-36034.52128583447,-35823.453762943005,-35847.52659172137,-35940.24162772198,-35910.96084248553,-35856.735510436956,-35941.09099401128,-36000.256061584485,-35912.57016808631,-35867.82197568679,-35913.68775530908,-36040.42214637067,-35993.84111092581,-35970.394130992194,-35883.19997587204,-36037.42701261366,-35997.01505863846,-35835.34489099323,-35701.41323821703,-35839.524667206366,-35869.163080354105,-35787.91448925906,-35728.45884900795,-35942.40974693415,-36028.30750087589,-35958.61476166425,-35872.7170077225,-35952.1327557722,-36035.16948642367,-35979.82656715233,-35910.64791806316,-35940.35338644426,-36045.09366096183,-36004.3464308198,-35926.67411883761,-35867.6655134756,-35938.56524688783,-35925.26595893693,-35873.1193391227,-35807.20404472399,-35918.56043560034,-35864.44686227404,-35778.10207344319,-35726.424840262516,-35853.025120857375,-35840.95517885151,-35748.41895680654,-35667.08095873368,-35755.50445979887,-35794.68706782902,-35775.59867806419,-35719.94283437048,-35838.205914283506,-35895.180510900085,-35809.70744010299,-35683.86711881961,-35684.38120894208,-35754.386872576106,-35666.74568256685,-35529.751840800265,-35485.00364840074,-35591.219138052365,-35530.109468711555,-35460.52848822218,-35375.681266269836,-35425.14567674943,-35375.83772848103,-35270.58336384098,-35143.178420445736,-35318.6843179088,-35401.34106890453,-35380.88922272792,-35361.08557714052,-35470.98910462727,-35532.81402979064,-35523.89568375298,-35446.15631653742,-35459.45560448833,-35523.806276775154,-35383.34791461801,-35307.21787300323,-35330.15076281437,-35359.76682421766,-35208.98195612216,-35033.207837725626,-34855.33265535029,-34873.2811061479,-34807.92460536058,-34810.94209086205,-34868.67664679011,-35192.642830925324,-35384.66666754087,-35578.7468646463,-35748.84363995119,-36075.00029504303,-36299.747085541145,-36447.02272975716,-36626.95427262238,-37007.1350940627,-37313.66691752278,-37458.416814615346,-37554.86459194,-37785.869870885595,-38071.927496424614,-38300.831711391416,-38497.50471085367,-38704.16894008743,-38853.188020370966,-38560.35781626199,-38202.461684043614,-38014.751734107944,-38025.61468191322,-37952.34566358873,-37888.93376456902,-37890.20781400297,-38099.37543861574,-38247.00871074304,-38316.410877276765,-38337.332110086936,-38484.71951302523,-38583.78244445115,-38594.511281789695,-38540.15183927439,-38655.79976508615,-38781.81890032517,-38810.1609122945,-38793.66532488648,-38886.737988798384,-39076.459595735025,-39157.19409670759,-39189.40296046769,-39135.02116620793,-39099.90657566865,-38762.05995822668,-38219.80663774093,-38128.58916861882,-38056.81771717283,-37946.93654143054,-37924.853017908696,-37988.98017275098,-37878.67431386403,-37709.09162868162,-37697.24520412031,-37764.76982411979,-37783.075902828685,-37658.26376179025,-37602.719676818815,-37618.74587759327,-37519.21355953378,-37230.31726244894,-37077.67719956365,-37043.1437543802,-37015.5840534668,-36788.37857107861,-36695.663535078,-36668.103834164605,-36626.417830755454,-36425.90033124689,-36232.53538996403,-36113.24412980606,-36014.00238442449,-35827.924111834065,-35638.22485664187,-35550.53896314371,-35510.059953935146,-35442.60238916903,-35306.77083811413,-35295.39380018637,-35327.647367435384,-35324.54047495609,-35266.78356728358,-35229.83613369896,-35229.567912765495,-35196.62144143837,-35088.32723955241,-35087.433169774195,-35081.55466098245,-35084.23687031709,-34920.778563115426,-34810.3162420173,-34744.24448540741,-34679.42442648702,-34543.99520683232,-34445.468717273325,-34467.44048207289,-34614.2690913998,-34685.034714345304,-34683.3359817667,-34711.76740071385,-34772.564145632285,-34795.45233195452,-34672.71890315043,-34578.863928182596,-34453.515345277236,-34248.57220036652,-33960.34645561534,-33654.95457112248,-33354.100090754044,-33693.66779251907,-36364.05305433906,-39008.934975735545,-40427.35432712488,-41136.64223392514,-42671.40241520434,-43775.779756996606,-44091.02876079426,-43933.560721106616,-44944.9101024759,-45801.89833663683,-45852.078002938986,-45331.50587457489,-45896.066236027036,-46854.08435512595,-46934.66239388733,-46303.18090953599,-46445.58387346076,-47341.41943948501,-47269.67033978347,-45790.49894696462,-44471.723672357046,-44264.90298091209,-43405.83603451682,-42018.50795966482,-40833.73139306682,-41161.69853945953,-41036.17114259853,-40303.90564249821,-39478.90275465283,-40040.44563060351,-40374.693617188175,-39997.4408742715,-39191.92870759114,-39508.18353988928,-39902.13303591407,-39662.18705918635,-38921.24908223737,-39183.52445167595,-39923.81422803572,-39987.24847879988,-39530.62469132241,-39689.076207766084,-40425.07444919043,-40494.297801768524,-40024.866464718165,-39880.69771298143,-40534.709755743716,-40605.47537868922,-40184.61438234024,-39824.37131695406,-40400.17460586722,-40506.323040285475,-40150.818544723814,-39654.16278292689,-40145.18590512108,-40425.61089105736,-40129.89731191365,-39462.496574222634,-39769.475432571824,-40120.68839319806,-39928.597501349155,-39254.24537113254,-39289.136444227275,-39590.63912518491,-39183.144472020205,-38303.60332770387,-38002.01123976842,-38301.41285674726,-37940.83451519424,-37016.07579184482,-36267.69468399223,-36508.422971775886,-36417.4960753317,-35917.196979188564,-35315.37625972942,-35454.5158689637,-35415.91440628939,-34897.018658759436,-34066.897221433785,-33932.116202368285,-33976.01502847851,-33718.76880154238,-33099.7595905971,-33034.22427585415,-33228.57269389304,-33116.38928847185,-32649.237829355938,-32617.45364874049,-33109.2143785017,-33365.54418391516,-33335.90577076742,-33669.32674280724,-34716.81889496075,-35455.43229048637,-35702.19554927296,-35956.290180240896,-36894.169377585575,-37372.65317114034,-37328.12849618537,-37129.64500542224,-37815.35182182215,-38164.24020102504,-37992.467044886,-37504.70727738229,-37930.79858193381,-38325.12805761433,-38201.902890432226,-37690.249108105796,-37950.445765310025,-38359.125060930855,-38252.82016430142,-37669.79726192919,-37724.08964921113,-38242.56071359643,-38218.063201673416,-37744.94382678793,-37685.17526211444,-38293.05330432097,-38386.64005835534,-38018.50682717643,-37695.59117503061,-38282.436225704696,-38460.51257378013,-38167.302390015415,-37731.24220743683,-38183.28388730096,-38304.9891358601,-38004.8722630587,-37452.65006454588,-37819.86687420212,-38107.46677010856,-37882.38470344361,-37237.358061952364,-37407.812465168536,-37794.542347734256,-37596.23767092677,-36958.94473301706,-36953.960294003526,-37406.828988412504,-37270.39394025731,-36664.21463062938,-36508.17710258688,-37056.06306267537,-36996.20509102406,-36481.578526685065,-36161.12156642933,-36722.977366802384,-36806.25996664286,-36380.705103958266,-35863.508089006915,-36327.642062621366,-36535.78150698919,-36204.21572973916,-35658.07320571819,-36104.19167330166,-36436.83033428554,-36227.84152362842,-35656.977970239874,-35879.24371710345,-36272.545012539034,-36204.14867450579,-35666.3209994222,-35673.495909392346,-36164.943714731184,-36121.827199676896,-35652.35115913763,-35482.67906697739,-36008.72737273305,-36008.23563435503,-35550.315445699154,-35159.98693227612,-35641.0635281877,-35694.84182534717,-35345.551114744085,-34937.9447028571,-35419.088354002044,-35616.43190579795,-35348.25567582317,-34765.03160775085,-35181.62342090886,-35581.987867592325,-35392.109798444486,-34795.05000055433,-35021.517875375495,-35450.53725845066,-35308.06723929253,-34738.54479057131,-34766.99856126292,-35291.303430951055,-35227.48920053115,-34690.4885399924,-34535.21097126138,-35079.76652142603,-35074.75973066804,-34598.2652423698,-34200.18067362078,-34708.258176834366,-34793.485378442456,-34408.25306275524,-33912.536074225434,-34357.82752726407,-34554.85815463759,-34295.35440151148,-33762.801738119335,-34160.439271979245,-34557.42860524996,-34427.073231586604,-33939.42522280517,-34154.06902480948,-34617.420687368,-34432.41529851143,-33631.77581212232,-33432.93469344791,-33864.256306201976,-33819.284596357895,-33382.57621319011,-33263.62022919896,-33888.17267276915,-34021.83610461189,-33638.88366685911,-33341.15843071442,-33937.45826929311,-34135.964111800684,-33875.208660985074,-33506.47193270587,-33993.73996183157,-34319.53898901212,-34185.49557751365,-33761.684150896566,-34242.76074680814,-34670.72959789391,-34574.728855458365,-34201.81235096602,-34526.270273479255,-35096.64208848978,-35105.85100720537,-34738.5000870824,-34869.4813095905,-35487.887023435476,-35475.95119189635,-35051.40215771224,-34973.46162479659,-35636.95080720792,-35849.69471093353,-35693.0760375352,-35576.91402160097,-36213.26818624356,-36451.49307864822,-36283.89969872233,-36054.61550409979,-36638.46542101687,-36973.18279423509,-36804.069495686235,-36333.05118477955,-36682.38659887154,-37078.43715887513,-36999.7813701369,-36587.65990586995,-36808.20456841047,-37321.02064144858,-37379.135177032374,-37032.727841464024,-37126.40400247622,-37721.56390208768,-37845.16904892553,-37597.01998198271,-37623.99853754026,-38326.692679726206,-38629.93879675136,-38533.53572291562,-38436.70796593523,-39052.9679123125,-39215.50979799149,-38999.68135353105,-38630.05055547364,-39069.28468576488,-39332.16355230374,-39206.211472298084,-38893.35410515715,-39333.035270337496,-39714.80306563414,-39602.686715446325,-39176.39424519471,-39386.83591924142,-39822.06908727516,-39749.31415907314,-39315.5785579179,-39339.1372965738,-39849.874657377564,-39932.41964965101,-39675.28518143716,-39554.67516835632,-39968.920048346525,-40065.01019775989,-39873.70161696692,-39643.6574630329,-40117.55914897432,-40244.67351969165,-40054.95191275501,-39751.39287130748,-40176.81362352534,-40454.3999379158,-40275.07189215087,-39851.68514867844,-40102.13644530016,-40384.953067893155,-40287.365351601286,-39945.60717887964,-40120.06254435331,-40551.74178501866,-40489.000438332616,-40118.72143968599,-40078.55535489981,-40470.470842179166,-40484.84301386392,-40164.4307570971,-39999.45253127248,-40393.26791683053,-40396.86654768784,-40077.50482291041,-39739.52409500171,-40033.29307237781,-40083.651552635616,-39818.60456688459,-39423.224559214665,-39711.53971094367,-39779.600772810074,-39481.76377794311,-39009.6055280692,-39102.611136747735,-38664.74046286827,-37488.25639346318,-36602.523815932735,-36349.39030997638,-35874.30398157883,-34543.21289577638,-33306.04384017514,-32710.638071374666,-32599.5946049207,-32252.51671701869,-31738.493649779997,-31431.78301236427,-31761.806519246882,-32039.10226095942,-32340.87316285052,-32569.665619095045,-33176.85075722346,-33423.390498565495,-33329.75904104221,-33104.27464297708,-33499.72170588037,-33762.511165441414,-33620.97991955041,-33256.57942969554,-33397.0824953416,-33496.726572123356,-33165.339608828974,-32565.865822537642,-32486.494777976848,-32646.019178154373,-32376.591250490103,-31863.171680351697,-31624.700918758026,-31785.58877534733,-31628.3666048487,-31232.98659717877,-31036.447708183256,-31600.225758579465,-31717.8853413922,-31336.184601328925,-30963.692779981233,-31200.84478865204,-31192.775808903672,-30963.826890447963,-30601.885092483175,-30742.298751151415,-30709.106410635282,-30393.700944626446,-30029.143992560388,-30072.841652970514,-30273.31444899016,-30373.9196507835,-30274.00735306828,-30243.56427712015,-30222.263064654242,-29826.70424302867,-28921.123316421905,-27891.91489123284,-27407.306719697324,-27319.777288410343,-27276.705476844967,-27223.351862830146,-27676.75699910605,-28063.241012482766,-28254.862517698115,-28384.52498728335,-28865.42276923928,-29276.583108494655,-29510.628224686174,-29510.60587294172,-29859.38249342233,-30152.12329055349,-30117.500438392217,-29837.209562922668,-29720.712270821605,-29699.25459614451,-29439.01323545137,-28855.47624295667,-28317.35799519515,-27840.70704468573,-27300.443029456503,-26753.607601357413,-26337.97691321098,-26204.671109279527,-26056.434340051932,-25832.469860609755,-25664.340038816936,-25747.66734214632,-25657.634515480342,-25289.90361570163,-24901.966738935324,-25110.553218192246,-25157.13425363711,-25150.11580587814,-25029.349330586116,-25360.378665969216,-26142.957942838424,-26839.997093677175,-27574.207195545103,-28263.020904424302,-29275.39846603852,-30691.582642982325,-31982.932327143233,-33300.67942150586,-34865.30153337736,-36520.42585854839,-38267.10292900836,-39809.84268305811,-41295.16080560217,-42047.22995128989,-42447.996729373546,-42772.67816933134,-43061.19448676044,-43385.78651974041,-43757.36191956543,-44136.76042994981,-44464.74992808699,-44752.8639141159,-45069.31991211414,-45351.108354462194,-45513.04674304089,-45663.07165182491,-45905.833948354004,-46169.71864339336,-46351.8406572152,-46462.63825448016,-46569.52429646544,-46751.51219982054,-46884.818003752,-46945.41358297034,-47065.017767550686,-47239.428429535445,-47401.50092858088,-47424.29970792529,-47500.38504605115,-47651.259321124475,-47817.33278242741,-47868.540628974515,-47919.25673714361,-48019.07962788101,-48161.84021971706,-48166.355272097026,-48163.829524973575,-48200.039350991174,-48308.46766334387,-48315.128483191555,-48259.182066819914,-48270.98378789232,-48339.49188464783,-48298.45408182789,-48231.242386250786,-48241.21126427785,-48257.70685168587,-48247.62621493652,-48151.15608586742,-48116.28736451714,-48151.84898994553,-48122.322335520075,-48005.17684282981,-47929.04680121503,-47914.58522255245,-47925.29170814654,-47891.42881529675,-47847.082954297424,-47790.08600593639,-47815.74580857108,-47757.7206799651,-47694.174670478664,-47703.070664771876,-47699.784958336946,-47575.39750044316,-47457.469696696964,-47384.71476849494,-47385.63119001761,-47253.420621564466,-47036.51929337017,-46983.94799041128,-46982.62923748842,-46920.67020185831,-46746.10307766236,-46626.56594831538,-46576.00630235748,-46570.91010462167,-46503.854871255746,-46424.707344139504,-46356.37806133963,-46355.79691598379,-46204.38619904354,-46120.50010210277,-46067.07943285459,-46072.95794164633,-45956.90768443438,-45795.77395865607,-45680.34955028886,-45735.84893177139,-45699.79556796498,-45606.633497075265,-45596.19523241463,-45611.48382562206,-45518.679382643626,-45367.06750000328,-45377.48341291946,-45392.347322982234,-45340.31246189028,-45239.70726009694,-45182.30798033571,-45171.04270113024,-45150.8590758871,-44995.268582733705,-44888.4942994707,-44907.046247368606,-44926.51461678918,-44767.928989878776,-44636.299566781476,-44648.97300588763,-44687.1497854173,-44569.62431307129,-44440.87826500872,-44375.14178456566,-44386.2282498155,-44271.228524592945,-44123.79641816574,-44015.16694011295,-43960.71809061982,-43886.06326413909,-43812.72719058123,-43788.76612052514,-43740.03931761257,-43630.51576978157,-43455.68042465215,-43355.58931298129,-43349.68845244509,-43347.27446404391,-43200.624668672644,-43066.3130362407,-43035.89231203703,-43003.057599432184,-42892.34940914505,-42775.092157732506,-42721.64913673987,-42707.701648199756,-42601.41910331477,-42484.49712806906,-42410.222281244074,-42421.19698777163,-42350.07373691485,-42167.34822599271,-42087.35133258717,-42128.702059829484,-42091.57581228922,-41926.530531231234,-41859.09531820957,-41851.76394602823,-41803.55123323813,-41635.644928889866,-41557.16795410728,-41581.55370730802,-41489.1962992187,-41295.965468402566,-41235.481647906505,-41189.07942641729,-41163.263161571405,-40984.24804022885,-40799.91320370593,-40727.225330737274,-40767.570229479104,-40678.2526586357,-40502.94792687272,-40436.540894096004,-40478.60687716089,-40443.0452517325,-40365.730567661594,-40350.151401776246,-40367.16107930674,-40283.56555504388,-40099.253070265426,-40020.306708849275,-40076.521346154375,-40114.25109079493,-40048.73812779643,-40029.0015374424,-39994.445740514486,-39992.45643525797,-39918.673326811,-39902.49066382535,-39978.30778101776,-40065.323122182264,-40013.02004015685,-39941.807382322244,-39894.667553266,-39962.03571105429,-39962.05806279875,-39938.946359031965,-40090.222965505476,-40259.69389196562,-40300.53052908547,-40315.59560484834,-40453.751737326595,-40638.243036060696,-40794.57113678112,-40863.72743412584,-41063.48497432291,-41307.29780284141,-41478.10983396886,-41567.695625745735,-41731.288043414126,-41967.97066545137,-42179.954609865505,-42299.11175955674,-42472.78481397448,-42730.81335196654,-42939.84686611257,-42976.280209574725,-43053.79605934573,-43202.47986346243,-43327.00143182295,-43323.58161492129,-43328.16372253463,-43443.252854735,-43586.035798315505,-43572.58004815341,-43527.98831796507,-43625.10664762338,-43681.03071225056,-43652.21931364767,-43608.78987417101,-43644.887941466324,-43707.539881174554,-43724.03546858257,-43640.551703042,-43582.97360932513,-43595.20001354218,-43633.376793071846,-43545.80265829595,-43508.69876250014,-43507.380009577275,-43539.16419019273,-43495.578288504876,-43428.16542722767,-43453.489953695534,-43451.79122111693,-43341.06067908534,-43236.78979120133,-43206.905508864584,-43295.30665818533,-43265.24356189294,-43125.36634509163,-43031.26550093478,-43084.306190527226,-43086.273144039296,-42974.98380839632,-42921.45138042586,-42963.852639657576,-42938.751630634266,-42762.17284943734,-42683.20413627674,-42720.419790794826,-42675.20221176174,-42546.9926055661,-42406.37778119776,-42334.51692277395,-42317.75311443247,-42205.10032237772,-42093.118082656634,-41974.60913355459,-41881.38000743151,-41765.821488597576,-41695.547604030085,-41647.64781566236,-41629.25232997565,-41527.551892704,-41409.10999883533,-41370.62029488329,-41373.59307689584,-41306.783712718934,-41204.233909157985,-41192.9239264636,-41212.97344124001,-41176.58480126677,-41051.41503231705,-40985.03035128479,-40976.42492966949,-41023.8329796592,-40881.09473956761,-40763.792784666155,-40753.309816516616,-40766.251476556245,-40684.1535191719,-40675.45869057879,-40690.72493204176,-40712.65199335242,-40593.31602970553,-40495.59420294693,-40444.11813546636,-40406.5895565259,-40321.138837473256,-40225.13809503771,-40177.551231092366,-40209.31305996336,-40145.83410571028,-39954.01143479484,-39835.03309905924,-39831.412116457475,-39867.73370119735,-39695.28999272466,-39603.26786080216,-39593.16487230836,-39575.97638082223,-39413.45684688769,-39316.51733118502,-39275.34541789835,-39256.05586243342,-39201.42819898465,-39113.76465723094,-39040.07095576179,-39032.91839753609,-38939.39869873509,-38803.56714768019,-38719.74810597278,-38743.910341728966,-38735.14845790249,-38683.94061135538,-38656.76089009773,-38605.50834006171,-38530.85351358098,-38394.32905844797,-38309.43713300671,-38278.01058030255,-38197.09726537434,-38014.14823700765,-37912.8501311362,-37907.03867757782,-37912.40309624709,-37780.773673149786,-37658.35316876807,-37598.83047328359,-37606.96650826532,-37423.10105837596,-37192.58751780838,-37077.81131003038,-37153.181392333674,-37050.34101609481,-36957.46951788301,-36932.144991415145,-36910.64261324914,-36802.594280552185,-36700.3126979247,-36715.89186381005,-36729.99581456135,-36719.71401211191,-36688.19805242992,-36659.58781952713,-36643.09223211911,-36628.0942115896,-36506.947756641835,-36455.717558350276,-36447.62622685745,-36403.92856644733,-36264.14075662384,-36178.868851526844,-36179.11472071585,-36221.98536658113,-36116.373374029805,-36060.27049544698,-36158.662874539245,-36559.8319840231,-37049.62576027224,-37474.353608411984,-38043.138449566184,-38796.124016776565,-39370.76501497805,-39632.392183827425,-39926.11645771461,-40313.092209469345,-40675.48104232324,-40952.50856310232,-41316.66318376818,-41790.497814476235,-42253.96123575702,-42594.91474567828,-43012.154759425495,-43460.821325876874,-43947.35174743554,-44227.32969848272,-44446.46620112255,-44825.41767661783,-45294.424330523536,-45687.32329455892,-46045.19707503284,-46460.93952190156,-46947.5817021825,-47393.05196917677,-47710.44674044213,-48035.0387734221,-48527.93944215053,-49080.87689648592,-49642.33036545877,-50331.233481315794,-50997.38252131731,-51518.155815381506,-51890.155898351186,-52320.73990353822,-52740.21509173097,-53167.51339048307,-53398.026931050656,-53695.5733532397,-54037.197415494615,-54384.74469003019,-54557.188398502876,-54724.29004005076,-54902.56755382628,-55092.04329157392,-55223.33743850439,-55350.451809221726,-55503.78477618513,-55689.080737719625,-55800.25831464033,-55882.62449295813,-55986.18012501957,-56131.041780834414,-56201.092147957344,-56219.37587492179,-56341.9975450036,-56529.34986702799,-56648.46231323032,-56624.3671327075,-56711.67304654993,-56898.17600228501,-57021.57998342276,-56974.12722994414,-57049.22909131397,-57153.768200131446,-57212.66504677118,-57156.740982144,-57133.56222314385,-57174.108287585776,-57276.94866382464,-57242.79519829693,-57247.33260242136,-57245.92444252068,-57287.18576278517,-57291.45494597613,-57231.082884202355,-57248.42783789967,-57313.60552473134,-57343.22158613463,-57325.943687670675,-57356.61028106335,-57438.37296228087,-57516.89464055236,-57434.28259304555,-57461.19409336974,-57509.742082326666,-57562.46984749674,-57500.37670139989,-57498.78972754356,-57586.7438419752,-57725.59287853156,-57736.925212970404,-57780.75698384726,-57843.766551466775,-57976.82648620922,-57996.943056218995,-57975.954768175456,-58010.62232382564,-58086.86412416269,-58102.95738017051,-58082.61729271618,-58140.93299400008,-58230.76465496596,-58307.63230414776,-58265.27574840495,-58264.78401002694,-58402.537811104994,-58494.85051570541,-58422.117939247844,-58397.50866860255,-58478.131410852846,-58536.02242899209,-58456.22670128664,-58454.93030010824,-58496.54924828401,-58538.43641739326,-58397.91100000274,-58328.59824044684,-58326.5195282125,-58387.96447372013,-58331.951002115136,-58225.33318106332,-58228.35066656479,-58326.139548556755,-58272.47301011956,-58200.27687552892,-58220.05816937187,-58255.64214654471,-58204.43429999761,-58051.5036644344,-58025.21801295495,-58103.44911854853,-58159.395534920164,-58021.597030353194,-58010.845841270195,-58039.94781255101,-58037.824396827746,-57944.483511982384,-57943.54473871527,-57947.61275620613,-58000.698149287484,-57929.66430540852,-57832.38951353902,-57832.12129260556,-57911.447633677446,-57869.158133168,-57753.085524211594,-57720.56373602912,-57755.588919590584,-57671.23343601626,-57586.60973150846,-57640.61154611249,-57712.07007313611,-57729.43737857788,-57654.514331163686,-57599.283170614624,-57648.03232527165,-57726.48694830978,-57649.485188661245,-57647.115903748985,-57669.86997960448,-57655.58721489754,-57517.90046905285,-57441.81513092699,-57436.249546557614,-57464.07746840447,-57394.78706059302,-57343.7356762571,-57314.20902183164,-57395.301150715495,-57412.26612475707,-57428.24762204262,-57478.829619744974,-57572.68459471281,-57563.34156553049,-57498.208582187726,-57515.06179750703,-57563.60978646395,-57568.61657722195,-57494.45348911924,-57515.28531495158,-57576.283225570114,-57609.60967655297,-57540.40867571934,-57568.77303943313,-57662.896235334425,-57772.33037618761,-57755.05247772366,-57785.83082983862,-57936.97332584541,-58135.30035439735,-58234.47504454554,-58376.09569741436,-58591.76767966362,-58873.869046434054,-59103.175592801046,-59323.13910998573,-59487.6926526657,-59716.01572227666,-59939.26494589626,-60093.89431403808,-60326.48656684,-60647.03293407356,-60945.74164697429,-61135.351495188654,-61467.990156172535,-61896.02606249167,-62610.790146683474,-63679.00236594705,-65053.433484248344,-66708.87073384174,-68547.63699145759,-70689.11292423164,-72719.99242544084,-74448.1175480029,-75885.08884729014,-77293.91930030815,-78593.13679851733,-79654.41997699976,-80495.94080399761,-81396.82786426877,-82277.84422371915,-82989.45671194277,-83453.38951985711,-83886.34280995642,-84337.98215842035,-84724.17559911915,-85081.95997261525,-85511.06876266823,-85990.26781204555,-86337.23394122529,-86580.39856915457,-86805.23476663051,-87120.99786055063,-87343.12949694747,-87533.70047017343,-87653.57287568723,-87869.13309921422,-88070.65642722326,-88248.57631308751,-88362.68196853185,-88598.40346555752,-88813.62841291766,-88996.26451686198,-89102.72587570261,-89248.10162163993,-89323.02466905412,-89373.09257663401,-89345.80109665408,-89356.82050667054,-89453.53650492865,-89465.1147085565,-89392.42683558784,-89392.6503530324,-89521.35169760606,-89646.3650043446,-89689.23565020987,-89717.24238601237,-89802.73780855392,-89734.85556064315,-89612.59151847262,-89520.97171795032,-89548.03968048569,-89507.69478174386,-89469.13802255846,-89423.31694642508,-89440.75130710022,-89435.34218494204,-89441.01952803368,-89414.71152480978,-89449.75906011571,-89487.01941812271,-89477.40816800692,-89440.8630658225,-89457.53746718615,-89548.73258456381,-89576.31463722166,-89539.05427921466,-89565.36228243855,-89642.72166999837,-89669.87903951158,-89671.8683447681,-89681.70311232843,-89729.26762452933,-89714.69428714446,-89643.4145740765,-89564.02117777124,-89567.642160373,-89634.29506233873,-89716.66124065653,-89687.40280716453,-89567.77627083973,-89439.67842336636,-89341.97894835222,-89313.45812242724,-89222.84415040544,-89060.79400310446,-88962.53573447892,-88889.06555045432,-88733.49740904539,-88562.61832268458,-88438.16380955742,-88351.17082013737,-88287.87067983994,-88153.2014194967,-88109.14613117531,-88097.32205835845,-88215.2722138491,-88391.44866364583,-88504.66024931196,-88576.18583156895,-88598.1128928796,-88669.45966118094,-88733.56446427877,-88760.65477855859,-88766.93561875053,-88777.26212468889,-88816.80236063032,-88799.27859297737,-88725.11550487466,-88657.85910580863,-88663.24587622237,-88639.73184105539,-88452.44657426437,-88428.70902165283,-88616.8660064776,-88599.56575626919,-88403.0715707626,-88244.55299908556,-88338.18445660883,-88320.30306104459,-88163.59498066844,-87979.64012380125,-87905.63349790973,-87716.94007121802,-87480.99505674781,-87225.20169320128,-87164.069672116,-87094.77926430455,-86954.4773643586,-86838.29299667991,-87022.42666750273,-87189.68477126179,-87193.2834021191,-87003.07005680443,-87054.25555160709,-87228.50975138065,-87220.2843094211,-87057.07187140845,-87075.44500535072,-87269.83812687852,-87243.23955097671,-87038.16229559926,-86925.24128261105,-87226.87807403543,-87313.71460124428,-87219.30083266507,-87120.70728787272,-87360.04976750014,-87482.17969920395,-87463.85126875059,-87340.2684736572,-87575.18530788246,-87778.04974055884,-87770.74072012195,-87607.5282821093,-87814.25956657644,-88104.38520960632,-88200.83298693097,-88041.86738036483,-88187.28782979105,-88546.16743876546,-88749.41185109757,-88764.700444305,-88991.503595293,-89588.87631760554,-90010.1396453547,-90215.4404181767,-90349.14855350835,-90537.10437263302,-90677.07099641216,-90772.46824174741,-90897.07921708575,-91044.55602700186,-91213.33404938389,-91368.41045241481,-91474.80475602207,-91669.26493278325,-91876.19738295047,-91972.98043644195,-91973.44982307551,-92092.36110357776,-92219.18490161716,-92292.27510598602,-92293.01271355305,-92351.90956019278,-92462.01425337962,-92483.4272245678,-92495.7877392516,-92561.23364701672,-92602.62907774796,-92626.72425827078,-92617.26947036618,-92574.37647275646,-92622.34331635754,-92657.03322375218,-92640.58233983307,-92610.51924354068,-92638.28011015417,-92576.94692336881,-92485.26006761314,-92435.88506411137,-92380.60920007339,-92386.77828154305,-92375.6024093154,-92288.29649547297,-92254.97004449011,-92232.79711399044,-92191.53579372595,-92183.04213083294,-92186.64076169024,-92177.14127029674,-92085.36500756325,-91931.78617141083,-91866.8320020237,-91857.89130424158,-91773.69228287844,-91681.33487478911,-91615.03960073467,-91569.2185246013,-91488.50637537318,-91324.46692281567,-91210.29421213797,-91226.96861350162,-91151.35266200932,-90973.05279648934,-90726.37894468057,-90645.53268498572,-90599.21987047434,-90445.79749653311,-90244.2518167796,-90176.57073456893,-90178.35887412535,-90118.99264085206,-89966.86666808923,-89976.25440076046,-90062.77800354696,-90080.74880608903,-90012.95596515608,-90014.00649714548,-90120.4231524972,-90189.64650507529,-90166.26658037503,-90130.21321656862,-90285.28961959954,-90312.20111992373,-90177.15187992477,-90041.34268061433,-90273.08556712694,-90602.8408530761,-90848.12889672862,-90991.67179962061,-91573.42065255888,-92132.97422325304,-92338.85614143088,-92173.94497083963,-92301.55107993497,-92650.97590100479,-92737.20893111336,-92482.1755268783,-92491.60796303845,-92730.0340211432,-92796.9998475313,-92607.23353710576,-92548.090821277,-92891.14539517707,-92951.76332613986,-92765.52859133824,-92623.93029021386,-92890.85482249914,-92976.26083806287,-92766.69088204991,-92435.88506411137,-92609.64752550692,-92684.43646245438,-92545.96740555375,-92243.88357924028,-92407.23012771967,-92582.46780424927,-92576.03050184614,-92400.8598805499,-92651.55704636063,-92999.61841101866,-93027.5580915878,-92800.3526091996,-92932.16084625255,-93330.49128419058,-93393.67966576573,-93179.57230562835,-93105.45392101454,-93434.06926799647,-93461.71837588768,-93212.67523916665,-92972.21517231646,-93252.77426871947,-93427.96724176017,-93317.95195555115,-93122.41889505612,-93378.2346103471,-93556.9368072673,-93484.47245174319,-93220.63246019275,-93397.25594487858,-93636.73253497273,-93583.37892095793,-93332.99467956957,-93421.46288412367,-93669.07550919957,-93677.05508197012,-93353.20065655716,-93269.7168910166,-93490.59682972395,-93449.24610248163,-93153.487819849,-92971.20934381596,-93186.03195977592,-93201.61112566128,-93005.13929189913,-92750.97760569783,-92868.3689675771,-92889.37960736509,-92691.00787532424,-92392.14270021232,-92523.99564075419,-92574.30941752308,-92399.00468576011,-92016.45457940752,-91976.44495683254,-92023.51773065541,-91861.86991475463,-91481.33146540303,-91448.40734582035,-91541.27884403216,-91388.14704276885,-91021.26550927943,-90870.45828943948,-91011.0284103189,-90938.04996467233,-90690.95142971892,-90551.14126815097,-90745.15441002302,-90794.55176526925,-90637.12842907054,-90454.55938035958,-90631.89812086799,-90729.41878192649,-90697.38873212204,-90607.84764383407,-90888.87612687066,-91137.74044963604,-91232.75771531556,-91209.75777027104,-91497.13414873292,-91830.55512077274,-91983.28459063586,-92034.71595462752,-92372.76373776958,-92870.76060423382,-93161.06506121934,-93258.67512925567,-93507.0700653875,-94016.51102501286,-94324.45100837362,-94454.4487541257,-94574.74584278415,-94996.34444670015,-95311.50404351999,-95395.25602999402,-95401.2686492525,-95642.24280622517,-95814.4182937644,-95861.40166060945,-95769.26776996467,-95933.70955392237,-96035.67821212747,-95966.34310082711,-95755.40968840239,-95834.31134632962,-96019.22732820838,-96054.18545653648,-95867.16841067892,-95818.64277346645,-95953.66966172095,-95966.2983973382,-95821.99553513475,-95748.1453714544,-95946.22653081734,-95960.86692343556,-95753.62154884596,-95578.22741010516,-95715.06478966055,-95704.49241453319,-95496.77765331003,-95237.38565890619,-95301.13283409273,-95316.75670346698,-95113.84756730171,-94740.70754536481,-94735.63369937346,-94785.5674964866,-94645.75733491867,-94346.48982840656,-94263.54250473292,-94274.15958334919,-94153.81779120181,-93855.13143004554,-93759.7341847103,-93851.30928174368,-93736.39896349896,-93382.50379353808,-93152.99608147098,-93248.7062512286,-93125.77165672442,-92833.54494971574,-92626.5677960596,-92800.01733303277,-92759.13599242401,-92503.20851841076,-92125.10640920477,-92202.93518339815,-92210.84770093534,-91981.54115456835,-91600.89094649446,-91683.1900695789,-91771.03242528826,-91596.80057725914,-91235.55168337247,-91207.00850570304,-91332.04416418602,-91129.15737976521,-90663.68230148344,-90567.25687590324,-90787.19804134346,-90730.58107263818,-90382.09502483548,-90168.09942342037,-90415.64499326289,-90482.40965395089,-90260.97092163216,-90007.23391857553,-90250.66676743828,-90318.6160705824,-90086.73907360305,-89777.41328208605,-90005.15520634118,-90142.05964112993,-89948.35942368025,-89597.43703573193,-89696.70113285794,-89802.31312540927,-89704.27837422829,-89393.87969897744,-89408.96712648477,-89587.98224782733,-89479.64334245246,-89128.07275391492,-89073.55684918843,-89333.90996860385,-89384.33550409503,-89184.17563249775,-89058.78234610347,-89304.20450022275,-89259.88099096788,-88945.90603660418,-88733.00567066738,-89034.62011034728,-89181.35931269638,-89003.23826113204,-88673.3265129717,-88851.17934360259,-88985.22275510106,-88801.40200870062,-88420.34946922654,-88491.94210671689,-88660.25074246536,-88572.63190420055,-88226.98452794368,-88224.92816745379,-88445.11520208302,-88437.80618164614,-88167.81946037048,-88116.52220684555,-88332.46241002827,-88277.23124947921,-87961.75872823701,-87725.59019632223,-87870.20598294807,-87764.39282469664,-87449.27793136572,-87114.58290989196,-87186.82374797152,-87152.60322721043,-86900.60966022131,-86543.36172859214,-86619.08943880671,-86634.64625294761,-86456.74871882782,-86105.60281343495,-86108.53089195858,-86122.65719445434,-85941.13867773279,-85566.54579240631,-85432.36827044109,-85531.63236756712,-85450.920218339,-85147.38352863592,-84995.57048029549,-85096.9356414003,-85036.78709707106,-84780.74786433553,-84554.0564720698,-84697.53231972842,-84721.11341012876,-84520.66296585357,-84267.0377215192,-84410.08888603318,-84500.70285805498,-84416.5261884363,-84254.25252369077,-84380.65163858554,-84496.38897137511,-84386.3736851661,-84026.95763432475,-83950.49231654314,-83947.67599674177,-83707.55120605842,-83278.88945089454,-83113.2183209918,-83113.73241111427,-82946.25078991066,-82594.63549788421,-82429.74667903742,-82562.44898586857,-82505.58614797427,-82331.51076215635,-82222.6130631701,-82386.16077734956,-82462.98372304246,-82342.91015182855,-82196.26035645728,-82482.94383084105,-82711.08808649637,-82722.3757174463,-82627.73843142253,-82911.8738069384,-83270.77576765725,-83392.77158889432,-83247.9546365684,-83414.31867054924,-83697.73879024254,-83733.07689822637,-83563.80713746633,-83615.50672239145,-83814.34784106587,-83736.25084593902,-83488.43705516304,-83322.60946304911,-83475.42833989004,-83426.7909439553,-83158.52530700271,-82906.55409175804,-83074.68391355085,-83117.91218732741,-82941.86984799741,-82687.23877516255,-82855.34624521092,-82937.80183050655,-82803.66901203025,-82509.31888929832,-82544.18761064859,-82606.50427418998,-82466.29178122185,-82109.89321588198,-82004.7506099642,-81997.64275522743,-81845.96381735371,-81475.14837684017,-81321.23426452091,-81413.83754179926,-81329.37029950265,-81000.4196763539,-80717.15601887178,-80724.88972245333,-80563.57718271938,-80234.7383182929,-79917.65647144991,-79923.6690907084,-79811.50803703166,-79543.91295241272,-79175.62325902263,-79099.04618251875,-78979.77727410523,-78597.76360961958,-78125.78417370131,-78044.96026575092,-77993.75241920381,-77787.40111439241,-77369.69171401164,-77270.02528548543,-77387.28253689797,-77285.09036124831,-76935.39731924502,-76831.97579765032,-76986.20283439194,-76969.01434290581,-76752.44829087834,-76642.05302501358,-76794.7824948767,-76782.19846274835,-76594.73438200168,-76388.07015276792,-76621.5341236036,-76748.24616292074,-76653.5418216636,-76411.49478095709,-76607.16195191884,-76776.83404407908,-76670.97618233874,-76382.4822166541,-76490.19527318422,-76677.61465044197,-76635.36985342143,-76366.59012634637,-76410.82422862342,-76572.9190794133,-76541.49252670915,-76346.40650110322,-76314.30939606541,-76492.13987495183,-76505.9085495363,-76292.89642487722,-76150.00172257444,-76442.02726388304,-76563.24077406416,-76412.76883039104,-76225.37180487774,-76438.18276383672,-76539.0114830746,-76401.30238548547,-76099.01739347189,-76250.53986913442,-76393.54633015947,-76322.95952116961,-76096.60340507071,-76255.34549419231,-76444.50830751756,-76388.74070510158,-76102.97365224049,-76194.57110101833,-76445.51413601806,-76464.26724961607,-76235.85477302728,-76226.51174384497,-76565.52065199861,-76663.82362411304,-76496.20789244269,-76476.33719162193,-76906.09418226412,-77172.23640349346,-77161.61932487719,-77084.90813790658,-77423.47001117111,-77621.8193914675,-77588.89527188483,-77351.2068213471,-77580.73688515865,-77759.46143382328,-77734.56159050007,-77454.40482549726,-77584.0672950825,-77769.58677406154,-77713.46154373426,-77346.69176896712,-77374.22911813606,-77615.42679255329,-77549.3103324545,-77250.02047419793,-77250.17693640912,-77588.35883001791,-77664.51122337714,-77410.30483368694,-77241.19153513807,-77609.48122852818,-77762.32245711357,-77567.7058181412,-77336.11939383976,-77665.31588617753,-77814.62553913899,-77677.13995899439,-77357.51001328349,-77601.70282145773,-77880.33966783759,-77896.1423511675,-77640.39369110986,-77894.46597033335,-78230.0103580964,-78258.24061134346,-77964.78455838973,-78119.14570559809,-78558.22337367813,-78614.97445285016,-78173.34868590221,-77969.52312821426,-78305.67101307762,-78246.19302108206,-77753.56057328709,-77391.2164439221,-77712.1427908114,-77739.70249172479,-77427.09099377287,-77049.05593980027,-77388.04249620944,-77568.97986757515,-77309.02907955994,-76866.8445190006,-77094.38527755563,-77264.99614298299,-77097.447466546,-76708.39300255693,-76992.41661935051,-77430.89079033028,-77413.99287152206,-77003.2795671558,-77082.94118439451,-77553.87008832337,-77585.83308289446,-77175.3656477172,-77179.7689413749,-77811.07161177059,-78018.00406193783,-77773.4089223634,-77719.7423839262,-78446.37524442378,-78857.42382495687,-78935.67728229491,-79040.01522541228,-79856.97148525376,-80484.02732420294,-80727.28135911004,-80641.96475052414,-81259.94578122447,-81782.97660147866,-81810.5586541365,-81501.992821931,-81846.58966619846,-82299.77128502981,-82364.74780616138,-82119.16918983092,-82294.07159019371,-82775.036427383,-82856.41912894478,-82509.72122069851,-82386.00431513839,-82818.51057034858,-82947.9271707448,-82683.72955128308,-82533.16820063212,-83024.10191584849,-83185.07917941561,-82901.99433588915,-82555.25172415398,-82957.76193830514,-83169.81293795264,-83036.93181716584,-82653.66645499069,-82980.35955194946,-83292.63577373455,-83180.69823750237,-82784.35710482087,-83008.27688077414,-83385.19434752397,-83333.71828004341,-82837.66601534677,-82836.61548335737,-83289.95356439991,-83376.6783328865,-83241.40557544299,-83461.63731356112,-84182.45872050032,-84457.72045346742,-84272.7374163553,-84027.60583491395,-84423.0305460728,-84550.3013790013,-84307.56143421668,-83966.80908999551,-84299.00071609029,-84420.88477860509,-84150.7639468627,-83675.25293532049,-83883.23591747713,-84008.3833346824,-83720.49286609804,-83191.47177832983,-83235.90704630698,-83490.67222960856,-83390.9834493379,-82935.83487699449,-82861.44827144723,-83163.9791326498,-83090.84422479203,-82680.86852799279,-82512.73870619998,-82884.76114091411,-82926.62595827889,-82682.25433614902,-82448.43273740205,-82837.62131185786,-83020.34682278,-82855.61446614438,-82492.55508095684,-82855.50270742211,-83109.2620622232,-82978.75022634867,-82552.8824392417,-82779.97616290762,-83050.23110511675,-82885.05171359202,-82399.72828623395,-82488.8670431217,-82806.75355276508,-82663.09889115083,-82115.79407641817,-81886.7781027291,-81940.42228942184,-81495.17553987211,-80687.62936444633,-80168.89007912757,-80233.41956537003,-80088.24498513281,-79549.70205422665,-78794.92834745983,-78407.93024396065,-77813.4185449384,-76973.68585749697,-75631.28478900013,-74265.45909231414,-72192.64771850678,-69618.10673691116,-66514.47761231395,-63825.31688515149,-61711.80298469103,-59806.182659409365,-57972.06556464024,-57063.28833857636,-56749.93923305741,-56127.10787381028,-55153.35412661483,-54724.24533656184,-54926.52862388237,-54663.13566722103,-53936.458103234545,-53421.47391098427,-53657.35187022113,-53451.73817297676,-52805.4151303071,-52215.55259413154,-52464.99806225277,-52431.20222463635,-51853.27551999993,-51169.89328502337,-51420.74691304528,-51520.63685901605,-51140.03135443108,-50445.964985604885,-50616.620554521156,-50776.212009932045,-50456.291491543234,-49812.62830646376,-49890.032397512485,-50262.099535715526,-50139.36610691144,-49532.85152111668,-49537.411276985564,-50270.682605586364,-50411.85622356609,-50057.20109429373,-49930.98079335461,-50526.43126564399,-50623.37078134665,-50240.66421278289,-49887.81957481141,-50441.38287799155,-50652.85273228321,-50350.12070538053,-49874.9226182607,-50356.401545572466,-50673.61750288219,-50437.001936078304,-49879.01298749602,-50221.73228522924,-50653.389174150136,-50538.74707683887,-50028.90378581331,-50233.7575237462,-50780.8388210343,-50788.57252461583,-50350.76890596973,-50351.506513536755,-50994.47679453812,-51078.89933334581,-50675.964436049995,-50597.62157173414,-51437.4436661534,-51839.819769837835,-51832.57780463431,-51920.17429115466,-52902.60051519877,-53375.854000550986,-53268.87855158789,-53040.77899942148,-53647.29358521624,-54050.80962786789,-53955.188865088094,-53586.206267619884,-54008.38601689172,-54602.74125370279,-54732.247261076845,-54427.88355682893,-54760.11988641261,-55511.96551465578,-55704.16816522696,-55467.39613621189,-55530.94214569833,-56162.1554091162,-56269.93552087969,-55802.269971641304,-55468.62548215693,-55925.85276673469,-55987.253008753425,-55601.01486456572,-55169.246216922555,-55637.269394072224,-55840.40204768206,-55619.72327467481,-55156.77394351649,-55603.026521566695,-56008.308352030326,-55870.778068396816,-55401.45849006873,-55792.01052093632,-56429.571679779496,-56511.647285419385,-56091.81446931535,-56249.818950869914,-56867.21883621441,-56924.05932236425,-56499.15266026887,-56395.39586250733,-57012.14754726262,-57144.06754303784,-56757.33766047212,-56467.882569775895,-57047.709172691015,-57181.75258418949,-56884.00499630034,-56491.82128808753,-57023.34577123473,-57306.90000139475,-57144.045191293386,-56655.92779587839,-57035.885099874155,-57467.38552658386,-57334.325591841414,-56806.26562908479,-57010.6052768952,-57454.84619794443,-57392.216609980656,-56801.057672626695,-56696.42915683141,-57136.69146736759,-57104.39319662967,-56637.0182200692,-56457.19843592626,-56979.22342767995,-56983.09027947072,-56493.78824159959,-56051.55897755134,-56487.75327059666,-56609.39146392244,-56295.30475083647,-55908.61957175966,-56475.32570067951,-56828.17033865098,-56718.9373634979,-56301.987922428605,-56734.76239857226,-57138.54666215738,-56994.51202088738,-56455.45499985874,-56633.03960955616,-57126.74494108498,-57153.83525536481,-56692.65171201846,-56768.37942223304,-57397.513973416564,-57511.574925372,-57140.91594706964,-56991.22631445245,-57526.57294590151,-57631.82731054155,-57303.86016414883,-57031.19123353854,-57611.867202742964,-57819.73842617732,-57553.10446656996,-57017.19904150952,-57404.5994764089,-57679.99531984274,-57463.60808177091,-56963.37604086114,-57290.53852445347,-57698.81548867411,-57591.34830133299,-57113.95974325654,-57290.024434331,-57723.91649769741,-57698.770785185196,-57231.61932606928,-57185.57473249135,-57640.58919436803,-57572.6398912239,-57040.355448765215,-56754.99072730431,-57252.249986201525,-57354.10688568436,-56981.90563701459,-56552.95330917279,-56974.28369215533,-57093.48554533548,-56707.42621510342,-56162.49068528303,-56504.31591323804,-56707.20269765887,-56418.35110406293,-55836.71400984693,-56115.08263529332,-56468.083735475986,-56341.9975450036,-55788.54600054574,-55845.900576818065,-56260.726602164104,-56170.894941198225,-55651.686269245896,-55554.34442214304,-55981.68742438405,-55889.95586513947,-55335.342029969936,-54932.36242918521,-55090.098689806306,-54825.632849411115,-54129.64423056177,-53474.62635929899,-53771.50222915438,-53774.407955933566,-53336.20200588727,-52698.05970168826,-52986.01722550598,-53198.96229493169,-52911.98824787,-52305.965400453264,-52542.44685679041,-52999.92001055718,-52946.63345177573,-52408.15757610292,-52443.13805617548,-52890.50822144845,-52849.96215700652,-52362.090630780534,-52249.70605965926,-52745.87008307816,-52789.455984766006,-52347.09261025103,-52114.79093012702,-52655.81490466773,-52906.065035589345,-52742.71848710996,-52505.63353367252,-53131.70589586567,-53471.988853453266,-53287.49755471916,-52870.0787270163,-53402.31846598607,-53950.91968189713,-54032.01181078098,-53706.77157721181,-54072.26730254499,-54567.15727652994,-54509.55683106862,-54066.85818038681,-54236.5526242915,-54839.60268969568,-55024.76454076345,-54795.8826775411,-54893.313931621786,-55645.3830773095,-56028.93901216257,-56028.96136390703,-56102.76682409845,-56824.281135115765,-57295.14298381126,-57429.94635462122,-57373.128220215825,-57754.24781492327,