8514 
8423 
8360 
8359 
8442 
8461 
8364 
8360 
8388 
8416 
8346 
8371 
8459 
8510 
8407 
8376 
8477 
8516 
8492 
8425 
8499 
8506 
8478 
8431 
8508 
8548 
8483 
8496 
8507 
8486 
8451 
8489 
8510 
8525 
8563 
8503 
8396 
8435 
8523 
8504 
8371 
8420 
8424 
8358 
8313 
8376 
8371 
8309 
8300 
8308 
8318 
8290 
8248 
8254 
8324 
8318 
8217 
8336 
8377 
8355 
8261 
8313 
8365 
8380 
8300 
8308 
8292 
8323 
8323 
8203 
8260 
8309 
8269 
8193 
8183 
8175 
8262 
8200 
8219 
8257 
8243 
8166 
8187 
8212 
8264 
8228 
8201 
8235 
8280 
8300 
8244 
8247 
8264 
8197 
8132 
8207 
8235 
8218 
8139 
8154 
8225 
8225 
8140 
8125 
8169 
8189 
8014 
8032 
8059 
8142 
8081 
7993 
8032 
8062 
8005 
7962 
7969 
8003 
7983 
7898 
7965 
8163 
8124 
8265 
8563 
8802 
8838 
8646 
8336 
8147 
8135 
8051 
7965 
7929 
7921 
7931 
7978 
7993 
7971 
7915 
7874 
7873 
7926 
7868 
7869 
7858 
7851 
7871 
7819 
7842 
7905 
7854 
7820 
7861 
7870 
7887 
7825 
7934 
7984 
8034 
8029 
7963 
8064 
8093 
8095 
8072 
8071 
8142 
8161 
8135 
8122 
8201 
8234 
8181 
8162 
8231 
8296 
8245 
8264 
8332 
8368 
8362 
8337 
8321 
8404 
8362 
8370 
8445 
8389 
8309 
8334 
8364 
8357 
8297 
8218 
8218 
8269 
8286 
8110 
8073 
8198 
8200 
8082 
8088 
8120 
8147 
8099 
8107 
8121 
8120 
8059 
8091 
8155 
8181 
8149 
8059 
8097 
8129 
8086 
8055 
8097 
8215 
8212 
8073 
8148 
8177 
8145 
7971 
7870 
7949 
7982 
7914 
7921 
7953 
7976 
7875 
7818 
7767 
7704 
7511 
7326 
7243 
7201 
7131 
6954 
6888 
6855 
6867 
6881 
6898 
6934 
7065 
7059 
7079 
7206 
7308 
7365 
7382 
7506 
7630 
7632 
7621 
7692 
7711 
7682 
7693 
7768 
7785 
7805 
7758 
7812 
7949 
7901 
7814 
7886 
7957 
7963 
7945 
7980 
8011 
8017 
7980 
8000 
8076 
8112 
8070 
8037 
8031 
8111 
8100 
8009 
8044 
8054 
8043 
8066 
8028 
8040 
7976 
7921 
7947 
7989 
7951 
7901 
7967 
8064 
8095 
8025 
7926 
7994 
8064 
8082 
8063 
8083 
8144 
8051 
7980 
8056 
8142 
8079 
8042 
8066 
8103 
8155 
8113 
8115 
8160 
8134 
8037 
8037 
8102 
8072 
8026 
8030 
8065 
8106 
8043 
7958 
8018 
8044 
8013 
7962 
8003 
8063 
8061 
8170 
8407 
8711 
8946 
8953 
8787 
8478 
8264 
8168 
8164 
8137 
8193 
8110 
8087 
8095 
8117 
8075 
8089 
8159 
8183 
8120 
8087 
8153 
8175 
8184 
8112 
8085 
8148 
8183 
8144 
8131 
8158 
8180 
8143 
8149 
8151 
8203 
8261 
8196 
8200 
8216 
8171 
8107 
8171 
8229 
8233 
8178 
8216 
8220 
8219 
8171 
8190 
8257 
8196 
8230 
8312 
8314 
8343 
8282 
8266 
8411 
8512 
8439 
8387 
8412 
8470 
8466 
8502 
8535 
8533 
8496 
8402 
8395 
8379 
8353 
8217 
8253 
8356 
8284 
8189 
8170 
8156 
8173 
8110 
8071 
8056 
8110 
8145 
8071 
8078 
8164 
8093 
8058 
8154 
8200 
8183 
8110 
8120 
8121 
8135 
8094 
8145 
8145 
8177 
8106 
8052 
8060 
8093 
8004 
8025 
8106 
8192 
8101 
8045 
8076 
8085 
8083 
8089 
8116 
8080 
8135 
8042 
8025 
8082 
8110 
8036 
8013 
8028 
8067 
8063 
8044 
8128 
8153 
8085 
8042 
8086 
8157 
8174 
8125 
8188 
8242 
8189 
8127 
8129 
8253 
8241 
8139 
8183 
8262 
8271 
8232 
8192 
8239 
8245 
8150 
8204 
8226 
8205 
8121 
8139 
8204 
8219 
8196 
8157 
8185 
8207 
8220 
8202 
8225 
8238 
8191 
8191 
8232 
8237 
8286 
8273 
8280 
8316 
8335 
8259 
8276 
8327 
8338 
8279 
8206 
8291 
8407 
8354 
8292 
8289 
8297 
8348 
8319 
8278 
8315 
8339 
8286 
8319 
8363 
8333 
8290 
8333 
8346 
8334 
8332 
8304 
8310 
8301 
8261 
8264 
8298 
8309 
8271 
8261 
8318 
8258 
8204 
8145 
8160 
8168 
8184 
8186 
8157 
8195 
8218 
8121 
8143 
8194 
8240 
8191 
8143 
8255 
8325 
8338 
8519 
8867 
9196 
9211 
8956 
8673 
8466 
8388 
8345 
8306 
8277 
8281 
8214 
8192 
8246 
8294 
8202 
8189 
8229 
8271 
8225 
8167 
8252 
8327 
8297 
8182 
8268 
8330 
8304 
8279 
8330 
8341 
8286 
8220 
8293 
8337 
8359 
8295 
8308 
8364 
8440 
8363 
8300 
8371 
8477 
8402 
8354 
8424 
8389 
8392 
8380 
8449 
8511 
8485 
8404 
8450 
8563 
8594 
8574 
8606 
8621 
8656 
8567 
8588 
8637 
8678 
8588 
8603 
8664 
8648 
8586 
8567 
8581 
8595 
8600 
8531 
8505 
8554 
8505 
8471 
8442 
8442 
8457 
8378 
8392 
8470 
8439 
8347 
8342 
8396 
8418 
8343 
8320 
8304 
8361 
8359 
8319 
8356 
8408 
8339 
8220 
8264 
8342 
8329 
8269 
8297 
8357 
8410 
8352 
8319 
8332 
8320 
8260 
8291 
8402 
8453 
8383 
8332 
8402 
8445 
8372 
8318 
8279 
8334 
8342 
8370 
8385 
8352 
8308 
8245 
8328 
8362 
8307 
8232 
8221 
8212 
8198 
8108 
8152 
8212 
8256 
8250 
8216 
8285 
8285 
8306 
8302 
8352 
8371 
8383 
8380 
8405 
8516 
8426 
8320 
8390 
8471 
8509 
8440 
8418 
8457 
8524 
8419 
8465 
8456 
8450 
8437 
8391 
8427 
8494 
8359 
8305 
8435 
8454 
8373 
8321 
8383 
8417 
8362 
8324 
8429 
8414 
8441 
8391 
8461 
8414 
8434 
8430 
8423 
8495 
8501 
8445 
8445 
8489 
8535 
8579 
8464 
8499 
8518 
8466 
8458 
8487 
8502 
8536 
8460 
8453 
8548 
8507 
8432 
8411 
8427 
8462 
8412 
8424 
8445 
8559 
8547 
8616 
8898 
9180 
9267 
9116 
8868 
8621 
8490 
8374 
8386 
8504 
8347 
8307 
8370 
8453 
8501 
8390 
8378 
8442 
8475 
8400 
8428 
8473 
8520 
8467 
8442 
8513 
8522 
8471 
8435 
8497 
8506 
8485 
8514 
8587 
8629 
8647 
8548 
8549 
8632 
8646 
8558 
8558 
8618 
8654 
8644 
8625 
8684 
8740 
8683 
8668 
8714 
8726 
8786 
8715 
8714 
8791 
8744 
8720 
8854 
8859 
8873 
8757 
8741 
8883 
8869 
8829 
8868 
8926 
8908 
8876 
8866 
8868 
8876 
8820 
8823 
8837 
8812 
8734 
8649 
8693 
8705 
8645 
8624 
8603 
8604 
8665 
8611 
8644 
8653 
8625 
8599 
8668 
8656 
8709 
8620 
8644 
8631 
8650 
8650 
8605 
8618 
8668 
8672 
8594 
8607 
8618 
8632 
8604 
8552 
8605 
8601 
8586 
8644 
8638 
8639 
8626 
8562 
8565 
8590 
8526 
8487 
8612 
8628 
8526 
8511 
8539 
8549 
8534 
8516 
8588 
8617 
8642 
8577 
8577 
8618 
8604 
8519 
8536 
8631 
8645 
8472 
8439 
8480 
8478 
8459 
8387 
8454 
8465 
8417 
8426 
8485 
8498 
8439 
8392 
8467 
8484 
8488 
8435 
8515 
8599 
8603 
8533 
8576 
8656 
8721 
8632 
8643 
8707 
8778 
8748 
8677 
8706 
8788 
8736 
8680 
8665 
8687 
8676 
8647 
8629 
8621 
8605 
8489 
8521 
8546 
8528 
8446 
8499 
8554 
8533 
8487 
8512 
8709 
8913 
9050 
9212 
9287 
9058 
8585 
8144 
7912 
7629 
7204 
6734 
6289 
5846 
5430 
5028 
4782 
4552 
4392 
4270 
4311 
4462 
4676 
4781 
5013 
5351 
5585 
5718 
5905 
6149 
6354 
6467 
6630 
6822 
6987 
7088 
7096 
7184 
7365 
7425 
7390 
7463 
7545 
7648 
7640 
7663 
7755 
7798 
7794 
7852 
7872 
7907 
8015 
8019 
8064 
8122 
8089 
8163 
8305 
8351 
8396 
8314 
8395 
8571 
8594 
8583 
8678 
8795 
8823 
8830 
8930 
8971 
8914 
8897 
8866 
8874 
8875 
8778 
8784 
8795 
8823 
8757 
8731 
8788 
8830 
8853 
8754 
8724 
8709 
8708 
8613 
8582 
8586 
8581 
8538 
8528 
8539 
8516 
8415 
8396 
8449 
8456 
8368 
8364 
8456 
8556 
8531 
8526 
8592 
8682 
8681 
8607 
8658 
8745 
8782 
8787 
8798 
8876 
8938 
8811 
8805 
8856 
8900 
8847 
8827 
8866 
8936 
8885 
8879 
8965 
9044 
8947 
8887 
8941 
8975 
8954 
8844 
8845 
8940 
8975 
8896 
8866 
8877 
8956 
8950 
8934 
8923 
8951 
8885 
8811 
8841 
8906 
8859 
8872 
8861 
8922 
8824 
8802 
8829 
8851 
8816 
8735 
8748 
8802 
8775 
8689 
8735 
8799 
8824 
8757 
8788 
8801 
8820 
8760 
8775 
8834 
8838 
8752 
8723 
8764 
8786 
8770 
8694 
8638 
8565 
8482 
8457 
8521 
8549 
8470 
8435 
8414 
8433 
8484 
8357 
8330 
8316 
8341 
8424 
8485 
8626 
8865 
8996 
9105 
9209 
9029 
8647 
8365 
8327 
8278 
8244 
8196 
8196 
8223 
8256 
8189 
8259 
8354 
8384 
8374 
8381 
8521 
8603 
8560 
8557 
8602 
8616 
8594 
8645 
8647 
8690 
8698 
8740 
8802 
8798 
8818 
8809 
8937 
9066 
9139 
9070 
9009 
9068 
9121 
9023 
9035 
9097 
9177 
9101 
9022 
9008 
8929 
8870 
8765 
8740 
8753 
8731 
8660 
8694 
8802 
8900 
8906 
8955 
9003 
8962 
8927 
8986 
8987 
8992 
8957 
8856 
8881 
8833 
8732 
8667 
8712 
8783 
8682 
8664 
8651 
8628 
8593 
8592 
8645 
8602 
8532 
8503 
8460 
8463 
8383 
8294 
8332 
8403 
8391 
8270 
8266 
8273 
8361 
8373 
8300 
8361 
8405 
8396 
8364 
8368 
8437 
8442 
8476 
8541 
8588 
8609 
8592 
8607 
8661 
8714 
8709 
8696 
8691 
8676 
8570 
8471 
8472 
8479 
8432 
8412 
8372 
8316 
8213 
8152 
8126 
8148 
8120 
8004 
8057 
8128 
8126 
8107 
8125 
8172 
8205 
8157 
8234 
8298 
8397 
8416 
8387 
8448 
8551 
8534 
8572 
8656 
8733 
8678 
8588 
8627 
8670 
8639 
8556 
8603 
8615 
8585 
8539 
8542 
8555 
8550 
8510 
8490 
8526 
8561 
8548 
8554 
8639 
8700 
8623 
8619 
8650 
8683 
8690 
8643 
8645 
8659 
8629 
8524 
8463 
8492 
8459 
8310 
8325 
8412 
8453 
8405 
8436 
8464 
8440 
8321 
8339 
8406 
8412 
8374 
8255 
8339 
8438 
8340 
8231 
8256 
8263 
8265 
8175 
8149 
8228 
8269 
8287 
8389 
8657 
8922 
9054 
9037 
8797 
8556 
8406 
8283 
8265 
8227 
8203 
8157 
8165 
8229 
8243 
8216 
8263 
8310 
8329 
8273 
8301 
8322 
8322 
8268 
8341 
8333 
8326 
8242 
8222 
8292 
8321 
8329 
8250 
8242 
8245 
8184 
8120 
8164 
8208 
8153 
8021 
8051 
8141 
8129 
8098 
8110 
8159 
8235 
8211 
8205 
8305 
8320 
8265 
8313 
8408 
8483 
8445 
8417 
8460 
8529 
8537 
8570 
8613 
8626 
8591 
8529 
8534 
8607 
8607 
8543 
8527 
8578 
8516 
8350 
8309 
8317 
8359 
8236 
8166 
8151 
8175 
8124 
8004 
8024 
8042 
8001 
7936 
7930 
7965 
7877 
7823 
7892 
7933 
7896 
7842 
7821 
7849 
7930 
7852 
7866 
7949 
7955 
7827 
7820 
7906 
7927 
7852 
7882 
7983 
7987 
8007 
8000 
8059 
8147 
8151 
8066 
8028 
8013 
7964 
7731 
7641 
7579 
7492 
7399 
7361 
7346 
7357 
7339 
7246 
7342 
7364 
7320 
7215 
7241 
7185 
7092 
7068 
7086 
7254 
7293 
7270 
7363 
7533 
7633 
7747 
7839 
7851 
7885 
7935 
8006 
8030 
8077 
8060 
8066 
8064 
8049 
8016 
7996 
8046 
8059 
7997 
7949 
7972 
8074 
8079 
8057 
8137 
8155 
8250 
8219 
8269 
8319 
8353 
8345 
8339 
8305 
8311 
8248 
8251 
8277 
8317 
8340 
8354 
8427 
8441 
8362 
8232 
8320 
8367 
8362 
8294 
8278 
8333 
8328 
8275 
8246 
8265 
8324 
8099 
8106 
8215 
8268 
8267 
8327 
8515 
8804 
8975 
8973 
8797 
8534 
8333 
8258 
8274 
8322 
8248 
8137 
8124 
8206 
8270 
8147 
8195 
8243 
8212 
8138 
8135 
8178 
8221 
8148 
8183 
8265 
8253 
8282 
8199 
8209 
8198 
8214 
8094 
8036 
8091 
8089 
7966 
7946 
7927 
7951 
7845 
7778 
7769 
7847 
7766 
7725 
7823 
7890 
7912 
7918 
7998 
8058 
8092 
8092 
8123 
8268 
8334 
8280 
8320 
8443 
8477 
8394 
8400 
8504 
8515 
8463 
8479 
8519 
8532 
8371 
8337 
8343 
8339 
8170 
8066 
8061 
7991 
7904 
7815 
7756 
7754 
7774 
7788 
7851 
7999 
8039 
8034 
8143 
8227 
8370 
8372 
8330 
8419 
8471 
8476 
8437 
8532 
8547 
8488 
8494 
8484 
8452 
8478 
8407 
8432 
8464 
8498 
8400 
8387 
8444 
8422 
8322 
8265 
8200 
8145 
8112 
8093 
8072 
8073 
8010 
7964 
7973 
8034 
8034 
7964 
7995 
8048 
8108 
8078 
8134 
8186 
8194 
8155 
8207 
8181 
8141 
8045 
8070 
8148 
8167 
8060 
8088 
8006 
7990 
8040 
8029 
8043 
7995 
7898 
7844 
7884 
7908 
7921 
7925 
7946 
7964 
7955 
7913 
7891 
7900 
7890 
7902 
7884 
7924 
7939 
7800 
7792 
7903 
7999 
7955 
8004 
8069 
8137 
8133 
8065 
8171 
8160 
8120 
8162 
8196 
8188 
8147 
8048 
8049 
8119 
8099 
7979 
7996 
8020 
8061 
8092 
8173 
8349 
8572 
8777 
8918 
8849 
8663 
8461 
8340 
8321 
8354 
8294 
8180 
8178 
8321 
8342 
8234 
8212 
8292 
8295 
8265 
8294 
8398 
8492 
8434 
8440 
8509 
8533 
8513 
8460 
8530 
8574 
8542 
8434 
8489 
8496 
8386 
8284 
8370 
8424 
8384 
8308 
8331 
8380 
8362 
8269 
8285 
8297 
8336 
8260 
8231 
8304 
8318 
8279 
8249 
8262 
8358 
8344 
8242 
8279 
8378 
8366 
8288 
8365 
8415 
8443 
8444 
8472 
8465 
8494 
8444 
8452 
8517 
8523 
8411 
8399 
8381 
8335 
8201 
8160 
8155 
8229 
8134 
8010 
8022 
8075 
8046 
7981 
7969 
7989 
7991 
7942 
7936 
7990 
8055 
7956 
8003 
8096 
8172 
8183 
8232 
8331 
8295 
8315 
8381 
8433 
8464 
8424 
8387 
8394 
8414 
8381 
8331 
8349 
8405 
8345 
8250 
8263 
8232 
8295 
8212 
8162 
8067 
7934 
7945 
8014 
8095 
8129 
8120 
8145 
8165 
8314 
8392 
8417 
8480 
8576 
8567 
8543 
8625 
8629 
8572 
8472 
8564 
8597 
8582 
8482 
8358 
8361 
8325 
8254 
8256 
8284 
8211 
8100 
8056 
8150 
8226 
8159 
8086 
8082 
8087 
8019 
7976 
8061 
8030 
8012 
7953 
7976 
8102 
8137 
8081 
8051 
8060 
8087 
8070 
8027 
8037 
8118 
8096 
8058 
8045 
8130 
8153 
8122 
8185 
8253 
8261 
8320 
8328 
8396 
8347 
8275 
8259 
8219 
8260 
8236 
8231 
8229 
8233 
8171 
8118 
8131 
8150 
8087 
8080 
8197 
8301 
8572 
8750 
8940 
8991 
8687 
8339 
8203 
8242 
8143 
7949 
7968 
8022 
8103 
8060 
8079 
8160 
8213 
8214 
8231 
8351 
8415 
8434 
8439 
8489 
8608 
8581 
8556 
8562 
8547 
8471 
8389 
8421 
8415 
8410 
8394 
8429 
8526 
8450 
8279 
8315 
8380 
8418 
8355 
8340 
8416 
8535 
8561 
8500 
8502 
8542 
8625 
8638 
8626 
8752 
8823 
8744 
8709 
8754 
8787 
8740 
8745 
8782 
8779 
8680 
8657 
8689 
8742 
8635 
8576 
8593 
8598 
8541 
8407 
8419 
8429 
8355 
8217 
8249 
8279 
8218 
8182 
8166 
8213 
8153 
8156 
8149 
8153 
8193 
8171 
8119 
8165 
8137 
8094 
8036 
8124 
8109 
8078 
8049 
8066 
8112 
8162 
8059 
8060 
8130 
8168 
8103 
8133 
8179 
8211 
8135 
8182 
8223 
8279 
8242 
8237 
8259 
8275 
8277 
8278 
8361 
8357 
8326 
8343 
8390 
8389 
8349 
8292 
8257 
8329 
8392 
8336 
8284 
8353 
8313 
8233 
8213 
8271 
8240 
8151 
8015 
7991 
8025 
8014 
7966 
7950 
7956 
7915 
7853 
7906 
7867 
7791 
7737 
7702 
7810 
7872 
7838 
7909 
8043 
8199 
8227 
8281 
8424 
8515 
8470 
8394 
8436 
8422 
8369 
8332 
8331 
8367 
8319 
8261 
8241 
8256 
8202 
8147 
8178 
8197 
8223 
8178 
8195 
8404 
8441 
8515 
8575 
8632 
8636 
8513 
8506 
8527 
8596 
8551 
8421 
8418 
8451 
8438 
8353 
8338 
8367 
8396 
8316 
8349 
8385 
8358 
8271 
8317 
8345 
8348 
8298 
8236 
8248 
8275 
8183 
8114 
8208 
8240 
8331 
8504 
8708 
9000 
9154 
9138 
8928 
8685 
8562 
8485 
8444 
8466 
8433 
8402 
8324 
8392 
8453 
8319 
8279 
8295 
8228 
8129 
8077 
8009 
8031 
8022 
7902 
7923 
7983 
7968 
8014 
8125 
8196 
8285 
8236 
8251 
8345 
8317 
8356 
8415 
8427 
8483 
8432 
8433 
8390 
8420 
8357 
8342 
8422 
8383 
8310 
8248 
8313 
8361 
8312 
8275 
8368 
8444 
8469 
8435 
8434 
8458 
8465 
8409 
8385 
8427 
8477 
8416 
8348 
8377 
8427 
8330 
8339 
8472 
8441 
8418 
8372 
8365 
8405 
8383 
8331 
8377 
8436 
8373 
8248 
8318 
8340 
8399 
8300 
8299 
8331 
8372 
8333 
8379 
8489 
8492 
8415 
8330 
8308 
8350 
8229 
8145 
8186 
8147 
8186 
8132 
8132 
8247 
8322 
8216 
8235 
8299 
8283 
8232 
8298 
8302 
8301 
8298 
8259 
8220 
8294 
8346 
8299 
8298 
8385 
8377 
8280 
8354 
8412 
8375 
8322 
8384 
8442 
8414 
8288 
8265 
8360 
8317 
8237 
8275 
8277 
8269 
8179 
8177 
8305 
8336 
8339 
8267 
8302 
8397 
8474 
8304 
8352 
8402 
8397 
8370 
8350 
8405 
8399 
8310 
8256 
8356 
8431 
8321 
8336 
8382 
8386 
8418 
8338 
8355 
8366 
8355 
8319 
8395 
8415 
8309 
8171 
8271 
8362 
8314 
8261 
8224 
8225 
8243 
8143 
8120 
8221 
8300 
8298 
8204 
8202 
8239 
8207 
8217 
8307 
8333 
8300 
8221 
8216 
8282 
8387 
8412 
8495 
8641 
8911 
9013 
9064 
9001 
8749 
8436 
8342 
8412 
8437 
8374 
8396 
8419 
8433 
8345 
8236 
8318 
8387 
8326 
8288 
8251 
8274 
8293 
8221 
8354 
8433 
8452 
8304 
8315 
8395 
8423 
8377 
8482 
8540 
8412 
8393 
8402 
8439 
8536 
8459 
8378 
8422 
8518 
8477 
8406 
8433 
8451 
8547 
8466 
8445 
8545 
8545 
8496 
8515 
8612 
8658 
8678 
8656 
8740 
8783 
8747 
8748 
8872 
8927 
8849 
8751 
8760 
8838 
8806 
8688 
8668 
8667 
8622 
8490 
8456 
8555 
8492 
8351 
8285 
8306 
8354 
8213 
8159 
8182 
8194 
8189 
8136 
8182 
8279 
8183 
8080 
8084 
8211 
8227 
8143 
8199 
8270 
8226 
8182 
8199 
8314 
8321 
8225 
8102 
8140 
8156 
8075 
8048 
8078 
8075 
8018 
7855 
7774 
7805 
7809 
7749 
7834 
7913 
7905 
7836 
7854 
7901 
8010 
7982 
8001 
8131 
8213 
8134 
8099 
8230 
8372 
8294 
8306 
8292 
8358 
8357 
8321 
8374 
8474 
8457 
8325 
8388 
8458 
8411 
8382 
8357 
8342 
8297 
8261 
8214 
8247 
8239 
8151 
8086 
8121 
8164 
8058 
8009 
8047 
8024 
7895 
7793 
7842 
7865 
7698 
7500 
7434 
7489 
7376 
7154 
7090 
7031 
6976 
6869 
6960 
7100 
7231 
7304 
7459 
7603 
7804 
7891 
7989 
8106 
8289 
8270 
8276 
8401 
8519 
8546 
8508 
8524 
8626 
8632 
8543 
8553 
8595 
8601 
8599 
8670 
8853 
9089 
9235 
9320 
9357 
9168 
8841 
8598 
8631 
8625 
8545 
8477 
8477 
8389 
8382 
8265 
8248 
8256 
8261 
8171 
8118 
8152 
8205 
8146 
8191 
8170 
8210 
8207 
8167 
8196 
8187 
8125 
8057 
8148 
8215 
8122 
8060 
8188 
8281 
8265 
8157 
8200 
8391 
8367 
8268 
8300 
8398 
8445 
8415 
8416 
8507 
8619 
8577 
8538 
8626 
8709 
8617 
8595 
8614 
8635 
8525 
8521 
8622 
8692 
8655 
8577 
8595 
8648 
8637 
8538 
8599 
8693 
8650 
8518 
8479 
8527 
8531 
8494 
8425 
8479 
8557 
8489 
8434 
8434 
8455 
8395 
8299 
8319 
8396 
8399 
8266 
8263 
8277 
8273 
8192 
8198 
8327 
8427 
8294 
8272 
8277 
8371 
8309 
8254 
8331 
8409 
8375 
8409 
8445 
8425 
8312 
8323 
8419 
8465 
8498 
8451 
8447 
8585 
8633 
8493 
8511 
8620 
8587 
8520 
8594 
8642 
8660 
8564 
8540 
8594 
8635 
8547 
8476 
8518 
8540 
8487 
8422 
8449 
8512 
8499 
8375 
8318 
8451 
8481 
8410 
8369 
8370 
8386 
8336 
8318 
8376 
8445 
8324 
8247 
8326 
8371 
8304 
8246 
8285 
8362 
8357 
8181 
8207 
8335 
8287 
8182 
8157 
8228 
8244 
8158 
8145 
8258 
8289 
8149 
8210 
8332 
8312 
8235 
8241 
8233 
8280 
8300 
8266 
8301 
8355 
8307 
8285 
8326 
8383 
8412 
8366 
8406 
8398 
8391 
8334 
8338 
8414 
8481 
8370 
8337 
8408 
8462 
8387 
8328 
8312 
8423 
8385 
8295 
8327 
8373 
8457 
8452 
8546 
8789 
9048 
9171 
9213 
9041 
8802 
8543 
8470 
8478 
8531 
8416 
8361 
8409 
8434 
8449 
8413 
8451 
8437 
8372 
8363 
8443 
8507 
8465 
8377 
8432 
8468 
8473 
8431 
8425 
8517 
8557 
8448 
8445 
8502 
8543 
8502 
8491 
8541 
8620 
8538 
8439 
8505 
8590 
8569 
8474 
8500 
8603 
8546 
8397 
8470 
8589 
8629 
8524 
8513 
8614 
8654 
8552 
8535 
8586 
8674 
8617 
8572 
8659 
8672 
8610 
8596 
8634 
8761 
8736 
8599 
8607 
8654 
8597 
8460 
8469 
8530 
8501 
8416 
8417 
8398 
8428 
8369 
8328 
8395 
8403 
8322 
8258 
8335 
8422 
8339 
8262 
8351 
8393 
8325 
8253 
8307 
8349 
8336 
8307 
8303 
8367 
8432 
8356 
8337 
8418 
8456 
8380 
8343 
8351 
8433 
8404 
8423 
8375 
8407 
8412 
8317 
8404 
8484 
8479 
8365 
8389 
8480 
8464 
8365 
8387 
8439 
8459 
8397 
8368 
8467 
8420 
8363 
8392 
8448 
8519 
8479 
8431 
8425 
8496 
8482 
8424 
8454 
8481 
8440 
8383 
8393 
8487 
8502 
8344 
8416 
8449 
8401 
8395 
8382 
8414 
8470 
8405 
8345 
8411 
8441 
8358 
8365 
8368 
8445 
8377 
8295 
8337 
8421 
8382 
8310 
8342 
8399 
8399 
8350 
8304 
8397 
8459 
8347 
8308 
8426 
8385 
8349 
8359 
8425 
8441 
8457 
8365 
8424 
8476 
8434 
8355 
8342 
8441 
8406 
8360 
8383 
8477 
8437 
8292 
8283 
8340 
8376 
8360 
8401 
8390 
8371 
8343 
8322 
8384 
8370 
8302 
8249 
8407 
8511 
8537 
8597 
8906 
9218 
9282 
9165 
8901 
8656 
8567 
8444 
8402 
8479 
8431 
8424 
8475 
8440 
8439 
8337 
8292 
8388 
8530 
8482 
8392 
8481 
8565 
8480 
8387 
8407 
8514 
8510 
8387 
8439 
8524 
8500 
8399 
8426 
8491 
8517 
8493 
8449 
8501 
8671 
8602 
8524 
8530 
8600 
8575 
8452 
8505 
8622 
8626 
8511 
8529 
8560 
8579 
8533 
8558 
8649 
8645 
8616 
8675 
8741 
8720 
8678 
8646 
8686 
8829 
8712 
8663 
8735 
8807 
8733 
8586 
8621 
8699 
8620 
8458 
8480 
8557 
8519 
8401 
8515 
8567 
8502 
8408 
8335 
8389 
8452 
8414 
8363 
8425 
8522 
8356 
8383 
8408 
8448 
8400 
8359 
8503 
8490 
8429 
8431 
8414 
8514 
8507 
8344 
8385 
8446 
8508 
8443 
8406 
8428 
8464 
8406 
8416 
8465 
8425 
8347 
8245 
8390 
8448 
8437 
8368 
8391 
8451 
8563 
8396 
8378 
8445 
8445 
8363 
8353 
8356 
8316 
8241 
8190 
8238 
8313 
8268 
8239 
8259 
8320 
8297 
8256 
8336 
8401 
8400 
8330 
8377 
8397 
8411 
8355 
8389 
8460 
8461 
8326 
8375 
8469 
8464 
8335 
8296 
8378 
8368 
8268 
8268 
8353 
8329 
8160 
8055 
8135 
8238 
8206 
8120 
8157 
8311 
8334 
8244 
8253 
8368 
8405 
8270 
8290 
8374 
8376 
8246 
8211 
8327 
8442 
8349 
8299 
8370 
8422 
8369 
8320 
8330 
8376 
8346 
8298 
8304 
8310 
8271 
8292 
8319 
8354 
8349 
8341 
8336 
8405 
8455 
8355 
8326 
8394 
8433 
8429 
8466 
8572 
8738 
8907 
9039 
9246 
9195 
8967 
8604 
8531 
8526 
8490 
8462 
8513 
8536 
8517 
8475 
8455 
8547 
8517 
8429 
8434 
8449 
8506 
8449 
8435 
8453 
8505 
8561 
8463 
8535 
8670 
8652 
8528 
8525 
8613 
8617 
8536 
8509 
8557 
8606 
8557 
8549 
8552 
8589 
8607 
8612 
8554 
8600 
8610 
8599 
8596 
8646 
8656 
8639 
8669 
8680 
8686 
8684 
8675 
8679 
8683 
8695 
8750 
8726 
8701 
8784 
8762 
8715 
8762 
8773 
8805 
8821 
8710 
8648 
8730 
8692 
8625 
8610 
8603 
8591 
8543 
8555 
8601 
8544 
8556 
8540 
8524 
8579 
8543 
8524 
8459 
8474 
8468 
8499 
8494 
8494 
8534 
8508 
8491 
8517 
8522 
8453 
8466 
8528 
8600 
8564 
8510 
8491 
8473 
8532 
8591 
8567 
8533 
8529 
8520 
8492 
8481 
8511 
8541 
8512 
8480 
8508 
8472 
8455 
8455 
8524 
8549 
8554 
8531 
8551 
8528 
8499 
8469 
8493 
8511 
8552 
8533 
8482 
8473 
8467 
8511 
8528 
8560 
8560 
8473 
8415 
8515 
8494 
8442 
8497 
8526 
8531 
8495 
8456 
8513 
8526 
8509 
8483 
8527 
8535 
8530 
8548 
8540 
8524 
8511 
8501 
8548 
8549 
8549 
8525 
8522 
8587 
8484 
8439 
8510 
8577 
8526 
8528 
8581 
8576 
8586 
8513 
8516 
8555 
8552 
8520 
8488 
8523 
8473 
8460 
8469 
8483 
8536 
8506 
8488 
8515 
8519 
8526 
8513 
8498 
8552 
8532 
8463 
8490 
8528 
8588 
8681 
8809 
9022 
9212 
9367 
9405 
9188 
8889 
8735 
8744 
8675 
8644 
8592 
8550 
8529 
8513 
8534 
8566 
8571 
8596 
8557 
8540 
8511 
8541 
8543 
8522 
8552 
8558 
8490 
8480 
8556 
8610 
8588 
8521 
8480 
8523 
8524 
8505 
8502 
8569 
8560 
8570 
8536 
8576 
8671 
8658 
8635 
8603 
8632 
8644 
8607 
8649 
8653 
8650 
8650 
8660 
8696 
8711 
8731 
8686 
8688 
8749 
8686 
8666 
8751 
8797 
8784 
8768 
8802 
8830 
8814 
8796 
8788 
8829 
8689 
8642 
8625 
8674 
8663 
8613 
8584 
8566 
8527 
8474 
8479 
8527 
8564 
8532 
8523 
8536 
8500 
8453 
8518 
8564 
8510 
8492 
8468 
8540 
8550 
8565 
8562 
8558 
8551 
8505 
8488 
8499 
8579 
8519 
8508 
8521 
8591 
8568 
8487 
8497 
8530 
8541 
8568 
8523 
8519 
8561 
8530 
8515 
8507 
8555 
8532 
8484 
8516 
8534 
8569 
8537 
8516 
8547 
8544 
8534 
8483 
8491 
8506 
8520 
8510 
8582 
8661 
8563 
8461 
8507 
8536 
8523 
8497 
8481 
8541 
8548 
8539 
8536 
8550 
8538 
8498 
8517 
8554 
8535 
8444 
8436 
8576 
8610 
8521 
8492 
8510 
8558 
8513 
8479 
8536 
8543 
8491 
8519 
8603 
8573 
8550 
8539 
8519 
8528 
8531 
8575 
8585 
8535 
8617 
8591 
8594 
8624 
8623 
8588 
8572 
8596 
8651 
8625 
8538 
8564 
8680 
8636 
8592 
8602 
8588 
8594 
8609 
8527 
8545 
8556 
8539 
8541 
8589 
8564 
8487 
8471 
8546 
8564 
8526 
8530 
8619 
8667 
8780 
8953 
9200 
9467 
9476 
9204 
8892 
8767 
8740 
8646 
8559 
8557 
8618 
8609 
8580 
8572 
8548 
8545 
8530 
8513 
8558 
8573 
8562 
8547 
8586 
8574 
8597 
8566 
8545 
8530 
8519 
8544 
8590 
8617 
8594 
8588 
8631 
8650 
8611 
8569 
8608 
8641 
8644 
8604 
8613 
8655 
8639 
8561 
8611 
8624 
8606 
8595 
8666 
8681 
8699 
8655 
8679 
8750 
8725 
8745 
8686 
8749 
8762 
8710 
8700 
8766 
8807 
8797 
8788 
8807 
8820 
8772 
8756 
8752 
8780 
8758 
8692 
8648 
8645 
8663 
8574 
8550 
8583 
8599 
8586 
8542 
8581 
8561 
8545 
8528 
8562 
8569 
8511 
8511 
8545 
8543 
8559 
8505 
8545 
8584 
8497 
8552 
8563 
8565 
8563 
8531 
8516 
8597 
8582 
8521 
8602 
8654 
8593 
8572 
8584 
8610 
8618 
8582 
8540 
8565 
8561 
8545 
8557 
8547 
8584 
8523 
8490 
8484 
8520 
8525 
8478 
8490 
8515 
8504 
8479 
8516 
8564 
8577 
8540 
8529 
8609 
8616 
8563 
8507 
8577 
8522 
8553 
8517 
8543 
8538 
8526 
8524 
8484 
8519 
8584 
8568 
8475 
8469 
8480 
8447 
8480 
8538 
8575 
8516 
8503 
8499 
8495 
8528 
8527 
8525 
8519 
8475 
8478 
8533 
8551 
8528 
8467 
8479 
8584 
8557 
8520 
8512 
8518 
8581 
8526 
8512 
8598 
8564 
8522 
8529 
8580 
8566 
8483 
8496 
8516 
8610 
8649 
8547 
8532 
8552 
8596 
8520 
8451 
8486 
8504 
8468 
8471 
8497 
8524 
8459 
8502 
8558 
8502 
8437 
8465 
8477 
8465 
8455 
8533 
8647 
8785 
9002 
9303 
9493 
9431 
9105 
8788 
8642 
8701 
8637 
8541 
8589 
8587 
8614 
8608 
8586 
8554 
8545 
8602 
8608 
8629 
8627 
8573 
8558 
8576 
8643 
8641 
8576 
8598 
8593 
8555 
8580 
8608 
8620 
8647 
8656 
8619 
8623 
8614 
8613 
8631 
8654 
8672 
8665 
8627 
8644 
8693 
8648 
8620 
8644 
8670 
8625 
8680 
8738 
8702 
8697 
8746 
8786 
8832 
8810 
8828 
8813 
8800 
8832 
8815 
8821 
8820 
8833 
8805 
8781 
8772 
8780 
8710 
8697 
8695 
8728 
8648 
8598 
8583 
8613 
8564 
8563 
8539 
8577 
8599 
8527 
8523 
8550 
8575 
8547 
8526 
8541 
8585 
8561 
8573 
8597 
8613 
8578 
8559 
8549 
8587 
8560 
8586 
8608 
8628 
8618 
8594 
8559 
8586 
8601 
8547 
8513 
8589 
8595 
8511 
8492 
8528 
8537 
8568 
8586 
8595 
8569 
8522 
8558 
8573 
8561 
8553 
8565 
8589 
8544 
8544 
8558 
8582 
8624 
8605 
8569 
8530 
8574 
8602 
8541 
8570 
8573 
8621 
8535 
8485 
8545 
8587 
8572 
8516 
8548 
8574 
8583 
8550 
8577 
8601 
8562 
8531 
8530 
8568 
8569 
8563 
8536 
8590 
8601 
8501 
8561 
8659 
8623 
8633 
8596 
8599 
8645 
8663 
8618 
8596 
8616 
8627 
8661 
8632 
8651 
8635 
8563 
8559 
8531 
8514 
8450 
8460 
8586 
8577 
8528 
8489 
8491 
8557 
8528 
8514 
8478 
8534 
8527 
8552 
8654 
8815 
8995 
9219 
9346 
9276 
8937 
8651 
8574 
8655 
8665 
8578 
8513 
8510 
8550 
8601 
8585 
8569 
8606 
8602 
8548 
8479 
8550 
8558 
8509 
8489 
8470 
8383 
8347 
8353 
8305 
8234 
8209 
8277 
8343 
8433 
8388 
8357 
8342 
8378 
8448 
8539 
8550 
8540 
8574 
8543 
8536 
8578 
8628 
8612 
8637 
8663 
8698 
8689 
8728 
8774 
8775 
8770 
8754 
8829 
8862 
8870 
8851 
8863 
8908 
8881 
8836 
8895 
8976 
8906 
8853 
8822 
8842 
8860 
8850 
8798 
8751 
8722 
8688 
8653 
8643 
8651 
8617 
8593 
8624 
8597 
8646 
8602 
8542 
8543 
8559 
8544 
8543 
8548 
8514 
8468 
8467 
8525 
8467 
8415 
8481 
8531 
8529 
8476 
8435 
8519 
8542 
8542 
8559 
8579 
8534 
8492 
8485 
8548 
8563 
8566 
8557 
8542 
8560 
8575 
8559 
8539 
8533 
8504 
8465 
8552 
8550 
8517 
8474 
8461 
8534 
8575 
8564 
8552 
8557 
8520 
8521 
8562 
8539 
8541 
8530 
8522 
8557 
8548 
8492 
8469 
8494 
8550 
8507 
8453 
8479 
8540 
8553 
8547 
8529 
8549 
8614 
8558 
8565 
8591 
8614 
8601 
8568 
8598 
8637 
8586 
8555 
8590 
8637 
8599 
8599 
8650 
8626 
8557 
8537 
8573 
8556 
8542 
8513 
8499 
8510 
8551 
8551 
8544 
8547 
8540 
8492 
8490 
8543 
8483 
8482 
8545 
8611 
8755 
9000 
9242 
9389 
9384 
9085 
8805 
8617 
8703 
8701 
8600 
8556 
8597 
8591 
8569 
8526 
8537 
8586 
8558 
8524 
8563 
8606 
8568 
8538 
8498 
8568 
8577 
8569 
8590 
8559 
8541 
8526 
8542 
8552 
8580 
8552 
8602 
8663 
8637 
8581 
8634 
8683 
8668 
8625 
8590 
8639 
8694 
8630 
8629 
8634 
8646 
8651 
8664 
8656 
8681 
8715 
8708 
8759 
8767 
8748 
8788 
8760 
8768 
8774 
8798 
8819 
8871 
8851 
8813 
8787 
8774 
8774 
8730 
8722 
8720 
8707 
8643 
8610 
8603 
8663 
8635 
8514 
8516 
8632 
8621 
8565 
8560 
8559 
8552 
8498 
8523 
8551 
8551 
8573 
8558 
8545 
8540 
8510 
8486 
8490 
8529 
8555 
8517 
8498 
8575 
8633 
8607 
8550 
8567 
8579 
8555 
8568 
8574 
8602 
8566 
8531 
8585 
8571 
8529 
8476 
8524 
8565 
8568 
8536 
8548 
8604 
8546 
8493 
8531 
8525 
8538 
8526 
8497 
8466 
8456 
8436 
8387 
8425 
8493 
8484 
8450 
8483 
8515 
8505 
8475 
8505 
8534 
8490 
8487 
8518 
8512 
8505 
8487 
8475 
8489 
8476 
8489 
8526 
8534 
8503 
8478 
8509 
8544 
8610 
8552 
8530 
8565 
8578 
8562 
8583 
8589 
8594 
8564 
8570 
8573 
8583 
8597 
8570 
8589 
8619 
8541 
8530 
8497 
8529 
8521 
8496 
8537 
8500 
8492 
8479 
8521 
8570 
8580 
8524 
8478 
8516 
8594 
8658 
8751 
8947 
9217 
9437 
9433 
9207 
8935 
8762 
8689 
8587 
8553 
8577 
8541 
8507 
8546 
8550 
8551 
8561 
8518 
8510 
8500 
8487 
8539 
8600 
8543 
8505 
8560 
8588 
8548 
8525 
8540 
8556 
8569 
8536 
8532 
8607 
8586 
8527 
8511 
8621 
8655 
8601 
8607 
8576 
8608 
8606 
8654 
8610 
8647 
8559 
8608 
8628 
8644 
8651 
8647 
8629 
8648 
8687 
8683 
8745 
8824 
8863 
8784 
8769 
8832 
8854 
8801 
8804 
8859 
8905 
8830 
8732 
8743 
8758 
8669 
8638 
8683 
8704 
8617 
8573 
8573 
8580 
8540 
8518 
8500 
8566 
8572 
8495 
8546 
8585 
8526 
8526 
8530 
8568 
8533 
8494 
8476 
8500 
8516 
8522 
8521 
8504 
8514 
8509 
8529 
8486 
8506 
8474 
8520 
8568 
8528 
8542 
8507 
8535 
8546 
8575 
8535 
8503 
8456 
8528 
8609 
8547 
8519 
8500 
8486 
8472 
8544 
8549 
8474 
8446 
8448 
8460 
8539 
8505 
8514 
8470 
8486 
8533 
8559 
8529 
8527 
8528 
8521 
8522 
8564 
8579 
8478 
8431 
8485 
8490 
8521 
8498 
8520 
8499 
8499 
8503 
8506 
8502 
8478 
8506 
8486 
8511 
8509 
8522 
8519 
8546 
8480 
8469 
8448 
8528 
8525 
8468 
8460 
8526 
8496 
8475 
8449 
8496 
8527 
8511 
8508 
8489 
8493 
8481 
8506 
8540 
8496 
8426 
8488 
8531 
8549 
8504 
8489 
8526 
8542 
8514 
8491 
8497 
8495 
8498 
8473 
8483 
8496 
8496 
8518 
8489 
8486 
8499 
8466 
8484 
8496 
8487 
8463 
8506 
8638 
8845 
9044 
9329 
9498 
9416 
9087 
8824 
8702 
8724 
8622 
8566 
8554 
8597 
8578 
8545 
8503 
8567 
8570 
8507 
8526 
8541 
8557 
8501 
8488 
8526 
8563 
8509 
8494 
8485 
8543 
8574 
8542 
8553 
8556 
8590 
8515 
8528 
8554 
8578 
8590 
8565 
8559 
8559 
8543 
8542 
8583 
8613 
8571 
8535 
8538 
8564 
8596 
8591 
8621 
8654 
8724 
8680 
8638 
8722 
8730 
8704 
8703 
8764 
8794 
8773 
8773 
8762 
8748 
8756 
8834 
8800 
8748 
8750 
8728 
8702 
8648 
8595 
8640 
8637 
8611 
8609 
8544 
8554 
8603 
8609 
8587 
8618 
8602 
8554 
8542 
8543 
8608 
8640 
8552 
8563 
8581 
8593 
8565 
8557 
8584 
8610 
8599 
8565 
8560 
8590 
8638 
8570 
8550 
8605 
8570 
8556 
8578 
8569 
8512 
8553 
8579 
8568 
8600 
8606 
8590 
8552 
8586 
8580 
8532 
8565 
8565 
8570 
8535 
8515 
8554 
8554 
8527 
8507 
8545 
8645 
8589 
8612 
8576 
8545 
8510 
8487 
8535 
8568 
8596 
8589 
8568 
8601 
8564 
8513 
8590 
8639 
8540 
8544 
8524 
8571 
8558 
8524 
8493 
8500 
8548 
8505 
8495 
8543 
8551 
8540 
8592 
8592 
8584 
8496 
8513 
8598 
8671 
8621 
8539 
8543 
8611 
8637 
8604 
8575 
8592 
8567 
8536 
8515 
8509 
8586 
8521 
8529 
8496 
8504 
8510 
8500 
8506 
8537 
8499 
8455 
8471 
8467 
8460 
8517 
8605 
8740 
8847 
9040 
9259 
9363 
9253 
8968 
8742 
8674 
8613 
8594 
8640 
8605 
8576 
8538 
8515 
8542 
8567 
8522 
8568 
8562 
8559 
8587 
8584 
8539 
8529 
8530 
8514 
8519 
8574 
8584 
8551 
8550 
8542 
8527 
8530 
8519 
8569 
8589 
8578 
8590 
8598 
8658 
8633 
8570 
8613 
8644 
8603 
8658 
8658 
8656 
8636 
8674 
8705 
8767 
8766 
8681 
8687 
8738 
8791 
8790 
8794 
8823 
8825 
8797 
8798 
8856 
8899 
8906 
8840 
8798 
8824 
8784 
8746 
8766 
8726 
8705 
8670 
8603 
8634 
8661 
8601 
8570 
8559 
8571 
8568 
8560 
8510 
8506 
8523 
8533 
8570 
8569 
8567 
8537 
8543 
8495 
8522 
8566 
8602 
8584 
8533 
8538 
8555 
8570 
8592 
8534 
8521 
8595 
8606 
8574 
8556 
8556 
8616 
8557 
8517 
8569 
8607 
8588 
8527 
8575 
8587 
8570 
8542 
8530 
8543 
8555 
8504 
8565 
8627 
8569 
8575 
8620 
8711 
8753 
8778 
8730 
8691 
8752 
8795 
8808 
8807 
8860 
8798 
8780 
8813 
8811 
8855 
8850 
8782 
8829 
8853 
8854 
8862 
8890 
8919 
8862 
8834 
8844 
8893 
8901 
8905 
8926 
8892 
8834 
8925 
8937 
8913 
8869 
8858 
8888 
8915 
8941 
8914 
8938 
8997 
8943 
8903 
8896 
8940 
8955 
8939 
8974 
8987 
9002 
8968 
8970 
8965 
8953 
8895 
8882 
8886 
8923 
8919 
8824 
8882 
8922 
8834 
8838 
8914 
8946 
8837 
8753 
8867 
8990 
9112 
9239 
9495 
9756 
9868 
9665 
9371 
9157 
9119 
9092 
9022 
8950 
9002 
8982 
8902 
8931 
8947 
8921 
8870 
8932 
9008 
8971 
8965 
8963 
8921 
8963 
8948 
8962 
8991 
8989 
8969 
8931 
8958 
8989 
8974 
8980 
9015 
9074 
8995 
8950 
8956 
9036 
9019 
8967 
8999 
9037 
9056 
9064 
9037 
9016 
9052 
9047 
9039 
9109 
9173 
9106 
9069 
9160 
9165 
9171 
9180 
9198 
9242 
9191 
9197 
9219 
9204 
9199 
9181 
9222 
9230 
9222 
9196 
9191 
9185 
9140 
9114 
9086 
9059 
9091 
9031 
9031 
9006 
8988 
9035 
8998 
8957 
9003 
8961 
8938 
8973 
8969 
8929 
8940 
8978 
8951 
9011 
8964 
8977 
9014 
8989 
8919 
8914 
8948 
8984 
8953 
8908 
8953 
9001 
8967 
8956 
8927 
8941 
8938 
8908 
8971 
9070 
9022 
8953 
8974 
8995 
8971 
8948 
8933 
9025 
9033 
8976 
8954 
8955 
8987 
8975 
8901 
8896 
8988 
8954 
8962 
8976 
8995 
8938 
8948 
8931 
8950 
8937 
8955 
8905 
9002 
9010 
8948 
8939 
9025 
9029 
9010 
8932 
8953 
8975 
8952 
8959 
8991 
9007 
8982 
8938 
8953 
8968 
8926 
8892 
8902 
9031 
8965 
8943 
8972 
8973 
8990 
8962 
8970 
8944 
8981 
8922 
8910 
8976 
8999 
8991 
8984 
8978 
9013 
9002 
8995 
9028 
8959 
8972 
9003 
8979 
9043 
9087 
9051 
8994 
9013 
9038 
8986 
8932 
8954 
8962 
8948 
8952 
8963 
9006 
8983 
8946 
8960 
8938 
8962 
8935 
8910 
8970 
8978 
9037 
9155 
9327 
9572 
9832 
9897 
9771 
9470 
9214 
9127 
9075 
9044 
8997 
8925 
8940 
8986 
8998 
8971 
8981 
8984 
8970 
8925 
8980 
9040 
8998 
8987 
8934 
8999 
8997 
8943 
8972 
9022 
9010 
9030 
8978 
9016 
9001 
9012 
9030 
9028 
9030 
8961 
8986 
9030 
9091 
9100 
9041 
9017 
9045 
9032 
9027 
9056 
9108 
9094 
9122 
9157 
9164 
9164 
9165 
9151 
9192 
9264 
9202 
9186 
9229 
9283 
9313 
9220 
9229 
9348 
9354 
9255 
9246 
9263 
9258 
9252 
9235 
9214 
9150 
9161 
9113 
9118 
9105 
9045 
9070 
9060 
9067 
9027 
8968 
8997 
9054 
9011 
8994 
9013 
9047 
9017 
8987 
8995 
9026 
8980 
8959 
9035 
9045 
9033 
9012 
8979 
9012 
9040 
9026 
9023 
9053 
9060 
9038 
9008 
9014 
9034 
9057 
9042 
8992 
8982 
8974 
8992 
8990 
9028 
9009 
8996 
8973 
8997 
9042 
9018 
8999 
9026 
9050 
9022 
9016 
9059 
9066 
9005 
9013 
9010 
9055 
9043 
9011 
9011 
9016 
9007 
8977 
8999 
9001 
8972 
8975 
8972 
9015 
8999 
8955 
8992 
9016 
9012 
8985 
8989 
8985 
8980 
8987 
9024 
9042 
9026 
9037 
9039 
9016 
9024 
9033 
8961 
8958 
9017 
9005 
9037 
8997 
9027 
9073 
9041 
9044 
9098 
9055 
9014 
8957 
8992 
9124 
9074 
9030 
9042 
9095 
9086 
9051 
9081 
9091 
9026 
8987 
9024 
9060 
9047 
9033 
9016 
9021 
9067 
9022 
8981 
8994 
9028 
9044 
9033 
9026 
9099 
9092 
9136 
9257 
9499 
9648 
9805 
9707 
9491 
9244 
9106 
9087 
9082 
9083 
9085 
9037 
9050 
9087 
9122 
9023 
9015 
9057 
9021 
9008 
9034 
9063 
9056 
9006 
9034 
9058 
9042 
9062 
9076 
9015 
9068 
9155 
9130 
9121 
9082 
9080 
9053 
9135 
9133 
9104 
9143 
9166 
9151 
9125 
9151 
9161 
9196 
9167 
9130 
9146 
9203 
9260 
9260 
9288 
9298 
9306 
9265 
9225 
9296 
9401 
9361 
9294 
9394 
9343 
9354 
9330 
9324 
9346 
9308 
9276 
9254 
9265 
9248 
9182 
9162 
9169 
9120 
9114 
9025 
9040 
9005 
8962 
9009 
9050 
8994 
8961 
9004 
9051 
9070 
9001 
8977 
9043 
9033 
9048 
9015 
9016 
9067 
9090 
9052 
9046 
9084 
9059 
9021 
9061 
9113 
9083 
9001 
8980 
9040 
9056 
9043 
9048 
9062 
9084 
9082 
9071 
9054 
9058 
9047 
9057 
9039 
9006 
9029 
9080 
9075 
9094 
9040 
9019 
9075 
9086 
9066 
9028 
9034 
9067 
9054 
8996 
9024 
9019 
9015 
8998 
9046 
9032 
9059 
8993 
8964 
9016 
9009 
9031 
9027 
8944 
9004 
9033 
8983 
8996 
9033 
9078 
9020 
8990 
9025 
9051 
9013 
9032 
9058 
9049 
9037 
9009 
9036 
9103 
9042 
9052 
9053 
9082 
9104 
9094 
9083 
9092 
9105 
9074 
9052 
9093 
9119 
9068 
9034 
9022 
9077 
9048 
9015 
9039 
9065 
9011 
8992 
9051 
9057 
9124 
9232 
9458 
9740 
9903 
9856 
9578 
9281 
9125 
9183 
9164 
9104 
9107 
9084 
9040 
9061 
9090 
9070 
9084 
9092 
9105 
9067 
9047 
9096 
9107 
9108 
9047 
9002 
9056 
9129 
9077 
9066 
9093 
9099 
9120 
9120 
9130 
9090 
9128 
9142 
9167 
9178 
9171 
9106 
9194 
9264 
9246 
9205 
9226 
9239 
9261 
9282 
9239 
9265 
9287 
9307 
9260 
9270 
9314 
9326 
9278 
9300 
9347 
9291 
9337 
9354 
9351 
9274 
9255 
9189 
9112 
9083 
9073 
9108 
9033 
8968 
8917 
8890 
8943 
8926 
8856 
8871 
8941 
8954 
8955 
8967 
8957 
8919 
8983 
8980 
8939 
8986 
8976 
8990 
8980 
8927 
8965 
9001 
9006 
9014 
8976 
8941 
8985 
9037 
9061 
9038 
9044 
9081 
9073 
9061 
9029 
9020 
9049 
8980 
9025 
9060 
9077 
9037 
8994 
9050 
9150 
9103 
8994 
9106 
9154 
9128 
9128 
9109 
9111 
9116 
9119 
9092 
9081 
9143 
9120 
9176 
9203 
9120 
9084 
9013 
9090 
9140 
9191 
9092 
9098 
9112 
9051 
9059 
9037 
9060 
9053 
8995 
8974 
9035 
9058 
9060 
9031 
9024 
9017 
9021 
8982 
8980 
9038 
9020 
9001 
8997 
8990 
8953 
8945 
8930 
8987 
9018 
8979 
8965 
8982 
8956 
8913 
8907 
9007 
9044 
9032 
9004 
9024 
9050 
9035 
9091 
9105 
9086 
9052 
9022 
9066 
9117 
9057 
9036 
9046 
9127 
9096 
9103 
9104 
9088 
9057 
9085 
9124 
9096 
9125 
9065 
9063 
9193 
9291 
9463 
9692 
9916 
9963 
9740 
9439 
9267 
9254 
9222 
9133 
9110 
9180 
9180 
9095 
9045 
9108 
9092 
9052 
9072 
9141 
9135 
9111 
9079 
9078 
9053 
9058 
9100 
9181 
9173 
9138 
9111 
9047 
9107 
9106 
9074 
9140 
9185 
9198 
9140 
9098 
9163 
9190 
9200 
9168 
9154 
9199 
9157 
9151 
9173 
9229 
9187 
9163 
9202 
9274 
9258 
9229 
9254 
9319 
9292 
9270 
9343 
9406 
9381 
9442 
9398 
9400 
9375 
9353 
9344 
9375 
9374 
9331 
9271 
9276 
9276 
9222 
9201 
9236 
9225 
9154 
9116 
9141 
9197 
9160 
9078 
9094 
9140 
9133 
9156 
9173 
9180 
9152 
9110 
9060 
9108 
9129 
9074 
9049 
9119 
9138 
9080 
9024 
9058 
9058 
9058 
9099 
9159 
9119 
9038 
9039 
9062 
9079 
9102 
9099 
9140 
9137 
9069 
9120 
9127 
9136 
9137 
9086 
9108 
9158 
9126 
9079 
9094 
9101 
9140 
9112 
9087 
9104 
9113 
9151 
9116 
9145 
9133 
9079 
9087 
9084 
9121 
9119 
9112 
9080 
9102 
9098 
9059 
9027 
9055 
9097 
9108 
9099 
9093 
9102 
9094 
9115 
9090 
9103 
9098 
9075 
9070 
9088 
9064 
9033 
9039 
9111 
9135 
9087 
9050 
9087 
9121 
9093 
9035 
9051 
9157 
9153 
9097 
9105 
9128 
9134 
9125 
9130 
9211 
9166 
9110 
9128 
9156 
9163 
9178 
9170 
9203 
9163 
9173 
9123 
9154 
9177 
9198 
9173 
9151 
9219 
9232 
9140 
9152 
9196 
9176 
9186 
9194 
9154 
9110 
9140 
9154 
9122 
9074 
9096 
9134 
9132 
9124 
9092 
9037 
9083 
9153 
9179 
9188 
9328 
9559 
9861 
10014 
9998 
9740 
9471 
9303 
9312 
9279 
9237 
9205 
9134 
9163 
9207 
9198 
9189 
9159 
9154 
9132 
9135 
9176 
9154 
9132 
9137 
9207 
9230 
9208 
9201 
9244 
9275 
9214 
9206 
9206 
9262 
9241 
9215 
9193 
9204 
9225 
9264 
9227 
9220 
9239 
9194 
9202 
9234 
9292 
9266 
9224 
9219 
9265 
9284 
9283 
9285 
9333 
9301 
9345 
9356 
9369 
9336 
9369 
9373 
9404 
9395 
9377 
9378 
9432 
9413 
9365 
9372 
9416 
9383 
9324 
9315 
9284 
9319 
9317 
9293 
9276 
9243 
9223 
9146 
9111 
9179 
9216 
9184 
9170 
9178 
9149 
9119 
9127 
9099 
9085 
9069 
9149 
9171 
9211 
9176 
9124 
9156 
9194 
9169 
9155 
9196 
9242 
9205 
9180 
9218 
9225 
9188 
9186 
9153 
9154 
9202 
9207 
9184 
9197 
9181 
9153 
9166 
9169 
9177 
9099 
9070 
9173 
9235 
9200 
9081 
9112 
9156 
9148 
9164 
9161 
9138 
9126 
9174 
9198 
9160 
9152 
9127 
9090 
9112 
9154 
9145 
9124 
9136 
9169 
9056 
9061 
9141 
9184 
9185 
9190 
9171 
9168 
9160 
9156 
9166 
9218 
9180 
9130 
9152 
9183 
9245 
9221 
9212 
9211 
9203 
9152 
9143 
9175 
9182 
9182 
9231 
9195 
9154 
9200 
9167 
9182 
9205 
9195 
9137 
9127 
9158 
9161 
9203 
9166 
9159 
9156 
9177 
9152 
9179 
9235 
9186 
9146 
9208 
9198 
9219 
9212 
9191 
9222 
9205 
9221 
9222 
9247 
9216 
9241 
9243 
9259 
9244 
9203 
9210 
9237 
9238 
9152 
9125 
9223 
9247 
9266 
9238 
9244 
9239 
9260 
9258 
9233 
9227 
9223 
9315 
9337 
9490 
9677 
9883 
10076 
10150 
9914 
9582 
9412 
9359 
9332 
9236 
9222 
9201 
9235 
9196 
9114 
9163 
9233 
9209 
9154 
9163 
9212 
9209 
9202 
9198 
9215 
9228 
9207 
9186 
9254 
9283 
9270 
9239 
9185 
9243 
9265 
9227 
9261 
9290 
9232 
9234 
9285 
9336 
9327 
9245 
9282 
9352 
9322 
9327 
9381 
9392 
9324 
9299 
9342 
9383 
9394 
9402 
9370 
9382 
9471 
9468 
9436 
9470 
9501 
9538 
9483 
9418 
9490 
9520 
9472 
9450 
9509 
9539 
9471 
9422 
9425 
9388 
9322 
9289 
9321 
9271 
9282 
9276 
9253 
9230 
9198 
9165 
9185 
9247 
9177 
9161 
9216 
9213 
9237 
9225 
9228 
9218 
9192 
9219 
9230 
9243 
9259 
9224 
9213 
9248 
9266 
9299 
9296 
9307 
9312 
9247 
9231 
9244 
9254 
9245 
9246 
9272 
9260 
9210 
9166 
9192 
9239 
9245 
9207 
9210 
9224 
9184 
9184 
9230 
9238 
9262 
9269 
9256 
9270 
9260 
9199 
9195 
9243 
9224 
9214 
9304 
9285 
9254 
9209 
9190 
9208 
9280 
9230 
9231 
9160 
9245 
9271 
9203 
9219 
9285 
9260 
9265 
9241 
9259 
9273 
9220 
9202 
9273 
9314 
9289 
9269 
9258 
9290 
9257 
9262 
9270 
9317 
9280 
9247 
9233 
9265 
9226 
9172 
9165 
9187 
9170 
9142 
9172 
9151 
9151 
9070 
9115 
9167 
9209 
9193 
9187 
9150 
9192 
9241 
9250 
9232 
9283 
9286 
9214 
9212 
9261 
9299 
9320 
9311 
9301 
9303 
9325 
9293 
9318 
9322 
9266 
9246 
9248 
9257 
9231 
9209 
9211 
9297 
9305 
9204 
9206 
9287 
9337 
9298 
9302 
9375 
9588 
9782 
10013 
10181 
10167 
9838 
9591 
9486 
9494 
9442 
9425 
9338 
9345 
9291 
9273 
9273 
9324 
9300 
9334 
9325 
9298 
9254 
9256 
9292 
9314 
9302 
9269 
9252 
9248 
9245 
9278 
9227 
9273 
9322 
9287 
9230 
9232 
9343 
9322 
9286 
9242 
9273 
9323 
9317 
9317 
9305 
9293 
9344 
9338 
9353 
9400 
9377 
9388 
9437 
9445 
9458 
9446 
9492 
9487 
9493 
9467 
9479 
9560 
9468 
9438 
9522 
9502 
9510 
9492 
9485 
9549 
9531 
9440 
9460 
9444 
9475 
9443 
9406 
9447 
9412 
9334 
9343 
9344 
9339 
9315 
9267 
9270 
9321 
9301 
9257 
9267 
9292 
9221 
9192 
9231 
9307 
9322 
9286 
9255 
9253 
9294 
9247 
9340 
9297 
9291 
9236 
9233 
9276 
9302 
9260 
9242 
9277 
9285 
9279 
9279 
9303 
9313 
9311 
9241 
9276 
9294 
9326 
9293 
9258 
9215 
9297 
9295 
9314 
9309 
9211 
9268 
9287 
9286 
9331 
9327 
9262 
9311 
9380 
9343 
9286 
9280 
9381 
9383 
9300 
9279 
9403 
9381 
9316 
9310 
9298 
9281 
9264 
9351 
9262 
9168 
9222 
9206 
9218 
9278 
9232 
9182 
9222 
9237 
9211 
9277 
9251 
9196 
9160 
9140 
9145 
9207 
9201 
9117 
9166 
9253 
9208 
9160 
9213 
9277 
9317 
9330 
9378 
9379 
9428 
9379 
9281 
9299 
9357 
9405 
9380 
9332 
9339 
9332 
9331 
9336 
9346 
9301 
9263 
9244 
9260 
9344 
9287 
9262 
9247 
9284 
9310 
9285 
9276 
9333 
9288 
9259 
9293 
9297 
9301 
9292 
9317 
9478 
9583 
9775 
10023 
10256 
10313 
10052 
9750 
9591 
9567 
9493 
9427 
9437 
9438 
9376 
9289 
9277 
9349 
9404 
9386 
9364 
9366 
9320 
9332 
9320 
9366 
9364 
9328 
9302 
9379 
9335 
9342 
9308 
9375 
9423 
9396 
9358 
9354 
9379 
9442 
9428 
9449 
9473 
9437 
9406 
9435 
9468 
9369 
9366 
9348 
9372 
9399 
9336 
9291 
9335 
9287 
9208 
9273 
9333 
9335 
9351 
9348 
9342 
9377 
9417 
9418 
9444 
9460 
9473 
9473 
9474 
9496 
9535 
9499 
9495 
9533 
9479 
9401 
9403 
9356 
9342 
9368 
9365 
9300 
9305 
9273 
9219 
9244 
9259 
9223 
9205 
9210 
9271 
9359 
9335 
9313 
9335 
9318 
9306 
9334 
9369 
9335 
9307 
9282 
9362 
9413 
9385 
9315 
9318 
9370 
9358 
9402 
9410 
9418 
9410 
9417 
9388 
9367 
9372 
9381 
9378 
9349 
9404 
9371 
9343 
9366 
9391 
9310 
9328 
9424 
9422 
9409 
9388 
9379 
9385 
9346 
9308 
9362 
9427 
9367 
9319 
9380 
9387 
9401 
9366 
9351 
9378 
9406 
9352 
9386 
9381 
9359 
9421 
9368 
9380 
9433 
9419 
9366 
9399 
9445 
9351 
9329 
9428 
9455 
9417 
9421 
9328 
9278 
9353 
9271 
9267 
9281 
9303 
9209 
9158 
9166 
9083 
9064 
9041 
9104 
9058 
9033 
9085 
9055 
9085 
9137 
9158 
9196 
9217 
9224 
9228 
9217 
9287 
9248 
9227 
9240 
9312 
9335 
9297 
9277 
9301 
9393 
9326 
9281 
9310 
9357 
9362 
9376 
9451 
9583 
9658 
9895 
10208 
10384 
10306 
9973 
9669 
9606 
9589 
9531 
9498 
9511 
9482 
9473 
9468 
9523 
9530 
9524 
9486 
9493 
9504 
9506 
9446 
9465 
9545 
9506 
9463 
9465 
9519 
9487 
9501 
9485 
9475 
9546 
9534 
9489 
9491 
9507 
9492 
9551 
9593 
9555 
9538 
9557 
9582 
9612 
9589 
9585 
9576 
9601 
9552 
9568 
9629 
9706 
9647 
9651 
9665 
9724 
9742 
9711 
9695 
9719 
9732 
9738 
9743 
9749 
9737 
9723 
9739 
9797 
9814 
9779 
9752 
9747 
9754 
9689 
9644 
9644 
9600 
9616 
9623 
9601 
9636 
9584 
9481 
9497 
9600 
9633 
9623 
9548 
9519 
9530 
9537 
9526 
9534 
9591 
9582 
9533 
9545 
9577 
9579 
9529 
9541 
9580 
9555 
9560 
9563 
9650 
9654 
9626 
9586 
9621 
9571 
9596 
9595 
9582 
9581 
9547 
9515 
9551 
9591 
9431 
9376 
9315 
9323 
9291 
9266 
9254 
9292 
9334 
9247 
9254 
9272 
9273 
9301 
9295 
9321 
9339 
9336 
9323 
9383 
9408 
9341 
9427 
9518 
9525 
9485 
9545 
9540 
9542 
9581 
9546 
9573 
9587 
9576 
9551 
9549 
9632 
9701 
9646 
9626 
9689 
9734 
9712 
9670 
9679 
9658 
9611 
9571 
9583 
9599 
9575 
9578 
9564 
9578 
9554 
9585 
9605 
9592 
9587 
9575 
9607 
9649 
9776 
9769 
9862 
10098 
10312 
10372 
10295 
10116 
9852 
9688 
9700 
9691 
9680 
9666 
9650 
9661 
9644 
9688 
9701 
9638 
9614 
9666 
9741 
9677 
9653 
9667 
9645 
9544 
9423 
9412 
9387 
9336 
9204 
9126 
9166 
9218 
9176 
9162 
9245 
9268 
9230 
9264 
9240 
9352 
9371 
9393 
9416 
9446 
9421 
9380 
9388 
9413 
9406 
9351 
9413 
9413 
9463 
9433 
9470 
9478 
9504 
9507 
9566 
9691 
9665 
9615 
9623 
9679 
9744 
9718 
9747 
9800 
9767 
9651 
9720 
9755 
9738 
9659 
9638 
9609 
9608 
9607 
9606 
9590 
9549 
9527 
9492 
9498 
9521 
9563 
9563 
9580 
9574 
9611 
9596 
9579 
9664 
9686 
9740 
9645 
9630 
9699 
9676 
9629 
9647 
9707 
9714 
9676 
9646 
9674 
9627 
9578 
9599 
9661 
9617 
9589 
9609 
9685 
9665 
9645 
9694 
9715 
9685 
9701 
9713 
9719 
9757 
9735 
9699 
9730 
9762 
9738 
9661 
9658 
9733 
9752 
9687 
9724 
9802 
9765 
9704 
9713 
9732 
9727 
9815 
9830 
9881 
9830 
9786 
9724 
9764 
9816 
9811 
9809 
9865 
9818 
9783 
9722 
9768 
9794 
9749 
9688 
9763 
9816 
9757 
9689 
9701 
9789 
9843 
9760 
9738 
9767 
9798 
9802 
9823 
9916 
10113 
10387 
10579 
10638 
10499 
10212 
9932 
9873 
9903 
9888 
9843 
9863 
9864 
9855 
9797 
9801 
9843 
9859 
9804 
9764 
9810 
9832 
9779 
9767 
9807 
9929 
9868 
9734 
9814 
9889 
9883 
9853 
9867 
9935 
9948 
9872 
9908 
9933 
9959 
9885 
9923 
9920 
9936 
9931 
9912 
9929 
9888 
9901 
9857 
9904 
9958 
9970 
9913 
9913 
9919 
9924 
9911 
10002 
10021 
10043 
9987 
9939 
9948 
9976 
9948 
9840 
9838 
9865 
9843 
9724 
9638 
9571 
9310 
9109 
9013 
8865 
8647 
8398 
8243 
8250 
8217 
8085 
8105 
8201 
8358 
8499 
8634 
8741 
8902 
9073 
9173 
9294 
9412 
9340 
9181 
9180 
9239 
9257 
9257 
9221 
9200 
9179 
9066 
9025 
9034 
9060 
9006 
8996 
9100 
9169 
9114 
9097 
9084 
9103 
9066 
9008 
9059 
9126 
9060 
9042 
8994 
8984 
9013 
9045 
9101 
9092 
8987 
8963 
9031 
9061 
9124 
9100 
9097 
9101 
9142 
9088 
8989 
8779 
8580 
8300 
7895 
7406 
6832 
5951 
4766 
3533 
2232 
858 
-458 
-1531 
-2500 
-3331 
-4200 
-4931 
-5646 
-6317 
-6980 
-7484 
-7879 
-8264 
-8703 
-9061 
-9246 
-9398 
-9649 
-9921 
-10021 
-10053 
-10121 
-10203 
-10057 
-9731 
-9430 
-9087 
-8572 
-8060 
-7700 
-7613 
-7635 
-7659 
-7504 
-7195 
-6838 
-6406 
-6013 
-5629 
-5137 
-4583 
-4119 
-3705 
-3222 
-2699 
-2240 
-1861 
-1512 
-1127 
-819 
-510 
-333 
-218 
-122 
-188 
-326 
-453 
-610 
-795 
-1051 
-1187 
-1283 
-1362 
-1450 
-1488 
-1546 
-1681 
-1990 
-2251 
-2387 
-2545 
-2677 
-2702 
-2607 
-2413 
-2229 
-2123 
-1858 
-1462 
-1036 
-749 
-303 
58 
427 
761 
1144 
1663 
2219 
2690 
3168 
3724 
4300 
4731 
5163 
5697 
6187 
6477 
6751 
7122 
7456 
7728 
7971 
8264 
8512 
8681 
8742 
8929 
9140 
9354 
9450 
9570 
9748 
9922 
10063 
10149 
10340 
10484 
10492 
10550 
10680 
10812 
10923 
11022 
11142 
11202 
11221 
11181 
11230 
11251 
11242 
11168 
11188 
11181 
11139 
11099 
11099 
11151 
11144 
11069 
11048 
11015 
10991 
10948 
10896 
10917 
10962 
10845 
10805 
10868 
10838 
10795 
10703 
10736 
10798 
10827 
10695 
10724 
10757 
10734 
10669 
10658 
10734 
10772 
10682 
10689 
10717 
10764 
10724 
10691 
10753 
10787 
10793 
10749 
10761 
10786 
10753 
10697 
10721 
10749 
10733 
10679 
10651 
10719 
10725 
10679 
10732 
10747 
10785 
10720 
10688 
10714 
10699 
10664 
10637 
10726 
10818 
10922 
11070 
11342 
11569 
11469 
11117 
10876 
10815 
10793 
10672 
10569 
10547 
10559 
10487 
10516 
10571 
10601 
10552 
10467 
10521 
10578 
10567 
10515 
10536 
10550 
10591 
10536 
10528 
10556 
10549 
10404 
10395 
10430 
10483 
10396 
10350 
10359 
10387 
10307 
10247 
10275 
10289 
10242 
10171 
10209 
10307 
10328 
10236 
10265 
10322 
10341 
10297 
10357 
10441 
10469 
10338 
10367 
10434 
10496 
10455 
10455 
10550 
10634 
10576 
10523 
10601 
10660 
10630 
10654 
10746 
10790 
10720 
10574 
10516 
10484 
10308 
10031 
9847 
9626 
9384 
8932 
8552 
8201 
7748 
7148 
6564 
6177 
5756 
5206 
4818 
4645 
4575 
4427 
4337 
4379 
4607 
4794 
4920 
5151 
5419 
5669 
5841 
6139 
6475 
6803 
7074 
7364 
7743 
8122 
8361 
8603 
8846 
9044 
9167 
9329 
9499 
9575 
9603 
9633 
9812 
9988 
10001 
9969 
10016 
10114 
10163 
10109 
10173 
10255 
10285 
10243 
10257 
10336 
10369 
10316 
10353 
10474 
10483 
10425 
10439 
10469 
10584 
10593 
10560 
10601 
10625 
10657 
10611 
10643 
10739 
10729 
10609 
10629 
10681 
10733 
10693 
10660 
10678 
10685 
10648 
10638 
10670 
10721 
10705 
10648 
10671 
10730 
10705 
10625 
10667 
10759 
10801 
10805 
10920 
11152 
11486 
11671 
11731 
11590 
11264 
10951 
10928 
10967 
10904 
10814 
10775 
10848 
10905 
10829 
10730 
10803 
10936 
10933 
10813 
10843 
10939 
10910 
10889 
10907 
10907 
10964 
10895 
10903 
10974 
10984 
10905 
10933 
11029 
11040 
10978 
10954 
11003 
11005 
10978 
10947 
11036 
11085 
11067 
10993 
10991 
11058 
11090 
11008 
11047 
11110 
11127 
11008 
11030 
11147 
11208 
11161 
11086 
11159 
11224 
11185 
11130 
11223 
11306 
11256 
11175 
11252 
11306 
11222 
11188 
11241 
11240 
11187 
11080 
11072 
11079 
11068 
10965 
10937 
10974 
10992 
10899 
10889 
10958 
10966 
10842 
10811 
10869 
10920 
10932 
10863 
10910 
10955 
10944 
10843 
10921 
10983 
10913 
10833 
10832 
10949 
11031 
10921 
10893 
10972 
11006 
11012 
10973 
11023 
11106 
11023 
10988 
10954 
11028 
11029 
10967 
10997 
11073 
11057 
11024 
11089 
11114 
11117 
11034 
11032 
11104 
11155 
11055 
11025 
11049 
11058 
11026 
10988 
11057 
11093 
11025 
11006 
11071 
11106 
11098 
11023 
11054 
11151 
11133 
11021 
11017 
11036 
11058 
10994 
11018 
11054 
11066 
11050 
11021 
11004 
11012 
11027 
11014 
11051 
11047 
11046 
11047 
11090 
11049 
11011 
11052 
11064 
11048 
11001 
11005 
10988 
10984 
11019 
11039 
11042 
11023 
10976 
10971 
11024 
10988 
10928 
10965 
11010 
11041 
11123 
11227 
11420 
11653 
11847 
11855 
11648 
11447 
11194 
11083 
11072 
11021 
10991 
10935 
10932 
10945 
10942 
10925 
10871 
10928 
10959 
10900 
10870 
10949 
11001 
11016 
11049 
11080 
11136 
11172 
11188 
11249 
11293 
11276 
11262 
11354 
11454 
11451 
11475 
11529 
11594 
11655 
11618 
11628 
11688 
11740 
11760 
11746 
11726 
11760 
11726 
11727 
11746 
11773 
11757 
11757 
11767 
11746 
11728 
11703 
11767 
11782 
11807 
11795 
11807 
11859 
11813 
11727 
11725 
11762 
11716 
11704 
11693 
11655 
11630 
11590 
11570 
11569 
11524 
11455 
11386 
11390 
11421 
11343 
11333 
11353 
11351 
11356 
11305 
11318 
11382 
11386 
11241 
11131 
11028 
11026 
11000 
10938 
10834 
10819 
10865 
10889 
10862 
10843 
10839 
10824 
10824 
10839 
10815 
10775 
10725 
10690 
10698 
10651 
10670 
10758 
10793 
10804 
10761 
10820 
10932 
11035 
10922 
10812 
10719 
10574 
10621 
10615 
10286 
10080 
9977 
9967 
9831 
9754 
9743 
9738 
9743 
9831 
9813 
9734 
9926 
10236 
10345 
10381 
10513 
10609 
10540 
10398 
10424 
10517 
10555 
10530 
10443 
10519 
10628 
10590 
10602 
10611 
10613 
10679 
10813 
11040 
11166 
11160 
11204 
11372 
11415 
11427 
11421 
11451 
11450 
11430 
11494 
11549 
11573 
11555 
11581 
11548 
11422 
11228 
11068 
10923 
10704 
10315 
9930 
9596 
9316 
9105 
8872 
8756 
8736 
8485 
8104 
7579 
7142 
6871 
6577 
6374 
6190 
5942 
5539 
5106 
4979 
4584 
4258 
3930 
3692 
3545 
3389 
3301 
3237 
3091 
2615 
1872 
925 
-126 
-471 
-268 
-111 
-96 
-587 
-1170 
-935 
-479 
-45 
215 
189 
-15 
-209 
-491 
-951 
-1521 
-2185 
-2784 
-3249 
-3743 
-4427 
-5256 
-6079 
-6698 
-7396 
-7970 
-8425 
-8859 
-9179 
-9284 
-9515 
-9466 
-9502 
-9824 
-10424 
-10925 
-11626 
-12551 
-13541 
-14446 
-15107 
-15537 
-16236 
-17428 
-18019 
-17339 
-16885 
-16284 
-15673 
-14796 
-13609 
-12452 
-10924 
-9341 
-7741 
-6231 
-4926 
-3880 
-2804 
-1599 
-325 
975 
2265 
3316 
4173 
4781 
5266 
5772 
6214 
6831 
7393 
7624 
7833 
8176 
8513 
8858 
9123 
9426 
9630 
9937 
10035 
10106 
10230 
10459 
10624 
10733 
10830 
11005 
11185 
11269 
11324 
11425 
11524 
11682 
11799 
11912 
12066 
12141 
12308 
12442 
12539 
12637 
12669 
12789 
13008 
13105 
13082 
13179 
13380 
13388 
13556 
13677 
13715 
13873 
13898 
13966 
14228 
14336 
14304 
14431 
14597 
14662 
14803 
14869 
14800 
14844 
14871 
14843 
14688 
14452 
14080 
13744 
13098 
12387 
11978 
11886 
11725 
11467 
11266 
11181 
11175 
11177 
11139 
11163 
11121 
11145 
11302 
11353 
11526 
11616 
11735 
11819 
11889 
12163 
12424 
12495 
12864 
13209 
13453 
13639 
13885 
13957 
13772 
13531 
13353 
13134 
13015 
12993 
13006 
12666 
12453 
12390 
12149 
11871 
11692 
11521 
11248 
11145 
11124 
11194 
11449 
11766 
12041 
12300 
12267 
11802 
11545 
11536 
11501 
11585 
11605 
11626 
11753 
11650 
11517 
11451 
11499 
11591 
11690 
11702 
11506 
11379 
11240 
10955 
10686 
10523 
10362 
10151 
9946 
9729 
9708 
9603 
9645 
9783 
9696 
9758 
9971 
10358 
10443 
10400 
10536 
10923 
11026 
11062 
11280 
11150 
10938 
10986 
10873 
10756 
10804 
10709 
10686 
10668 
10602 
10517 
10631 
10718 
10842 
11049 
11214 
11251 
11261 
11236 
11291 
11269 
11149 
11053 
10958 
10861 
10636 
10532 
10680 
10719 
10892 
10822 
11046 
11198 
11212 
11240 
11404 
11467 
11495 
11657 
11691 
11549 
11010 
10867 
10800 
10609 
10683 
10946 
11037 
11185 
11363 
11542 
11639 
11579 
11637 
11744 
11662 
11715 
11880 
12019 
12073 
12009 
11677 
11860 
12155 
12251 
12401 
12685 
12812 
12735 
13063 
13189 
13127 
13191 
13288 
13290 
13367 
13637 
13716 
13730 
13692 
13729 
13759 
13740 
13800 
13870 
13818 
13571 
13423 
13355 
13304 
13336 
13388 
13384 
13381 
13401 
13279 
13154 
12946 
12742 
12776 
12854 
12704 
12558 
12630 
12479 
12527 
12610 
12410 
12535 
12732 
12653 
12592 
12716 
12679 
12402 
12331 
12104 
12044 
12143 
12258 
12278 
12333 
12371 
12332 
12343 
12411 
12354 
12463 
12525 
12573 
12720 
12744 
12813 
12712 
12819 
12713 
12608 
12554 
12727 
12643 
12392 
12482 
12668 
12502 
12575 
12737 
12586 
12614 
12447 
12498 
12777 
12648 
12552 
12625 
12670 
12729 
12662 
12794 
12819 
12809 
12863 
13005 
12992 
12962 
13170 
13105 
13211 
13109 
12930 
12988 
12851 
12900 
12898 
12878 
12882 
12833 
12720 
12605 
12610 
12506 
12337 
12155 
12225 
12289 
12219 
12422 
12833 
12999 
13169 
13183 
12980 
12617 
12231 
11952 
11946 
11824 
11669 
11365 
10996 
10997 
11124 
11063 
11022 
11056 
11137 
11201 
11024 
11254 
11294 
11161 
11210 
11344 
11391 
11284 
11144 
11325 
11334 
11280 
11276 
11303 
11342 
11400 
11325 
11302 
11369 
11295 
11261 
11354 
11451 
11402 
11255 
11240 
11303 
11423 
11470 
11449 
11401 
11568 
11613 
11543 
11658 
11623 
11637 
11515 
11458 
11463 
11276 
11279 
11331 
11509 
11480 
11471 
11658 
11620 
11482 
11381 
11401 
11235 
11266 
11365 
11165 
11026 
10951 
10904 
10814 
10775 
10885 
10799 
10744 
10770 
10768 
10812 
10701 
10897 
10833 
10707 
10760 
10706 
10733 
10849 
10989 
10765 
10669 
10781 
10824 
10850 
10786 
10653 
10635 
10446 
10479 
10412 
10466 
10569 
10606 
10631 
10515 
10378 
10577 
10569 
10479 
10552 
10535 
10458 
10395 
10325 
10523 
10631 
10549 
10385 
10411 
10489 
10224 
10173 
10325 
10423 
10114 
9980 
10285 
10484 
10463 
10445 
10488 
10303 
10296 
10414 
10342 
10275 
10459 
10488 
10363 
10249 
10214 
10134 
10153 
10233 
10215 
10302 
10425 
10287 
10199 
10205 
10222 
10224 
10210 
10172 
10175 
10019 
10066 
10107 
10104 
10120 
10115 
10085 
10047 
10070 
10007 
10021 
10118 
10251 
10151 
9927 
10039 
10092 
10099 
10034 
9914 
10013 
10039 
9926 
10093 
10052 
9822 
9848 
9937 
9898 
9915 
9877 
9881 
9807 
9885 
10028 
9890 
9879 
9948 
9917 
9832 
9859 
9972 
9889 
9875 
9928 
9898 
9879 
9847 
9768 
9920 
10127 
9912 
9736 
9860 
9929 
9796 
9848 
10034 
10062 
10017 
9916 
10024 
10155 
10058 
10190 
10293 
10190 
10117 
10284 
10332 
10379 
10356 
10480 
10771 
11064 
11227 
11039 
10869 
10587 
10128 
10017 
10370 
10202 
9912 
9768 
9713 
9822 
9797 
9574 
9641 
9850 
9734 
9663 
9608 
9599 
9666 
9609 
9496 
9655 
9672 
9510 
9717 
9831 
9648 
9485 
9679 
9786 
9631 
9628 
9706 
9609 
9788 
9670 
9792 
9855 
9818 
9712 
9673 
9749 
9676 
9810 
9700 
9686 
9780 
9775 
9633 
9783 
9681 
9736 
9651 
9519 
9621 
9694 
9739 
9790 
9765 
9776 
9734 
9631 
9649 
9772 
9734 
9721 
9903 
9765 
9670 
9609 
9623 
9502 
9546 
9520 
9395 
9453 
9581 
9548 
9495 
9375 
9381 
9340 
9329 
9308 
9370 
9361 
9239 
9190 
9240 
9371 
9378 
9298 
9316 
9240 
9225 
9300 
9313 
9350 
9379 
9359 
9287 
9262 
9373 
9339 
9280 
9270 
9301 
9216 
9130 
9263 
9241 
9369 
9307 
9399 
9369 
9264 
9332 
9384 
9324 
9256 
9222 
9275 
9350 
9339 
9176 
9235 
9342 
9279 
9249 
9150 
9187 
9145 
9135 
9159 
9037 
9200 
9238 
9334 
9366 
9186 
9230 
9296 
9287 
9228 
9211 
9222 
9217 
9338 
9187 
9067 
9124 
9289 
9313 
9083 
9092 
9105 
9252 
9359 
9251 
9232 
9249 
9254 
9180 
9321 
9340 
9239 
9245 
9452 
9721 
9508 
9482 
9548 
9470 
9431 
9214 
9296 
9420 
9467 
9377 
9287 
9368 
9454 
9368 
9425 
9516 
9477 
9438 
9344 
9289 
9335 
9378 
9385 
9436 
9459 
9389 
9415 
9370 
9356 
9316 
9368 
9388 
9437 
9452 
9348 
9510 
9541 
9507 
9314 
9458 
9510 
9446 
9563 
9355 
9333 
9477 
9482 
9375 
9317 
9440 
9301 
9300 
9412 
9577 
9479 
9542 
9597 
9601 
9875 
10157 
10387 
10269 
10097 
9724 
9594 
9720 
9583 
9525 
9652 
9661 
9586 
9470 
9516 
9622 
9565 
9581 
9526 
9572 
9605 
9640 
9622 
9403 
9362 
9626 
9644 
9636 
9583 
9509 
9620 
9628 
9570 
9518 
9576 
9634 
9589 
9602 
9456 
9460 
9603 
9682 
9620 
9486 
9503 
9653 
9625 
9514 
9503 
9594 
9706 
9473 
9322 
9433 
9557 
9643 
9639 
9726 
9708 
9762 
9778 
9823 
9729 
9705 
9866 
9876 
9949 
9992 
10019 
9998 
10175 
10346 
10026 
10166 
10298 
10260 
10225 
10269 
10421 
10393 
10288 
10340 
10322 
10317 
10377 
10319 
10243 
10253 
10159 
10047 
9945 
9919 
9960 
9661 
9621 
9900 
10191 
10315 
10251 
10334 
10545 
10677 
10698 
10791 
10921 
11016 
11098 
11066 
11039 
11218 
11274 
11259 
11295 
11174 
11146 
11250 
11252 
11233 
11286 
11415 
11492 
11507 
11470 
11302 
11202 
11269 
11419 
11338 
11367 
11444 
11534 
11498 
11523 
11586 
11577 
11534 
11510 
11727 
11753 
11673 
11578 
11844 
11766 
11732 
11556 
11618 
11776 
11537 
11437 
11683 
11757 
11695 
11626 
11607 
11583 
11637 
11553 
11532 
11608 
11512 
11325 
11385 
11598 
11541 
11219 
11172 
11182 
11228 
11244 
11217 
11315 
11278 
11055 
11072 
11079 
11091 
11101 
11103 
11181 
11141 
10989 
10901 
10812 
10884 
10943 
10989 
11039 
10997 
10896 
10959 
11041 
11024 
11128 
11348 
11611 
11634 
11560 
11320 
11111 
10913 
10820 
10811 
10730 
10671 
10703 
10823 
10681 
10472 
10516 
10562 
10539 
10467 
10506 
10614 
10647 
10706 
10679 
10792 
11176 
11292 
11134 
11185 
11306 
11408 
11525 
11688 
11689 
11418 
11376 
11483 
11368 
11170 
11192 
11495 
11580 
11783 
11970 
12038 
11952 
11984 
12132 
12096 
11953 
11721 
11821 
11919 
11645 
11478 
11468 
11408 
11510 
11722 
12036 
12112 
12127 
12406 
12596 
12468 
12211 
11905 
11824 
11768 
11464 
11299 
11365 
11446 
11514 
11527 
11592 
11581 
11587 
11605 
11662 
11688 
11608 
11561 
11548 
11385 
11446 
11319 
11360 
11214 
11084 
11133 
11062 
11002 
11050 
11181 
11218 
11281 
11247 
11173 
11291 
11302 
11236 
11302 
11437 
11444 
11373 
11476 
11828 
11937 
11776 
11741 
11839 
11861 
11906 
11869 
11842 
11846 
11755 
11593 
11424 
11344 
11375 
11427 
11512 
11625 
11541 
11561 
11930 
12067 
12102 
12212 
12353 
12434 
12455 
12458 
12373 
12366 
12300 
12215 
12204 
12220 
12224 
12182 
12228 
12275 
12317 
12334 
12376 
12432 
12620 
12675 
12672 
12578 
12670 
12755 
12875 
12870 
12935 
13036 
13131 
13221 
13276 
13335 
13386 
13462 
13431 
13254 
13364 
13489 
13470 
13502 
13612 
13477 
13535 
13602 
13439 
13593 
13792 
13873 
13947 
13754 
13844 
13888 
13904 
13823 
13717 
13576 
13480 
13462 
13501 
13778 
14056 
14420 
14703 
14931 
14884 
14599 
14419 
14413 
14345 
14400 
14458 
14512 
14580 
14648 
14691 
14844 
15072 
15218 
15194 
15108 
14955 
15002 
15020 
14944 
14888 
14844 
14816 
14753 
14725 
14647 
14662 
14656 
14714 
14781 
14745 
14685 
14599 
14489 
14460 
14359 
14333 
14325 
14312 
14327 
14294 
14266 
14247 
14213 
14227 
14312 
14280 
14391 
14493 
14415 
14493 
14467 
14453 
14545 
14524 
14552 
14590 
14472 
14635 
14671 
14372 
14047 
13824 
13649 
13276 
12893 
12436 
11913 
11242 
10658 
10244 
9586 
8849 
8401 
8114 
7915 
7564 
7339 
7296 
7119 
6877 
6579 
6294 
6188 
6064 
5792 
5577 
5461 
5214 
5023 
4883 
4689 
4541 
4554 
4589 
4672 
4803 
4913 
5147 
5453 
5691 
5936 
6170 
6368 
6522 
6820 
6973 
7247 
7570 
7671 
7787 
7871 
7988 
8161 
8351 
8541 
8767 
9017 
9202 
9246 
9520 
9874 
10053 
10359 
10610 
10814 
11035 
11312 
11496 
11620 
11885 
12151 
12221 
12510 
12567 
12648 
12703 
12693 
12622 
12444 
12246 
12150 
11942 
11459 
10956 
10451 
9843 
9008 
8183 
7377 
6535 
5695 
4917 
4133 
3233 
2588 
1987 
1372 
890 
402 
-71 
-513 
-932 
-1444 
-1965 
-2285 
-2539 
-2591 
-2565 
-2447 
-2254 
-2043 
-1700 
-1374 
-1103 
-697 
-39 
787 
1330 
2182 
2819 
3570 
4439 
5346 
6218 
6939 
7480 
7856 
8207 
8658 
8917 
9338 
9637 
9901 
10187 
10489 
10674 
10693 
11069 
11429 
11699 
11812 
11887 
11996 
12204 
12360 
12420 
12490 
12816 
12886 
13034 
13186 
13511 
13836 
14042 
14323 
14502 
14720 
14852 
14943 
14942 
14914 
15040 
15060 
14873 
14755 
14657 
14437 
14089 
13655 
13395 
13020 
12516 
12254 
11894 
11330 
10942 
10549 
10222 
10106 
10113 
10174 
10118 
10092 
9910 
10028 
10382 
10527 
10813 
11184 
11563 
11766 
11899 
11994 
12164 
12436 
12515 
12677 
12736 
12751 
12699 
12804 
12887 
12904 
12880 
12906 
13064 
13175 
13257 
13299 
13350 
13338 
13317 
13323 
13329 
13351 
13458 
13472 
13461 
13529 
13595 
13501 
13532 
13634 
13673 
13660 
13647 
13691 
13670 
13685 
13748 
13630 
13709 
13771 
13898 
13777 
13662 
13675 
13718 
13830 
13925 
13919 
13839 
13725 
13734 
13691 
13737 
13824 
13826 
13779 
13827 
13813 
13931 
13987 
14038 
14070 
14144 
14000 
14070 
14027 
13926 
13886 
13763 
13818 
13827 
13842 
13763 
13830 
13842 
13923 
14059 
14169 
14066 
13916 
13755 
13807 
13928 
13915 
13926 
13928 
13912 
14047 
14299 
14548 
14635 
14836 
15893 
19090 
21617 
24473 
25580 
25586 
25379 
24221 
23065 
22083 
21034 
20338 
20363 
21586 
24101 
22152 
20758 
21286 
20279 
19792 
19386 
19234 
19178 
19029 
18346 
17711 
17510 
17307 
17042 
17426 
16803 
16404 
16143 
16155 
16401 
16613 
16844 
17080 
17220 
17241 
17263 
17201 
17152 
17141 
17205 
17324 
17454 
17620 
17900 
18342 
19007 
20000 
21278 
21973 
22055 
21697 
21144 
19916 
18499 
17052 
15721 
14949 
14810 
15068 
15597 
16352 
17039 
17682 
18119 
17804 
16326 
13236 
8577 
3933 
-63 
-3097 
-5968 
-9454 
-13608 
-17526 
-20538 
-22893 
-24929 
-27000 
-29278 
-31381 
-32421 
-31490 
-29936 
-29538 
-29490 
-28992 
-28154 
-27165 
-25540 
-23801 
-22126 
-20775 
-19409 
-17384 
-14613 
-10814 
-5663 
-844 
2270 
3198 
2515 
1242 
-427 
-2485 
-4836 
-7309 
-9656 
-11794 
-14163 
-16890 
-19718 
-21589 
-22706 
-23405 
-23657 
-23506 
-18060 
4281 
14941 
16252 
16700 
17225 
17692 
17980 
18210 
18391 
18666 
18844 
19229 
19228 
19211 
19116 
19140 
18773 
18808 
18795 
18474 
18367 
18396 
18351 
18322 
18163 
18047 
18096 
18234 
18053 
18050 
18117 
18038 
17850 
17997 
18132 
18055 
18054 
17962 
18043 
18101 
18132 
18029 
18052 
18253 
18241 
18216 
18139 
18077 
18126 
18168 
18084 
18108 
18086 
17966 
17869 
17859 
18018 
18015 
18180 
18245 
18364 
18555 
18564 
18752 
19002 
19054 
18987 
19014 
19210 
19227 
19095 
18998 
19006 
19392 
19961 
20410 
20483 
20160 
20207 
20612 
21278 
22033 
22946 
23807 
24281 
24830 
25527 
25574 
25519 
25827 
27086 
31019 
36393 
40040 
42242 
42586 
42157 
42048 
43150 
46335 
51485 
58152 
66405 
75583 
84780 
93538 
101432 
106059 
107419 
107532 
108952 
112510 
117742 
121602 
122200 
120455 
113924 
104378 
96376 
92026 
86964 
78854 
74082 
68965 
65126 
63542 
59021 
54532 
56079 
61102 
53774 
53205 
54043 
46033 
42111 
38681 
36006 
34537 
31777 
29978 
29035 
28097 
27510 
26563 
25680 
24820 
23809 
22957 
22429 
22384 
22755 
23136 
23488 
23689 
23712 
23715 
23877 
24163 
24324 
24383 
24091 
23695 
23407 
23268 
23576 
24281 
24601 
24743 
24756 
24692 
24461 
24241 
24151 
24179 
24117 
23920 
23690 
23601 
23652 
23740 
23796 
23818 
23828 
23725 
23567 
23404 
23274 
23092 
22873 
22593 
22432 
22203 
21873 
21460 
21096 
20779 
20514 
20238 
20043 
19826 
19568 
19327 
19198 
19211 
19224 
19201 
19205 
19266 
19246 
19149 
19001 
18904 
18733 
18504 
18242 
18039 
17753 
17383 
16925 
16518 
16084 
15568 
14943 
14347 
13736 
13062 
12351 
11712 
11170 
10629 
10085 
9593 
9178 
8668 
7950 
7163 
6496 
5871 
5366 
4872 
4427 
3929 
3431 
2998 
2701 
2383 
2100 
1909 
1900 
1931 
1781 
1337 
894 
429 
-113 
-599 
-991 
-1314 
-1886 
-2631 
-3389 
-4075 
-4865 
-5710 
-6612 
-7447 
-8306 
-9142 
-9956 
-10564 
-11075 
-11574 
-12094 
-12515 
-12867 
-13176 
-13513 
-13771 
-13857 
-13876 
-13876 
-13842 
-13712 
-13630 
-13576 
-13477 
-13310 
-13056 
-12734 
-12641 
-12693 
-13032 
-13606 
-14373 
-15101 
-15790 
-16491 
-17220 
-17829 
-18351 
-18889 
-19440 
-19891 
-20207 
-20504 
-20770 
-20938 
-20935 
-20920 
-20906 
-20882 
-20739 
-20631 
-20552 
-20507 
-20314 
-20011 
-19665 
-19366 
-19051 
-18878 
-18813 
-18819 
-18796 
-18808 
-18856 
-19001 
-19269 
-19567 
-19923 
-20475 
-20973 
-21291 
-21548 
-21763 
-21994 
-22186 
-22456 
-22758 
-23047 
-22915 
-22355 
-21686 
-21293 
-21211 
-21384 
-21687 
-21996 
-22046 
-21875 
-21888 
-22145 
-22350 
-22605 
-23131 
-23810 
-24467 
-24978 
-25500 
-26049 
-26647 
-27162 
-27731 
-28350 
-29003 
-29534 
-30051 
-30615 
-31257 
-31825 
-32382 
-33001 
-33688 
-34298 
-34835 
-35414 
-36042 
-36649 
-37176 
-37739 
-38350 
-38953 
-39441 
-39977 
-40579 
-41225 
-41764 
-42369 
-43000 
-43617 
-44150 
-44596 
-44982 
-45400 
-45659 
-45854 
-46109 
-46420 
-46671 
-46883 
-47158 
-47436 
-47622 
-47684 
-47818 
-48018 
-48219 
-48309 
-48464 
-48689 
-48959 
-49134 
-49350 
-49608 
-49869 
-49987 
-50107 
-50291 
-50576 
-50806 
-51043 
-51358 
-51745 
-52070 
-52326 
-52622 
-52951 
-53213 
-53281 
-53209 
-53124 
-53225 
-53390 
-53645 
-53910 
-54104 
-54153 
-54326 
-54622 
-54984 
-55207 
-55354 
-55454 
-55549 
-55588 
-55711 
-55985 
-56353 
-56624 
-56824 
-57132 
-57397 
-57373 
-57141 
-57120 
-57376 
-57659 
-57733 
-57837 
-57999 
-58130 
-58020 
-57781 
-57513 
-57360 
-57302 
-57454 
-57729 
-58176 
-58617 
-58967 
-59259 
-59401 
-59209 
-59082 
-59255 
-59646 
-60073 
-60387 
-60720 
-61090 
-61469 
-61752 
-62085 
-62477 
-62904 
-63226 
-63588 
-64050 
-64581 
-64996 
-65379 
-65788 
-66253 
-66621 
-66962 
-67382 
-67878 
-68329 
-68768 
-69353 
-70113 
-70940 
-71737 
-72484 
-73032 
-73491 
-73832 
-74219 
-74673 
-75176 
-75572 
-75993 
-76456 
-76973 
-77408 
-77871 
-78430 
-79187 
-79969 
-80591 
-80935 
-81101 
-80849 
-79744 
-78836 
-78630 
-78781 
-78579 
-78816 
-80531 
-84260 
-91485 
-94588 
-97236 
-102118 
-100403 
-97679 
-94121 
-91498 
-89496 
-88360 
-89331 
-93113 
-94903 
-95425 
-96453 
-98114 
-102026 
-110231 
-123961 
-137475 
-140862 
-133170 
-117750 
-95206 
-65277 
-34737 
-9883 
3393 
9719 
16890 
24426 
31851 
38651 
45081 
48707 
47870 
45808 
44352 
43539 
42680 
42040 
39212 
33655 
28261 
25008 
22682 
21918 
21453 
21418 
21739 
22762 
24183 
25375 
27082 
29119 
32362 
36824 
40117 
38073 
30533 
17474 
10445 
12456 
17697 
24302 
29887 
34180 
36600 
37757 
37588 
36887 
35955 
34020 
31826 
29328 
27570 
26368 
25492 
24695 
23660 
22149 
20252 
18027 
15945 
14429 
13561 
13478 
13791 
13798 
13519 
13445 
13514 
13405 
12916 
12563 
12707 
13348 
13323 
11827 
9894 
9113 
11084 
15476 
18503 
18903 
18599 
17436 
15929 
15063 
14765 
14847 
14813 
14571 
14191 
13576 
12654 
11840 
11148 
10628 
9941 
8352 
7938 
7902 
7786 
7887 
8228 
8522 
9083 
10005 
11095 
12116 
12232 
9886 
8215 
8108 
8857 
8905 
7730 
5611 
2935 
1073 
182 
-1545 
-4795 
-9721 
-14465 
-17681 
-19926 
-21835 
-23481 
-24536 
-25339 
-26090 
-26746 
-26954 
-26945 
-27050 
-27421 
-28137 
-29091 
-30313 
-31708 
-32604 
-32821 
-32871 
-33410 
-35173 
-38521 
-42670 
-45918 
-47658 
-48402 
-49381 
-50858 
-52525 
-54100 
-55542 
-56876 
-58118 
-58902 
-59261 
-59702 
-60319 
-60719 
-60911 
-60937 
-60836 
-60425 
-59644 
-58622 
-57509 
-55974 
-53806 
-51349 
-47620 
-42794 
-39000 
-36370 
-34715 
-33292 
-31361 
-28783 
-25787 
-23171 
-20521 
-17971 
-15388 
-12785 
-9723 
-6836 
-5083 
-4435 
-3613 
-1974 
139 
2389 
4469 
6498 
7699 
8017 
8114 
8122 
7867 
7452 
7222 
7802 
8508 
9051 
9386 
9528 
9014 
7736 
5891 
3873 
1940 
169 
-1393 
-2718 
-3867 
-4697 
-5035 
-4971 
-4866 
-4758 
-4629 
-4343 
-3939 
-3786 
-4136 
-4562 
-4803 
-5142 
-5570 
-5927 
-6062 
-5385 
-4598 
-4141 
-3383 
-1637 
1020 
4297 
6423 
6687 
7928 
5936 
2106 
-2311 
-9299 
-15630 
-20424 
-23058 
-23318 
-22712 
-21569 
-19954 
-18178 
-16444 
-15367 
-15119 
-15676 
-16786 
-18201 
-19655 
-21013 
-22236 
-23283 
-24002 
-24413 
-24732 
-24986 
-25093 
-24986 
-24882 
-24916 
-25130 
-25434 
-25950 
-26617 
-27352 
-27955 
-28515 
-29055 
-29570 
-29908 
-30181 
-30475 
-30832 
-31110 
-31327 
-31618 
-32004 
-32374 
-32691 
-33063 
-33494 
-33904 
-34200 
-34530 
-34887 
-35246 
-35501 
-35806 
-36179 
-36609 
-36962 
-37360 
-37825 
-38359 
-38805 
-39240 
-39726 
-40251 
-40669 
-41024 
-41431 
-41898 
-42319 
-42673 
-43084 
-43542 
-43975 
-44302 
-44662 
-45046 
-45419 
-45660 
-45902 
-46168 
-46448 
-46603 
-46773 
-46989 
-47247 
-47400 
-47529 
-47717 
-47967 
-48159 
-48322 
-48550 
-48836 
-49067 
-49206 
-49390 
-49627 
-49850 
-49969 
-50125 
-50334 
-50565 
-50706 
-50926 
-51192 
-51474 
-51638 
-51811 
-52026 
-52287 
-52448 
-52595 
-52815 
-53101 
-53313 
-53466 
-53675 
-53946 
-54173 
-54312 
-54502 
-54758 
-55035 
-55235 
-55475 
-55713 
-55970 
-56212 
-56554 
-56971 
-57417 
-57725 
-58018 
-58333 
-58667 
-58885 
-59075 
-59318 
-59627 
-59873 
-60066 
-60312 
-60595 
-60815 
-60932 
-61094 
-61309 
-61519 
-61645 
-61849 
-62140 
-62483 
-62647 
-60431 
-53912 
-40563 
-2458 
14197 
15383 
15663 
16110 
16208 
16712 
16844 
17038 
17296 
17333 
17521 
17574 
17463 
17452 
17550 
17480 
17643 
17349 
17338 
17607 
18440 
19174 
19621 
20121 
20785 
21323 
21210 
21006 
20796 
20494 
20285 
19998 
19841 
19531 
19543 
19587 
19676 
19845 
19742 
19077 
17766 
16557 
15624 
14610 
13756 
12960 
12134 
11504 
10935 
11064 
11134 
11486 
12195 
12803 
13329 
13298 
13222 
13483 
13938 
13861 
13977 
14013 
13850 
14077 
14527 
14329 
14416 
14579 
14441 
14462 
14675 
15013 
15146 
14916 
14978 
15283 
15145 
15301 
15376 
15202 
15236 
15111 
15281 
15243 
14782 
14589 
14733 
15055 
15238 
15412 
15451 
15557 
15432 
15408 
15636 
15414 
15245 
15351 
15391 
15511 
15755 
15601 
15502 
15226 
15076 
15255 
15406 
15441 
15498 
15485 
15494 
15457 
15620 
15824 
15661 
15640 
15872 
16108 
16068 
16010 
15534 
14671 
13732 
12924 
11996 
11094 
10188 
9322 
8165 
7373 
7333 
7832 
8871 
9581 
9375 
8579 
7794 
7848 
8588 
9842 
10553 
10825 
11057 
11607 
12274 
12951 
13450 
13720 
14000 
14216 
14295 
14401 
14679 
14889 
14975 
14978 
15085 
15203 
15258 
15538 
15419 
15446 
15510 
15637 
15765 
15808 
15892 
15936 
16063 
16226 
16188 
16141 
16261 
16423 
16392 
16538 
16545 
16545 
16545 
16416 
16173 
16420 
16494 
16507 
16630 
16672 
16649 
16631 
16586 
16558 
16601 
16612 
16558 
16518 
16663 
16638 
16673 
16798 
16856 
16854 
16932 
17003 
17073 
17072 
17180 
17301 
17311 
17298 
17222 
17215 
17351 
17353 
17272 
17255 
17277 
17228 
17199 
17225 
17277 
17316 
17235 
17158 
17181 
17232 
17279 
17273 
17293 
17232 
17489 
17515 
17468 
17454 
17476 
17456 
17274 
17262 
17345 
17353 
17377 
17360 
17376 
17463 
17726 
17960 
18083 
18179 
18130 
17842 
17637 
17565 
17606 
17504 
17478 
17459 
17496 
17504 
17533 
17492 
17434 
17422 
17445 
17444 
17421 
17412 
17444 
17493 
17488 
17510 
17509 
17434 
17429 
17412 
17345 
17492 
17467 
17452 
17476 
17510 
17450 
17373 
17486 
17585 
17604 
17656 
17604 
17541 
17508 
17537 
17560 
17566 
17649 
17666 
17605 
17608 
17616 
17612 
17685 
17708 
17744 
17742 
17681 
17743 
17809 
17865 
17856 
17814 
17769 
17865 
17753 
17482 
17526 
17566 
17557 
17643 
17604 
17724 
17648 
17579 
17525 
17655 
17625 
17597 
17489 
17490 
17473 
17431 
17384 
17483 
17503 
17538 
17575 
17598 
17616 
17568 
17595 
17600 
17539 
17572 
17594 
17608 
17498 
17476 
17440 
17523 
17523 
17522 
17603 
17535 
17520 
17436 
17443 
17487 
17541 
17587 
17617 
17493 
17522 
17570 
17596 
17512 
17540 
17651 
17570 
17562 
17554 
17516 
17512 
17454 
17415 
17457 
17416 
17290 
17237 
17260 
17378 
17435 
17313 
17304 
17279 
17263 
17094 
16858 
16248 
16087 
16496 
16905 
16960 
17092 
17126 
16993 
17205 
17466 
17438 
17554 
17481 
17556 
17498 
17192 
17183 
17349 
17200 
17186 
17198 
17015 
16947 
17060 
17146 
17086 
17152 
17048 
17132 
17288 
17250 
17435 
17230 
17123 
16996 
16997 
16931 
16569 
16245 
16235 
15985 
15818 
15736 
15294 
15066 
14830 
14404 
13835 
13659 
13298 
12991 
12985 
12883 
12736 
12798 
12527 
12481 
12492 
12810 
12608 
12729 
12836 
13143 
13199 
13603 
13989 
14135 
13948 
13569 
13270 
12872 
12807 
13111 
13366 
13589 
13821 
14264 
14423 
14615 
14588 
14369 
14247 
14722 
14724 
14733 
14838 
14948 
15234 
15239 
15144 
15422 
15666 
15649 
15832 
15925 
15937 
16124 
16336 
16531 
17103 
17379 
17293 
17335 
17363 
17290 
17169 
17221 
17100 
16976 
16854 
17212 
17412 
17455 
17555 
17359 
17702 
17780 
18053 
17842 
17521 
17347 
17422 
17102 
17037 
17045 
16788 
16572 
16509 
16619 
16566 
16312 
16250 
16061 
15976 
15912 
15681 
15611 
15631 
15618 
15376 
15656 
15502 
15351 
15129 
14912 
14964 
15049 
15003 
14780 
14917 
14755 
14514 
14525 
14351 
14482 
14569 
14822 
15032 
15262 
15200 
15300 
15021 
15026 
14805 
14777 
14565 
14332 
14280 
14113 
14372 
14528 
14359 
14211 
14192 
13997 
13656 
13903 
13878 
13557 
13464 
13428 
13637 
13628 
13547 
13487 
13279 
13120 
13017 
13231 
13197 
12998 
12877 
12806 
12632 
12472 
12500 
12427 
12607 
12485 
12282 
12252 
12273 
12357 
12369 
12280 
12324 
12515 
12582 
12457 
12572 
12468 
12387 
12315 
11979 
11682 
11822 
11809 
12024 
12194 
12515 
12513 
12544 
12636 
12669 
12835 
12739 
12629 
12753 
12808 
12828 
12675 
12593 
12580 
12876 
12797 
12847 
13108 
12971 
13104 
12973 
12956 
12926 
12829 
12961 
12913 
12818 
12859 
12650 
12522 
12277 
12592 
12672 
13038 
12729 
13083 
13348 
13026 
12720 
12385 
12356 
12374 
12298 
12031 
11834 
11906 
11789 
11593 
11655 
11801 
11605 
11683 
11555 
11578 
11420 
11410 
11472 
11396 
11522 
11486 
11630 
11531 
11432 
11635 
11646 
11676 
11528 
11364 
11822 
11429 
11512 
11691 
11450 
11316 
11461 
11525 
11579 
11586 
11363 
11322 
11534 
11403 
11358 
11290 
11296 
11253 
11184 
11235 
11259 
11091 
11042 
11178 
10988 
11060 
11069 
11186 
11257 
11126 
11013 
11056 
10941 
10967 
10832 
10900 
10855 
10782 
10729 
10666 
10527 
10580 
10761 
10598 
10439 
10371 
10490 
10464 
10363 
10420 
10423 
10367 
10338 
10326 
10250 
10286 
10482 
10337 
10097 
10110 
10216 
10125 
10306 
10129 
10180 
10282 
10225 
10181 
10059 
10204 
10091 
10142 
10146 
10099 
9999 
9987 
10023 
10019 
10093 
10025 
9978 
9866 
9851 
9836 
10130 
10069 
9838 
9809 
9982 
9870 
9731 
9692 
9681 
9651 
9748 
9654 
9708 
9631 
9840 
9844 
9662 
9693 
9369 
9555 
9534 
9639 
9374 
9449 
9278 
9273 
9130 
9432 
9608 
9618 
9323 
9400 
9100 
9061 
9009 
8828 
8787 
9046 
9108 
8909 
8740 
9017 
8700 
8956 
8797 
8829 
8963 
8891 
9082 
8808 
8599 
8768 
8662 
8565 
8681 
8368 
8483 
8165 
8548 
8476 
8420 
8406 
8194 
8079 
8108 
7962 
8100 
8058 
7972 
7828 
7782 
7708 
7483 
7518 
7749 
7746 
7516 
7424 
7570 
7500 
7461 
7544 
7751 
8070 
8250 
8323 
8258 
8097 
7690 
7687 
7573 
7336 
7472 
7311 
7317 
7361 
7375 
7209 
7004 
7257 
7384 
7221 
7184 
7201 
7171 
7020 
7115 
7044 
7195 
7073 
7023 
7015 
7054 
7186 
7189 
7106 
7185 
7044 
7132 
7003 
7176 
7196 
7070 
7025 
7253 
7189 
7083 
7062 
7048 
7024 
7104 
7044 
6920 
7195 
7281 
7246 
7032 
7285 
7427 
7462 
7411 
7478 
7591 
7490 
7529 
7607 
7771 
7554 
7544 
7517 
7776 
7684 
7472 
7535 
7920 
7797 
7539 
7776 
7896 
7654 
7614 
7616 
7644 
7721 
7706 
7620 
7621 
7571 
7354 
7489 
7402 
7503 
7518 
7310 
7450 
7303 
7204 
7504 
7275 
7279 
7082 
6954 
7125 
7225 
7265 
7217 
7355 
7080 
7063 
7202 
7188 
7413 
7428 
7052 
7298 
7295 
7277 
7196 
7194 
7047 
7258 
7475 
7339 
7288 
7159 
7018 
7410 
7354 
7248 
6931 
7447 
7219 
7040 
7179 
7176 
7196 
6899 
6922 
7049 
7012 
6939 
6939 
7069 
6780 
6818 
6937 
6832 
6874 
6818 
6733 
6905 
6910 
6819 
6805 
6746 
6843 
6752 
6789 
6749 
6665 
6538 
6723 
6624 
6789 
6726 
6589 
6452 
6321 
6255 
6339 
6340 
6325 
6256 
6135 
6240 
6303 
6193 
6194 
6317 
6307 
6424 
6380 
6417 
6562 
6416 
6576 
6722 
6549 
6481 
6486 
6620 
6721 
6703 
6715 
6460 
6599 
6815 
6765 
6859 
6907 
6674 
6678 
6717 
6827 
6827 
6534 
6829 
6799 
6732 
6549 
6739 
6758 
6795 
6888 
6853 
6779 
6591 
6552 
6681 
6695 
6776 
7166 
7241 
7474 
7648 
7684 
7418 
7092 
7021 
6955 
6787 
6843 
6673 
6725 
6853 
7010 
6942 
6536 
6637 
6783 
6774 
6730 
6841 
6791 
6947 
6881 
6924 
6661 
7009 
6845 
6894 
6958 
6851 
6830 
6822 
6877 
6838 
6903 
6821 
6746 
6834 
6930 
6895 
6876 
6926 
6831 
6896 
6941 
6755 
7056 
7324 
7136 
7044 
7036 
7030 
7131 
7185 
7066 
7028 
7085 
7174 
7152 
7062 
6974 
7006 
6935 
7121 
7030 
6767 
6680 
6699 
6633 
6551 
6703 
6823 
6738 
6652 
6484 
6359 
6242 
6082 
5969 
5833 
5666 
5730 
5598 
5452 
5488 
5412 
5325 
5344 
5507 
5627 
5822 
5656 
5759 
5919 
5893 
5918 
5827 
5981 
5966 
6044 
6130 
6132 
6211 
6324 
6361 
6344 
6344 
6428 
6480 
6581 
6598 
6611 
6662 
6833 
6918 
6916 
6996 
7042 
7148 
7069 
7085 
7261 
7327 
7309 
7346 
7315 
7317 
7288 
7371 
7487 
7470 
7477 
7394 
7398 
7477 
7553 
7592 
7535 
7580 
7583 
7494 
7588 
7635 
7652 
7598 
7556 
7727 
7685 
7616 
7608 
7582 
7665 
7696 
7693 
7680 
7615 
7634 
7675 
7671 
7705 
7684 
7623 
7691 
7733 
7666 
7679 
7871 
7859 
7790 
7811 
7745 
7790 
7829 
7838 
7881 
7975 
7979 
7921 
7882 
7961 
7985 
8044 
8047 
8113 
8238 
8182 
8177 
8118 
8085 
8206 
8248 
8207 
8220 
8290 
8425 
8629 
8860 
9090 
9081 
8776 
8536 
8469 
8411 
8335 
8399 
8386 
8312 
8262 
8242 
8323 
8403 
8409 
8389 
8436 
8424 
8395 
8492 
8499 
8495 
8535 
8553 
8577 
8596 
8559 
8525 
8475 
8478 
8565 
8520 
8576 
8638 
8638 
8667 
8713 
8705 
8787 
8826 
8904 
8962 
8965 
8942 
8970 
8969 
8991 
8971 
9040 
9236 
9211 
9251 
9316 
9285 
9281 
9402 
9477 
9414 
9437 
9506 
9538 
9558 
9603 
9602 
9586 
9669 
9694 
9746 
9741 
9717 
9696 
9713 
9632 
9507 
9569 
9702 
9651 
9633 
9645 
9707 
9754 
9720 
9641 
9702 
9703 
9720 
9735 
9770 
9874 
9888 
9883 
9823 
9796 
9863 
9841 
9950 
9964 
9967 
10037 
10032 
9972 
9954 
10013 
10038 
10040 
10099 
10006 
9948 
10083 
10118 
10075 
10036 
10074 
10067 
10073 
10051 
10099 
10105 
10159 
10202 
10204 
10205 
10193 
10181 
10215 
10232 
10206 
10222 
10259 
10272 
10254 
10244 
10247 
10248 
10309 
10351 
10309 
10362 
10371 
10300 
10303 
10369 
10383 
10379 
10394 
10453 
10465 
10497 
10466 
10467 
10513 
10582 
10523 
10523 
10676 
10691 
10685 
10669 
10636 
10714 
10727 
10716 
10748 
10804 
10754 
10731 
10765 
10884 
10859 
10852 
10926 
10973 
10941 
10919 
10903 
10932 
10931 
10900 
10870 
10880 
10880 
10891 
10881 
10975 
11100 
10999 
10971 
11020 
11006 
10987 
11026 
11066 
11088 
11207 
11267 
11434 
11720 
12000 
12135 
12003 
11704 
11551 
11449 
11383 
11383 
11337 
11294 
11213 
11226 
11249 
11277 
11275 
11263 
11303 
11331 
11196 
11270 
11324 
11323 
11319 
11310 
11376 
11385 
11411 
11309 
11333 
11491 
11430 
11445 
11480 
11510 
11521 
11526 
11451 
11609 
11645 
11610 
11775 
11718 
11646 
11625 
11686 
11714 
11721 
11807 
11803 
11800 
11750 
11752 
11748 
11888 
11944 
11912 
11950 
11920 
11937 
11986 
11931 
11985 
12139 
12054 
12022 
12000 
12076 
12073 
12065 
12076 
12034 
11995 
11995 
11920 
11999 
11986 
11939 
11893 
11877 
11925 
11931 
11944 
11900 
11822 
11881 
11899 
11948 
11896 
11860 
11904 
11957 
11917 
11966 
11959 
11966 
11964 
11988 
12029 
11955 
11971 
12025 
11990 
12004 
12083 
12101 
12066 
12107 
12114 
12074 
12092 
12127 
12177 
12162 
12132 
12127 
12150 
12201 
12157 
12196 
12149 
12157 
12175 
12177 
12172 
12126 
12148 
12301 
12259 
12288 
12248 
12192 
12206 
12233 
12288 
12269 
12216 
12245 
12331 
12304 
12290 
12343 
12362 
12273 
12226 
12399 
12428 
12450 
12422 
12379 
12388 
12412 
12391 
12421 
12459 
12408 
12345 
12368 
12445 
12428 
12333 
12416 
12490 
12495 
12489 
12457 
12511 
12605 
12539 
12458 
12532 
12568 
12564 
12564 
12598 
12581 
12619 
12636 
12627 
12702 
12696 
12659 
12641 
12696 
12663 
12613 
12626 
12701 
12665 
12600 
12661 
12689 
12732 
12687 
12666 
12747 
12758 
12759 
12692 
12626 
12682 
12776 
12868 
13053 
13324 
13489 
13741 
13788 
13416 
13157 
13011 
12992 
12960 
12920 
12864 
12867 
12866 
12916 
12926 
12923 
12904 
12943 
12895 
12786 
13043 
13078 
12970 
12945 
12946 
12995 
13014 
13033 
13031 
13081 
13098 
13126 
13104 
13031 
13112 
13185 
13000 
13159 
13277 
13235 
13184 
13210 
13162 
13188 
13206 
13203 
13244 
13265 
13276 
13192 
13232 
13277 
13300 
13278 
13375 
13392 
13461 
13384 
13449 
13416 
13462 
13489 
13535 
13552 
13506 
13466 
13515 
13557 
13499 
13517 
13614 
13566 
13495 
13494 
13444 
13470 
13499 
13444 
13422 
13423 
13417 
13380 
13338 
13333 
13410 
13403 
13397 
13408 
13429 
13349 
13375 
13376 
13432 
13474 
13455 
13436 
13450 
13448 
13410 
13411 
13433 
13509 
13543 
13490 
13524 
13547 
13552 
13547 
13559 
13579 
13600 
13621 
13606 
13638 
13618 
13584 
13595 
13650 
13655 
13631 
13693 
13709 
13690 
13712 
13716 
13709 
13693 
13707 
13682 
13711 
13710 
13653 
13622 
13683 
13767 
13700 
13715 
13766 
13826 
13822 
13764 
13746 
13810 
13796 
13707 
13716 
13769 
13796 
13823 
13794 
13831 
13865 
13823 
13822 
13897 
13888 
13905 
13814 
13815 
13891 
13890 
13920 
13975 
13972 
13942 
13947 
13885 
13955 
13944 
13942 
13934 
13972 
14017 
13968 
13965 
14043 
14010 
13985 
14024 
14100 
14126 
14044 
14064 
14097 
14061 
13996 
14075 
14140 
14172 
14175 
14111 
14044 
14108 
14128 
14177 
14153 
14143 
14177 
14172 
14130 
14139 
14147 
14183 
14171 
14204 
14247 
14202 
14240 
14193 
14203 
14239 
14292 
14377 
14579 
14791 
15030 
15165 
15070 
14770 
14596 
14573 
14522 
14525 
14449 
14429 
14422 
14350 
14411 
14431 
14478 
14447 
14412 
14381 
14471 
14545 
14515 
14506 
14499 
14500 
14478 
14434 
14474 
14502 
14489 
14451 
14430 
14550 
14544 
14476 
14464 
14466 
14478 
14459 
14529 
14474 
14496 
14598 
14518 
14452 
14556 
14587 
14543 
14546 
14623 
14663 
14630 
14653 
14678 
14737 
14726 
14718 
14786 
14751 
14771 
14779 
14755 
14809 
14848 
14805 
14783 
14833 
14839 
14848 
14862 
14843 
14799 
14735 
14753 
14770 
14748 
14742 
14646 
14668 
14655 
14665 
14669 
14730 
14696 
14623 
14632 
14662 
14746 
14733 
14744 
14795 
14777 
14704 
14677 
14707 
14767 
14731 
14809 
14829 
14792 
14728 
14801 
14835 
14827 
14828 
14793 
14770 
14871 
14931 
14833 
14767 
14860 
14891 
14862 
14857 
14847 
14887 
14849 
14842 
14912 
14803 
14902 
14841 
14854 
14949 
14890 
14833 
14875 
15026 
14952 
14981 
14940 
14981 
14969 
14917 
14878 
14961 
14940 
14886 
14954 
15020 
14933 
15011 
14969 
14975 
15116 
14989 
14981 
14943 
15026 
15065 
15055 
15067 
15028 
15085 
15045 
15158 
15168 
15178 
15143 
15220 
15220 
15259 
15155 
15170 
15298 
15240 
15145 
15152 
15292 
15330 
15329 
15328 
15451 
15505 
15448 
15389 
15430 
15491 
15414 
15353 
15526 
15569 
15518 
15430 
15387 
15341 
15441 
15495 
15505 
15439 
15415 
15560 
15450 
15373 
15621 
15732 
15818 
16107 
16390 
16447 
16341 
16059 
15843 
15762 
15764 
15663 
15620 
15603 
15680 
15763 
15722 
15675 
15618 
15607 
15705 
15732 
15718 
15615 
15688 
15729 
15691 
15749 
15755 
15733 
15704 
15701 
15812 
15789 
15757 
15699 
15757 
15784 
15764 
15841 
15851 
15802 
15778 
15743 
15812 
15806 
15798 
15850 
15884 
15922 
15964 
15901 
15860 
15973 
15973 
15972 
15952 
15963 
16056 
16063 
16122 
16092 
16174 
16198 
16168 
16181 
16209 
16245 
16286 
16230 
16200 
16254 
16236 
16209 
16124 
16244 
16220 
16182 
16176 
16139 
16154 
16140 
16119 
16157 
16166 
16194 
16124 
16209 
16221 
16166 
16186 
16191 
16199 
16204 
16213 
16156 
16073 
15985 
15799 
15545 
15345 
14912 
14508 
14159 
13826 
13481 
13077 
12864 
12704 
12514 
12366 
12402 
12449 
12467 
12533 
12692 
12816 
13028 
13261 
13417 
13650 
13865 
14071 
14216 
14383 
14640 
14702 
14710 
14809 
15068 
15110 
15171 
15219 
15284 
15331 
15395 
15463 
15532 
15578 
15616 
15648 
15772 
15766 
15733 
15750 
15842 
15939 
15917 
15995 
16004 
16068 
16155 
16160 
16196 
16251 
16245 
16227 
16272 
16379 
16342 
16307 
16359 
16415 
16523 
16516 
16468 
16471 
16508 
16509 
16483 
16509 
16498 
16500 
16551 
16613 
16565 
16561 
16552 
16591 
16565 
16570 
16583 
16575 
16556 
16609 
16592 
16583 
16639 
16598 
16464 
16513 
16506 
16558 
16570 
16592 
16591 
16523 
16531 
16543 
16525 
16562 
16583 
16546 
16543 
16622 
16722 
16793 
16983 
17286 
17576 
17703 
17420 
17138 
16951 
16885 
16863 
16838 
16799 
16723 
16768 
16780 
16799 
16792 
16801 
16756 
16803 
16797 
16753 
16793 
16802 
16796 
16823 
16818 
16802 
16819 
16775 
16840 
16822 
16836 
16842 
16835 
16876 
16825 
16828 
16916 
16917 
16979 
17004 
16935 
16949 
16993 
17009 
16942 
17089 
17100 
17037 
17161 
17140 
17144 
17187 
17173 
17203 
17269 
17263 
17254 
17187 
17219 
17280 
17302 
17284 
17340 
17387 
17364 
17361 
17339 
17306 
17230 
17293 
17341 
17272 
17211 
17216 
17215 
17194 
17156 
17074 
17080 
17103 
17125 
17119 
17069 
17031 
17048 
17075 
17054 
16999 
17105 
17114 
17125 
17101 
17130 
17074 
17093 
17104 
17107 
17130 
17113 
17070 
17125 
17116 
17068 
17053 
17108 
17101 
17031 
17090 
17055 
17105 
17136 
17114 
17090 
17089 
17099 
17081 
17062 
17058 
17012 
16982 
16924 
16911 
16942 
16837 
16901 
16820 
16783 
16741 
16649 
16568 
16494 
16510 
16550 
16479 
16439 
16414 
16503 
16640 
16699 
16678 
16682 
16727 
16783 
16896 
16891 
16917 
16926 
16944 
16974 
16979 
17017 
17041 
17051 
17077 
17103 
17072 
17024 
17041 
17071 
17080 
17122 
17075 
17099 
17088 
17082 
17105 
17075 
17112 
17094 
17100 
17170 
17147 
17196 
17147 
17115 
17121 
17192 
17168 
17135 
17190 
17218 
17208 
17162 
17106 
17159 
17140 
17092 
17112 
17122 
17114 
17095 
17067 
17082 
17069 
17057 
17056 
17076 
17087 
17117 
17066 
17096 
17140 
17048 
17020 
17142 
17210 
17322 
17503 
17794 
18077 
18104 
17943 
17601 
17374 
17338 
17341 
17216 
17273 
17215 
17173 
17188 
17232 
17208 
17132 
17157 
17254 
17210 
17177 
17198 
17297 
17194 
17231 
17242 
17220 
17292 
17314 
17302 
17287 
17306 
17321 
17238 
17241 
17315 
17311 
17309 
17340 
17353 
17378 
17348 
17371 
17381 
17358 
17386 
17370 
17374 
17374 
17384 
17396 
17417 
17464 
17444 
17395 
17409 
17410 
17404 
17433 
17483 
17490 
17416 
17359 
17369 
17453 
17502 
17475 
17435 
17461 
17488 
17422 
17387 
17298 
17399 
17372 
17332 
17323 
17323 
17262 
17212 
17228 
17157 
17214 
17181 
17155 
17142 
17168 
17157 
17122 
17222 
17179 
17145 
17160 
17144 
17128 
17114 
17104 
17237 
17276 
17205 
17159 
17207 
17195 
17149 
17173 
17189 
17279 
17241 
17255 
17282 
17271 
17251 
17308 
17318 
17248 
17241 
17221 
17189 
17346 
17316 
17267 
17271 
17262 
17166 
17162 
17179 
17139 
17138 
17092 
17053 
17013 
17000 
17047 
16988 
16992 
17023 
17018 
16989 
17001 
17060 
17038 
17048 
17032 
17047 
17081 
17117 
17134 
17162 
17215 
17151 
17197 
17290 
17282 
17299 
17364 
17400 
17431 
17474 
17368 
17353 
17458 
17468 
17481 
17461 
17515 
17490 
17468 
17493 
17505 
17456 
17431 
17494 
17441 
17404 
17358 
17306 
17345 
17331 
17329 
17355 
17331 
17307 
17326 
17301 
17301 
17346 
17306 
17257 
17252 
17337 
17280 
17317 
17341 
17308 
17257 
17285 
17245 
17225 
17290 
17273 
17290 
17298 
17276 
17211 
17205 
17251 
17328 
17413 
17494 
17655 
17981 
18136 
18089 
17893 
17566 
17404 
17358 
17333 
17330 
17320 
17308 
17327 
17243 
17244 
17294 
17247 
17259 
17309 
17252 
17265 
17243 
17239 
17223 
17293 
17275 
17278 
17265 
17249 
17232 
17241 
17242 
17359 
17324 
17336 
17292 
17266 
17317 
17288 
17295 
17342 
17354 
17374 
17356 
17345 
17331 
17293 
17387 
17343 
17352 
17385 
17418 
17457 
17436 
17448 
17490 
17481 
17430 
17454 
17517 
17547 
17480 
17474 
17630 
17601 
17549 
17571 
17532 
17582 
17569 
17483 
17457 
17468 
17405 
17441 
17301 
17282 
17340 
17317 
17260 
17273 
17243 
17295 
17233 
17235 
17179 
17184 
17224 
17163 
17182 
17193 
17166 
17191 
17285 
17228 
17205 
17203 
17233 
17235 
17229 
17191 
17290 
17239 
17228 
17283 
17312 
17318 
17234 
17246 
17338 
17330 
17302 
17281 
17307 
17385 
17269 
17252 
17257 
17276 
17316 
17284 
17300 
17220 
17179 
17234 
17196 
17251 
17286 
17255 
17157 
17212 
17243 
17268 
17230 
17230 
17279 
17248 
17261 
17272 
17286 
17220 
17242 
17253 
17273 
17273 
17294 
17316 
17310 
17247 
17221 
17201 
17227 
17267 
17223 
17228 
17251 
17271 
17233 
17245 
17230 
17218 
17275 
17281 
17244 
17238 
17232 
17238 
17227 
17274 
17292 
17252 
17242 
17330 
17299 
17209 
17202 
17189 
17191 
17203 
17213 
17208 
17227 
17176 
17191 
17295 
17245 
17164 
17132 
17151 
17258 
17282 
17414 
17686 
18011 
18072 
18010 
17740 
17522 
17382 
17338 
17269 
17229 
17243 
17175 
17158 
17250 
17222 
17213 
17152 
17208 
17197 
17224 
17179 
17236 
17299 
17246 
17204 
17204 
17217 
17209 
17170 
17170 
17246 
17239 
17222 
17200 
17222 
17202 
17231 
17216 
17193 
17233 
17228 
17257 
17277 
17285 
17247 
17242 
17246 
17276 
17325 
17288 
17260 
17290 
17372 
17369 
17348 
17362 
17409 
17377 
17422 
17503 
17494 
17538 
17514 
17523 
17556 
17497 
17474 
17488 
17499 
17437 
17399 
17390 
17349 
17355 
17301 
17298 
17297 
17227 
17182 
17166 
17210 
17204 
17178 
17129 
17172 
17184 
17166 
17146 
17186 
17203 
17186 
17183 
17178 
17193 
17196 
17160 
17194 
17270 
17234 
17213 
17150 
17190 
17179 
17178 
17184 
17202 
17209 
17172 
17135 
17130 
17177 
17241 
17172 
17128 
17198 
17256 
17175 
17170 
17206 
17221 
17183 
17147 
17190 
17248 
17188 
17158 
17195 
17193 
17193 
17183 
17195 
17210 
17230 
17236 
17219 
17196 
17180 
17224 
17219 
17264 
17232 
17233 
17253 
17283 
17192 
17201 
17209 
17250 
17277 
17250 
17211 
17210 
17225 
17227 
17181 
17250 
17287 
17235 
17242 
17246 
17270 
17254 
17261 
17255 
17261 
17277 
17303 
17297 
17313 
17257 
17219 
17249 
17318 
17320 
17303 
17286 
17357 
17408 
17354 
17324 
17338 
17324 
17344 
17330 
17329 
17324 
17228 
17255 
17330 
17245 
17250 
17247 
17276 
17261 
17263 
17197 
17260 
17209 
17194 
17260 
17336 
17416 
17510 
17750 
18021 
18229 
18143 
17801 
17470 
17407 
17394 
17288 
17263 
17243 
17222 
17154 
17135 
17184 
17174 
17156 
17114 
17145 
17193 
17189 
17131 
17116 
17199 
17176 
17135 
17176 
17179 
17214 
17190 
17119 
17115 
17135 
17143 
17140 
17143 
17288 
17236 
17074 
17134 
17242 
17208 
17229 
17215 
17226 
17231 
17255 
17230 
17235 
17260 
17265 
17311 
17290 
17362 
17348 
17379 
17384 
17379 
17299 
17287 
17391 
17449 
17420 
17489 
17446 
17409 
17420 
17465 
17452 
17432 
17386 
17338 
17340 
17364 
17297 
17193 
17170 
17215 
17223 
17149 
17145 
17200 
17172 
17142 
17121 
17105 
17137 
17127 
17100 
17128 
17157 
17148 
17102 
17096 
17190 
17152 
17116 
17166 
17192 
17196 
17148 
17132 
17183 
17216 
17190 
17151 
17155 
17202 
17198 
17158 
17210 
17249 
17346 
17235 
17122 
17136 
17100 
17114 
17104 
17130 
17122 
17068 
17076 
17023 
17090 
17134 
17102 
17031 
17046 
17106 
17089 
17095 
17100 
17060 
17034 
17027 
17067 
17005 
17039 
17106 
17132 
17096 
17062 
17080 
17096 
17143 
17103 
17065 
17123 
17114 
17036 
17102 
17142 
17109 
17105 
17113 
17098 
17114 
17080 
17096 
17119 
17062 
17129 
17096 
17106 
17118 
17097 
17067 
17076 
17134 
17133 
17172 
17158 
17151 
17112 
17113 
17144 
17152 
17125 
17075 
17169 
17195 
17161 
17146 
17110 
17110 
17172 
17181 
17180 
17168 
17194 
17181 
17121 
17135 
17207 
17164 
17116 
17130 
17154 
17134 
17125 
17082 
17070 
17114 
17164 
17147 
17146 
17175 
17268 
17358 
17601 
17936 
18111 
18129 
17928 
17605 
17406 
17314 
17245 
17295 
17283 
17204 
17160 
17199 
17287 
17252 
17177 
17201 
17207 
17180 
17176 
17174 
17195 
17217 
17191 
17168 
17176 
17119 
17130 
17215 
17222 
17247 
17244 
17191 
17248 
17226 
17177 
17186 
17209 
17225 
17178 
17105 
17100 
17170 
17202 
17228 
17200 
17182 
17181 
17182 
17174 
17195 
17234 
17227 
17218 
17222 
17276 
17261 
17228 
17288 
17332 
17330 
17300 
17328 
17364 
17337 
17341 
17349 
17309 
17273 
17257 
17253 
17247 
17174 
17072 
17165 
17144 
17112 
17092 
17038 
17044 
17008 
16975 
16977 
16986 
16943 
16914 
16856 
16884 
16843 
16841 
16841 
16835 
16711 
16573 
16525 
16420 
16225 
16224 
16195 
16146 
16105 
16060 
15958 
16010 
16011 
15977 
16097 
16177 
16273 
16368 
16400 
16430 
16561 
16630 
16667 
16652 
16732 
16808 
16796 
16806 
16888 
16896 
16902 
16962 
16942 
16995 
17092 
17104 
17095 
17140 
17134 
17063 
17062 
17183 
17190 
17175 
17105 
17123 
17158 
17185 
17232 
17230 
17186 
17182 
17164 
17184 
17189 
17162 
17171 
17209 
17188 
17163 
17100 
17070 
17126 
17122 
17100 
17060 
17032 
17044 
17044 
17026 
17141 
17125 
17114 
17116 
17127 
17134 
17110 
17054 
17072 
17108 
17079 
17107 
17081 
17073 
17064 
17068 
17034 
17052 
17073 
17055 
17053 
17006 
17046 
17050 
17069 
17095 
17074 
17012 
16989 
16990 
16987 
17068 
17048 
17014 
17080 
17026 
16987 
16987 
17045 
17070 
17025 
17025 
16992 
16949 
16988 
17019 
17027 
17047 
17026 
17031 
17104 
17110 
17080 
17017 
16999 
17031 
17000 
17001 
17000 
17064 
17085 
17032 
16994 
17048 
17040 
17021 
16985 
17022 
17122 
17170 
17364 
17686 
17921 
18056 
17933 
17558 
17270 
17194 
17194 
17165 
17086 
17042 
17033 
17022 
17055 
17038 
17044 
17017 
17025 
17010 
16985 
17094 
17126 
17126 
17083 
17053 
17070 
17130 
17067 
17098 
17148 
17098 
17040 
17117 
17176 
17185 
17178 
17088 
17148 
17223 
17203 
17137 
17171 
17208 
17191 
17191 
17229 
17275 
17263 
17235 
17238 
17280 
17311 
17312 
17296 
17313 
17339 
17324 
17288 
17349 
17440 
17427 
17386 
17380 
17407 
17399 
17430 
17433 
17437 
17418 
17375 
17373 
17355 
17308 
17264 
17278 
17324 
17195 
17129 
17148 
17152 
17164 
17062 
17025 
17059 
17038 
17059 
17048 
17048 
17079 
17020 
17007 
17036 
17082 
17058 
17024 
16994 
17054 
16994 
16977 
16952 
16977 
17003 
16988 
16960 
16950 
17036 
17026 
17001 
17035 
17022 
16972 
16918 
17030 
17033 
16960 
17017 
16960 
16944 
16951 
16991 
17037 
17080 
17052 
17022 
16965 
17049 
17045 
16993 
17010 
17049 
17102 
17039 
17000 
17019 
17022 
16984 
16969 
16995 
17007 
17027 
17028 
16996 
17013 
16982 
17001 
17016 
17072 
17022 
16989 
16972 
16996 
16986 
16945 
16992 
17026 
16975 
16955 
16914 
16908 
17006 
16963 
16986 
16945 
16998 
16967 
16978 
17009 
17015 
16996 
16944 
16965 
16989 
17044 
17040 
17020 
16973 
16969 
16974 
17029 
16989 
16980 
16944 
16985 
17007 
17008 
16976 
17015 
17032 
17023 
17003 
16907 
16918 
16997 
17031 
16976 
16898 
16986 
17005 
16952 
16977 
17002 
16992 
16974 
17010 
17028 
16999 
16932 
17006 
17166 
17234 
17341 
17562 
17804 
17815 
17585 
17304 
17082 
17076 
17045 
17005 
16935 
16951 
16989 
16975 
16971 
16972 
16970 
16904 
16929 
16952 
16979 
16949 
16929 
16943 
16961 
16939 
16923 
16909 
16980 
16967 
16940 
16932 
16980 
16984 
16967 
16968 
16959 
16984 
16939 
17007 
17051 
16959 
16964 
17048 
17049 
17027 
17051 
17045 
17056 
17082 
17081 
17063 
17103 
17145 
17119 
17104 
17104 
17174 
17187 
17153 
17178 
17241 
17300 
17246 
17175 
17281 
17229 
17202 
17215 
17236 
17194 
17203 
17218 
17229 
17181 
17130 
17125 
17134 
17073 
17090 
17087 
17056 
17074 
17055 
17071 
17047 
17037 
16973 
16964 
17031 
17032 
16998 
16982 
17033 
16997 
16970 
16946 
16930 
16971 
16982 
16934 
16859 
16858 
16940 
16927 
16930 
16918 
16880 
16860 
16854 
16868 
16903 
16898 
16868 
16882 
16923 
16938 
16928 
16920 
16918 
16925 
16898 
16878 
16891 
16858 
16900 
16930 
16890 
16889 
16871 
16876 
16852 
16860 
16839 
16831 
16838 
16816 
16763 
16717 
16720 
16798 
16831 
16782 
16733 
16782 
16767 
16764 
16767 
16771 
16757 
16742 
16720 
16727 
16781 
16774 
16717 
16784 
16814 
16796 
16846 
16857 
16842 
16820 
16823 
16840 
16827 
16877 
16859 
16914 
16949 
16914 
16883 
16854 
16904 
16925 
16964 
16928 
16910 
16925 
16957 
16891 
16864 
16958 
16983 
16944 
16973 
16987 
17013 
16958 
16934 
16961 
16971 
16899 
16908 
16884 
16938 
16890 
16818 
16836 
16874 
16864 
16833 
16872 
16873 
16822 
16799 
16902 
17005 
17122 
17287 
17580 
17797 
17799 
17600 
17334 
17131 
17038 
17038 
16997 
16998 
16992 
16934 
16939 
16972 
16951 
16959 
16929 
16905 
16941 
16914 
16880 
16960 
17048 
17021 
16917 
16946 
17029 
16976 
16970 
16939 
16943 
16947 
16908 
16934 
16912 
16898 
16901 
16878 
16896 
16907 
16953 
16955 
16982 
17002 
17026 
16986 
16964 
16954 
16965 
16987 
17020 
17075 
17098 
17053 
16966 
17065 
17099 
17106 
17117 
17138 
17162 
17155 
17166 
17197 
17272 
17262 
17180 
17182 
17198 
17190 
17113 
17078 
17079 
17041 
17026 
17024 
16991 
16943 
16908 
16867 
16946 
16932 
16898 
16895 
16915 
16885 
16831 
16825 
16862 
16888 
16863 
16859 
16861 
16881 
16884 
16859 
16845 
16910 
16917 
16901 
16929 
16924 
16893 
16870 
16882 
16855 
16882 
16890 
16895 
16864 
16885 
16901 
16863 
16870 
16860 
16788 
16780 
16773 
16758 
16732 
16728 
16687 
16708 
16745 
16703 
16645 
16681 
16729 
16670 
16690 
16700 
16723 
16757 
16751 
16802 
16777 
16727 
16718 
16755 
16804 
16808 
16828 
16856 
16866 
16822 
16821 
16868 
16891 
16885 
16894 
16887 
16879 
16866 
16862 
16873 
16896 
16868 
16857 
16868 
16879 
16882 
16893 
16905 
16893 
16882 
16917 
16920 
16853 
16871 
16839 
16837 
16820 
16815 
16794 
16769 
16814 
16863 
16869 
16840 
16865 
16905 
16908 
16880 
16928 
16971 
16920 
16907 
16950 
16947 
16951 
16958 
16945 
16929 
16948 
16903 
16936 
16961 
16991 
16978 
16953 
16919 
16927 
16904 
16835 
16819 
16886 
16901 
16886 
16854 
16888 
16856 
16850 
16841 
16906 
16864 
16739 
16766 
16805 
16916 
17132 
17397 
17608 
17754 
17736 
17426 
17181 
17100 
17028 
16925 
16932 
16924 
16899 
16878 
16914 
16894 
16885 
16838 
16874 
16905 
16941 
16883 
16896 
16897 
16881 
16853 
16786 
16785 
16841 
16853 
16806 
16827 
16821 
16758 
16769 
16785 
16846 
16825 
16795 
16801 
16810 
16806 
16789 
16827 
16804 
16816 
16844 
16802 
16805 
16933 
16904 
16872 
16907 
16966 
17056 
16998 
16909 
16952 
17049 
17080 
17030 
17032 
17140 
17107 
17119 
17170 
17204 
17189 
17204 
17168 
17118 
17143 
17079 
17073 
17025 
17001 
16955 
16914 
16945 
16928 
16859 
16853 
16897 
16963 
16885 
16864 
16835 
16809 
16837 
16821 
16839 
16873 
16892 
16837 
16847 
16907 
16875 
16860 
16874 
16831 
16856 
16860 
16753 
16804 
16898 
16868 
16788 
16747 
16829 
16832 
16790 
16824 
16879 
16818 
16770 
16795 
16809 
16800 
16819 
16800 
16818 
16787 
16782 
16781 
16765 
16781 
16788 
16746 
16769 
16785 
16777 
16786 
16804 
16807 
16778 
16756 
16758 
16780 
16803 
16761 
16701 
16724 
16731 
16695 
16696 
16776 
16756 
16689 
16748 
16757 
16722 
16734 
16735 
16682 
16707 
16729 
16730 
16730 
16746 
16698 
16674 
16675 
16655 
16731 
16681 
16691 
16685 
16664 
16613 
16632 
16682 
16714 
16667 
16602 
16674 
16715 
16691 
16696 
16704 
16711 
16716 
16667 
16706 
16754 
16700 
16696 
16729 
16757 
16743 
16754 
16756 
16769 
16697 
16727 
16734 
16703 
16765 
16793 
16752 
16774 
16800 
16783 
16734 
16715 
16731 
16757 
16761 
16773 
16781 
16752 
16701 
16641 
16672 
16738 
16700 
16720 
16692 
16693 
16662 
16623 
16742 
16760 
16720 
16688 
16654 
16686 
16726 
16783 
16864 
17025 
17342 
17561 
17635 
17628 
17343 
17018 
16853 
16801 
16791 
16769 
16705 
16710 
16735 
16696 
16663 
16691 
16667 
16647 
16653 
16652 
16672 
16696 
16703 
16595 
16615 
16693 
16644 
16631 
16661 
16681 
16683 
16635 
16659 
16720 
16728 
16662 
16661 
16687 
16698 
16723 
16739 
16675 
16674 
16692 
16730 
16752 
16737 
16741 
16762 
16829 
16797 
16751 
16733 
16846 
16873 
16849 
16843 
16867 
16933 
16952 
16942 
16986 
17092 
17043 
16917 
17041 
17052 
17058 
16956 
16938 
16942 
16940 
16854 
16841 
16865 
16821 
16757 
16718 
16715 
16743 
16743 
16734 
16756 
16787 
16780 
16747 
16791 
16833 
16834 
16768 
16781 
16807 
16835 
16784 
16778 
16785 
16768 
16729 
16757 
16805 
16846 
16785 
16787 
16868 
16816 
16829 
16747 
16735 
16824 
16821 
16759 
16808 
16817 
16805 
16729 
16793 
16848 
16853 
16822 
16737 
16753 
16785 
16711 
16705 
16692 
16737 
16684 
16680 
16729 
16734 
16674 
16631 
16637 
16704 
16721 
16702 
16676 
16627 
16692 
16654 
16646 
16583 
16564 
16586 
16561 
16577 
16660 
16620 
16583 
16640 
16646 
16570 
16567 
16651 
16640 
16665 
16592 
16650 
16732 
16682 
16679 
16719 
16759 
16686 
16572 
16635 
16703 
16731 
16642 
16657 
16670 
16733 
16713 
16630 
16630 
16670 
16750 
16724 
16732 
16777 
16740 
16717 
16709 
16731 
16752 
16739 
16776 
16800 
16817 
16825 
16762 
16772 
16813 
16752 
16738 
16759 
16786 
16714 
16703 
16746 
16745 
16724 
16650 
16681 
16720 
16657 
16645 
16684 
16745 
16687 
16652 
16694 
16818 
16916 
16974 
17191 
17517 
17582 
17293 
16989 
16797 
16795 
16794 
16759 
16751 
16728 
16641 
16630 
16718 
16762 
16693 
16621 
16657 
16755 
16755 
16646 
16670 
16754 
16711 
16713 
16679 
16641 
16661 
16671 
16688 
16770 
16763 
16669 
16652 
16698 
16760 
16738 
16675 
16696 
16748 
16754 
16664 
16729 
16793 
16808 
16735 
16743 
16824 
16856 
16756 
16754 
16809 
16878 
16878 
16845 
16927 
16936 
16902 
16850 
16895 
16952 
16959 
16899 
16931 
16966 
16968 
16923 
16944 
16983 
16950 
16902 
16897 
16938 
16866 
16822 
16734 
16686 
16731 
16709 
16690 
16683 
16723 
16609 
16559 
16657 
16763 
16707 
16652 
16678 
16725 
16679 
16639 
16699 
16702 
16652 
16546 
16596 
16651 
16717 
16614 
16599 
16653 
16674 
16585 
16651 
16692 
16711 
16641 
16623 
16654 
16689 
16639 
16563 
16583 
16616 
16622 
16548 
16563 
16667 
16669 
16539 
16549 
16606 
16674 
16678 
16628 
16644 
16686 
16600 
16598 
16661 
16678 
16602 
16588 
16669 
16724 
16659 
16588 
16675 
16716 
16695 
16647 
16649 
16683 
16689 
16627 
16600 
16629 
16695 
16615 
16610 
16693 
16725 
16597 
16548 
16601 
16640 
16705 
16596 
16569 
16710 
16691 
16612 
16693 
16701 
16668 
16656 
16672 
16743 
16707 
16645 
16668 
16734 
16758 
16734 
16701 
16716 
16708 
16686 
16662 
16693 
16644 
16553 
16489 
16549 
16628 
16610 
16514 
16564 
16584 
16594 
16519 
16527 
16596 
16558 
16501 
16567 
16688 
16835 
16917 
17215 
17497 
17537 
17327 
17015 
16851 
16870 
16774 
16677 
16685 
16675 
16704 
16614 
16633 
16649 
16663 
16642 
16673 
16698 
16726 
16631 
16664 
16694 
16694 
16645 
16642 
16736 
16740 
16655 
16659 
16762 
16783 
16736 
16716 
16746 
16778 
16792 
16748 
16785 
16794 
16792 
16733 
16735 
16828 
16830 
16815 
16835 
16835 
16817 
16771 
16744 
16837 
16866 
16851 
16849 
16890 
16908 
16881 
16851 
16891 
16950 
16999 
16938 
16954 
16914 
16940 
16947 
16981 
16981 
16983 
16843 
16830 
16893 
16888 
16789 
16688 
16710 
16771 
16710 
16692 
16727 
16727 
16701 
16638 
16609 
16674 
16673 
16608 
16627 
16654 
16721 
16654 
16637 
16677 
16695 
16633 
16653 
16752 
16728 
16667 
16618 
16651 
16709 
16638 
16651 
16744 
16802 
16760 
16651 
16660 
16726 
16717 
16670 
16700 
16786 
16774 
16676 
16719 
16724 
16696 
16663 
16611 
16696 
16693 
16617 
16585 
16650 
16654 
16578 
16540 
16630 
16637 
16618 
16586 
16613 
16655 
16657 
16607 
16650 
16687 
16714 
16646 
16627 
16706 
16766 
16693 
16667 
16725 
16696 
16670 
16673 
16686 
16731 
16726 
16605 
16589 
16620 
16589 
16518 
16566 
16634 
16639 
16588 
16561 
16623 
16598 
16557 
16545 
16622 
16679 
16607 
16613 
16674 
16745 
16678 
16696 
16765 
16757 
16763 
16721 
16787 
16798 
16741 
16736 
16829 
16790 
16811 
16773 
16731 
16721 
16696 
16643 
16632 
16663 
16676 
16628 
16641 
16640 
16614 
16594 
16574 
16563 
16618 
16642 
16604 
16637 
16735 
16782 
16983 
17256 
17552 
17639 
17462 
17216 
16991 
16934 
16860 
16747 
16699 
16713 
16625 
16640 
16695 
16734 
16676 
16634 
16662 
16641 
16631 
16621 
16686 
16728 
16686 
16647 
16624 
16692 
16701 
16607 
16630 
16682 
16682 
16713 
16657 
16654 
16756 
16672 
16661 
16728 
16795 
16767 
16701 
16695 
16737 
16719 
16702 
16749 
16786 
16774 
16748 
16782 
16813 
16814 
16759 
16820 
16851 
16882 
16785 
16826 
16890 
16941 
16883 
16879 
16951 
16938 
16844 
16848 
16987 
16961 
16932 
16825 
16856 
16912 
16863 
16683 
16640 
16718 
16711 
16688 
16646 
16627 
16650 
16589 
16632 
16728 
16637 
16611 
16643 
16674 
16666 
16668 
16653 
16608 
16620 
16646 
16619 
16655 
16734 
16736 
16638 
16623 
16647 
16712 
16635 
16593 
16591 
16640 
16606 
16593 
16650 
16677 
16649 
16593 
16596 
16662 
16685 
16650 
16589 
16598 
16605 
16545 
16563 
16657 
16647 
16594 
16644 
16697 
16658 
16591 
16624 
16663 
16680 
16597 
16618 
16653 
16681 
16618 
16589 
16621 
16631 
16491 
16273 
16357 
16380 
16226 
15984 
15898 
15831 
15787 
15641 
15525 
15506 
15573 
15446 
15460 
15528 
15612 
15563 
15597 
15714 
15795 
15872 
15850 
15918 
15967 
16020 
16078 
16190 
16207 
16255 
16259 
16251 
16347 
16401 
16363 
16385 
16460 
16487 
16417 
16432 
16494 
16511 
16462 
16444 
16462 
16523 
16520 
16386 
16425 
16478 
16454 
16428 
16481 
16553 
16553 
16471 
16499 
16572 
16568 
16518 
16510 
16531 
16619 
16576 
16577 
16674 
16659 
16567 
16577 
16575 
16599 
16569 
16577 
16618 
16643 
16644 
16560 
16559 
16572 
16629 
16628 
16625 
16650 
16698 
16612 
16596 
16647 
16768 
16859 
17088 
17419 
17668 
17609 
17370 
17067 
16944 
16873 
16730 
16697 
16732 
16690 
16607 
16641 
16666 
16677 
16608 
16557 
16570 
16631 
16626 
16644 
16662 
16638 
16582 
16609 
16661 
16688 
16702 
16656 
16636 
16729 
16681 
16635 
16699 
16776 
16701 
16568 
16698 
16761 
16760 
16692 
16690 
16715 
16702 
16677 
16665 
16702 
16825 
16767 
16655 
16682 
16783 
16715 
16703 
16835 
16856 
16835 
16802 
16839 
16887 
16889 
16805 
16862 
16931 
16977 
16893 
16870 
16871 
16892 
16830 
16763 
16801 
16821 
16783 
16747 
16704 
16712 
16677 
16505 
16587 
16676 
16538 
16494 
16548 
16573 
16528 
16506 
16515 
16563 
16586 
16543 
16510 
16572 
16600 
16512 
16508 
16536 
16554 
16578 
16565 
16596 
16611 
16562 
16500 
16513 
16560 
16595 
16499 
16482 
16658 
16609 
16540 
16595 
16619 
16615 
16506 
16485 
16574 
16589 
16485 
16517 
16569 
16592 
16454 
16466 
16537 
16576 
16501 
16460 
16488 
16560 
16590 
16520 
16485 
16555 
16469 
16396 
16464 
16496 
16488 
16436 
16471 
16491 
16520 
16511 
16472 
16493 
16571 
16547 
16488 
16520 
16540 
16519 
16499 
16534 
16562 
16551 
16547 
16518 
16550 
16571 
16497 
16521 
16582 
16564 
16481 
16500 
16570 
16599 
16483 
16420 
16557 
16620 
16545 
16464 
16498 
16545 
16483 
16443 
16494 
16559 
16562 
16455 
16507 
16569 
16566 
16515 
16508 
16547 
16585 
16487 
16498 
16549 
16548 
16538 
16525 
16615 
16590 
16462 
16399 
16461 
16511 
16495 
16495 
16507 
16525 
16441 
16453 
16488 
16531 
16484 
16477 
16534 
16527 
16545 
16535 
16507 
16493 
16531 
16513 
16508 
16650 
16836 
16970 
17222 
17410 
17281 
16929 
16608 
16582 
16637 
16539 
16486 
16521 
16556 
16523 
16437 
16467 
16507 
16495 
16426 
16429 
16510 
16542 
16464 
16416 
16509 
16532 
16509 
16502 
16530 
16592 
16533 
16500 
16492 
16563 
16548 
16504 
16509 
16531 
16541 
16503 
16471 
16569 
16569 
16528 
16588 
16664 
16647 
16560 
16548 
16600 
16655 
16670 
16631 
16678 
16690 
16699 
16681 
16702 
16742 
16762 
16728 
16748 
16828 
16804 
16707 
16771 
16826 
16831 
16768 
16775 
16847 
16829 
16755 
16723 
16763 
16710 
16633 
16586 
16650 
16647 
16623 
16569 
16509 
16562 
16549 
16420 
16452 
16494 
16563 
16510 
16475 
16518 
16519 
16451 
16439 
16487 
16572 
16533 
16443 
16526 
16570 
16429 
16374 
16515 
16541 
16507 
16453 
16490 
16513 
16480 
16433 
16499 
16536 
16500 
16468 
16535 
16584 
16507 
16470 
16458 
16500 
16521 
16458 
16419 
16446 
16527 
16499 
16437 
16482 
16550 
16489 
16382 
16428 
16531 
16493 
16401 
16438 
16522 
16469 
16405 
16396 
16437 
16521 
16429 
16445 
16465 
16484 
16431 
16380 
16438 
16468 
16430 
16411 
16423 
16447 
16441 
16338 
16458 
16450 
16423 
16388 
16425 
16470 
16480 
16359 
16382 
16459 
16492 
16431 
16389 
16453 
16512 
16440 
16381 
16431 
16506 
16499 
16411 
16455 
16433 
16419 
16415 
16455 
16423 
16393 
16347 
16387 
16379 
16392 
16327 
16347 
16388 
16423 
16422 
16374 
16398 
16462 
16382 
16337 
16434 
16430 
16420 
16470 
16603 
16786 
17014 
17190 
17325 
17253 
16988 
16660 
16534 
16627 
16598 
16490 
16421 
16466 
16472 
16419 
16397 
16422 
16482 
16428 
16384 
16388 
16419 
16408 
16351 
16407 
16454 
16471 
16384 
16411 
16474 
16473 
16435 
16451 
16463 
16499 
16494 
16507 
16495 
16526 
16497 
16484 
16514 
16580 
16519 
16473 
16551 
16603 
16558 
16515 
16585 
16575 
16575 
16520 
16567 
16649 
16618 
16538 
16602 
16685 
16696 
16658 
16647 
16739 
16765 
16635 
16671 
16728 
16787 
16744 
16663 
16660 
16744 
16643 
16555 
16610 
16619 
16532 
16430 
16479 
16551 
16505 
16396 
16408 
16455 
16423 
16381 
16421 
16443 
16461 
16432 
16351 
16363 
16408 
16410 
16431 
16431 
16426 
16393 
16377 
16431 
16418 
16406 
16388 
16414 
16428 
16413 
16361 
16420 
16420 
16437 
16470 
16463 
16445 
16428 
16407 
16400 
16418 
16404 
16451 
16438 
16414 
16398 
16342 
16372 
16444 
16448 
16397 
16341 
16314 
16350 
16377 
16359 
16386 
16381 
16412 
16363 
16359 
16415 
16425 
16403 
16339 
16347 
16396 
16389 
16387 
16396 
16435 
16405 
16350 
16362 
16413 
16408 
16355 
16360 
16425 
16446 
16370 
16370 
16395 
16437 
16355 
16343 
16458 
16441 
16382 
16342 
16393 
16408 
16365 
16304 
16339 
16401 
16359 
16314 
16309 
16407 
16413 
16361 
16375 
16383 
16354 
16367 
16376 
16446 
16405 
16311 
16328 
16446 
16483 
16422 
16416 
16468 
16432 
16425 
16395 
16472 
16548 
16417 
16348 
16418 
16423 
16373 
16356 
16375 
16378 
16375 
16334 
16328 
16366 
16435 
16386 
16307 
16304 
16393 
16412 
16478 
16617 
16904 
17159 
17280 
17292 
17064 
16733 
16614 
16632 
16602 
16554 
16412 
16449 
16502 
16497 
16468 
16466 
16473 
16458 
16419 
16430 
16479 
16533 
16461 
16407 
16461 
16453 
16456 
16421 
16365 
16420 
16398 
16360 
16408 
16430 
16400 
16397 
16373 
16490 
16532 
16430 
16364 
16485 
16503 
16461 
16425 
16475 
16506 
16505 
16480 
16482 
16500 
16497 
16505 
16575 
16589 
16555 
16501 
16561 
16628 
16649 
16618 
16660 
16661 
16669 
16620 
16636 
16758 
16743 
16616 
16574 
16632 
16629 
16589 
16531 
16553 
16570 
16451 
16428 
16430 
16484 
16440 
16353 
16376 
16459 
16422 
16349 
16399 
16373 
16385 
16376 
16329 
16370 
16369 
16329 
16318 
16366 
16415 
16351 
16327 
16339 
16420 
16351 
16302 
16352 
16379 
16384 
16324 
16353 
16381 
16405 
16381 
16330 
16323 
16382 
16409 
16422 
16389 
16345 
16375 
16400 
16432 
16426 
16364 
16297 
16313 
16340 
16395 
16355 
16330 
16371 
16420 
16287 
16294 
16341 
16329 
16271 
16332 
16307 
16348 
16291 
16284 
16277 
16357 
16306 
16292 
16241 
16257 
16309 
16307 
16340 
16377 
16351 
16288 
16315 
16375 
16410 
16309 
16297 
16350 
16380 
16336 
16306 
16371 
16385 
16305 
16329 
16367 
16401 
16394 
16292 
16306 
16368 
16298 
16322 
16364 
16331 
16297 
16335 
16329 
16345 
16313 
16245 
16290 
16304 
16347 
16309 
16333 
16329 
16334 
16271 
16297 
16403 
16433 
16353 
16310 
16342 
16368 
16415 
16359 
16350 
16338 
16348 
16339 
16369 
16422 
16395 
16287 
16342 
16386 
16333 
16251 
16241 
16312 
16331 
16222 
16174 
16296 
16333 
16283 
16240 
16266 
16302 
16271 
16208 
16236 
16311 
16362 
16508 
16712 
17027 
17248 
17233 
17032 
16776 
16565 
16487 
16437 
16368 
16365 
16312 
16293 
16330 
16387 
16338 
16320 
16356 
16396 
16315 
16238 
16283 
16304 
16294 
16219 
16247 
16315 
16300 
16241 
16277 
16333 
16337 
16283 
16254 
16314 
16340 
16299 
16276 
16313 
16358 
16350 
16316 
16366 
16352 
16275 
16237 
16328 
16399 
16384 
16326 
16353 
16384 
16369 
16311 
16371 
16433 
16446 
16409 
16390 
16435 
16506 
16455 
16485 
16533 
16567 
16544 
16487 
16523 
16624 
16630 
16515 
16494 
16536 
16509 
16398 
16377 
16441 
16423 
16307 
16333 
16362 
16301 
16265 
16350 
16304 
16311 
16269 
16225 
16256 
16322 
16234 
16186 
16259 
16277 
16286 
16206 
16248 
16303 
16317 
16251 
16253 
16267 
16261 
16267 
16246 
16291 
16314 
16294 
16236 
16236 
16323 
16274 
16184 
16249 
16264 
16201 
16204 
16281 
16218 
16214 
16226 
16253 
16292 
16240 
16133 
16162 
16260 
16272 
16223 
16169 
16154 
16219 
16148 
16130 
16178 
16158 
16159 
16157 
16220 
16327 
16273 
16199 
16235 
16265 
16280 
16221 
16176 
16284 
16367 
16211 
16145 
16310 
16328 
16253 
16231 
16292 
16267 
16190 
16211 
16215 
16278 
16229 
16186 
16222 
16267 
16186 
16167 
16220 
16246 
16246 
16178 
16159 
16184 
16260 
16157 
16153 
16231 
16217 
16129 
16160 
16230 
16274 
16182 
16114 
16240 
16222 
16173 
16162 
16253 
16246 
16158 
16111 
16219 
16261 
16217 
16175 
16165 
16256 
16273 
16188 
16219 
16282 
16260 
16178 
16161 
16179 
16173 
16147 
16161 
16232 
16238 
16181 
16126 
16171 
16224 
16164 
16121 
16202 
16272 
16277 
16323 
16636 
16899 
17049 
17027 
16836 
16585 
16406 
16289 
16252 
16299 
16277 
16150 
16162 
16187 
16246 
16198 
16165 
16151 
16245 
16219 
16197 
16238 
16281 
16237 
16142 
16191 
16214 
16273 
16258 
16243 
16208 
16266 
16221 
16212 
16262 
16328 
16280 
16232 
16270 
16290 
16288 
16245 
16247 
16309 
16312 
16247 
16240 
16280 
16315 
16261 
16350 
16393 
16358 
16263 
16334 
16441 
16445 
16420 
16354 
16332 
16373 
16466 
16475 
16494 
16526 
16518 
16486 
16446 
16548 
16543 
16467 
16506 
16537 
16503 
16339 
16312 
16344 
16406 
16238 
16171 
16244 
16264 
16172 
16187 
16218 
16178 
16179 
16182 
16224 
16227 
16196 
16153 
16215 
16258 
16155 
16108 
16118 
16276 
16235 
16192 
16231 
16286 
16222 
16130 
16113 
16205 
16250 
16214 
16229 
16273 
16246 
16145 
16140 
16199 
16187 
16168 
16153 
16146 
16262 
16261 
16189 
16176 
16214 
16152 
16126 
16165 
16252 
16263 
16184 
16114 
16112 
16173 
16136 
16136 
16168 
16194 
16158 
16143 
16227 
16225 
16133 
16090 
16147 
16197 
16201 
16181 
16157 
16147 
16147 
16092 
16133 
16112 
16187 
16196 
16160 
16181 
16183 
16168 
16143 
16186 
16250 
16140 
16092 
16130 
16182 
16140 
16100 
16172 
16213 
16183 
16104 
16156 
16176 
16188 
16138 
16159 
16200 
16259 
16203 
16147 
16195 
16196 
16157 
16161 
16230 
16247 
16158 
16128 
16159 
16169 
16199 
16091 
16159 
16218 
16186 
16095 
16136 
16124 
16101 
16073 
16096 
16139 
16166 
16163 
16260 
16453 
16744 
16937 
16983 
16903 
16656 
16363 
16273 
16293 
16301 
16276 
16131 
16172 
16251 
16223 
16172 
16171 
16224 
16194 
16133 
16144 
16189 
16192 
16161 
16177 
16235 
16235 
16181 
16140 
16156 
16196 
16142 
16155 
16198 
16227 
16246 
16204 
16210 
16189 
16245 
16161 
16171 
16236 
16311 
16235 
16218 
16273 
16298 
16227 
16194 
16291 
16355 
16304 
16295 
16387 
16379 
16351 
16327 
16411 
16443 
16425 
16385 
16463 
16509 
16500 
16405 
16401 
16481 
16492 
16425 
16386 
16413 
16395 
16336 
16329 
16358 
16308 
16254 
16160 
16197 
16267 
16210 
16129 
16166 
16162 
16190 
16093 
16103 
16169 
16201 
16106 
16094 
16126 
16163 
16163 
16130 
16171 
16177 
16045 
16064 
16189 
16206 
16140 
16130 
16131 
16159 
16162 
16171 
16148 
16216 
16192 
16075 
16117 
16201 
16188 
16094 
16169 
16204 
16177 
16141 
16124 
16142 
16183 
16117 
16109 
16133 
16155 
16144 
16103 
16175 
16196 
16127 
16065 
16135 
16136 
16136 
16064 
16114 
16165 
16168 
16181 
16141 
16135 
16157 
16058 
16027 
16117 
16234 
16179 
16165 
16076 
16115 
16099 
16091 
16106 
16220 
16189 
16089 
16099 
16175 
16199 
16089 
16077 
16137 
16174 
16118 
16070 
16131 
16177 
16064 
16074 
16169 
16193 
16116 
16097 
16171 
16200 
16200 
16121 
16135 
16203 
16240 
16164 
16156 
16189 
16204 
16125 
16155 
16239 
16215 
16150 
16083 
16147 
16164 
16111 
16095 
16129 
16140 
16009 
16078 
16119 
16121 
16105 
16041 
16092 
16113 
16098 
16017 
16087 
16180 
16238 
16247 
16463 
16847 
17033 
17022 
16837 
16623 
16403 
16289 
16204 
16194 
16216 
16195 
16103 
16126 
16208 
16111 
16041 
16102 
16127 
16104 
16063 
16083 
16213 
16156 
16074 
16106 
16136 
16174 
16079 
16097 
16169 
16180 
16101 
16120 
16137 
16167 
16193 
16173 
16162 
16095 
16164 
16164 
16165 
16248 
16198 
16154 
16166 
16254 
16282 
16200 
16242 
16238 
16233 
16265 
16257 
16310 
16291 
16281 
16308 
16360 
16356 
16340 
16333 
16427 
16476 
16395 
16338 
16412 
16455 
16414 
16332 
16295 
16333 
16299 
16254 
16252 
16302 
16237 
16139 
16075 
16130 
16150 
16139 
16149 
16120 
16133 
16071 
16044 
16136 
16155 
16089 
16008 
16029 
16097 
16155 
16159 
16128 
16114 
16044 
16041 
16132 
16164 
16125 
16053 
16044 
16093 
16123 
16070 
16038 
16088 
16176 
16155 
16102 
16174 
16225 
16155 
16021 
16032 
16106 
16157 
16091 
16082 
16116 
16143 
16078 
16073 
16138 
16118 
16042 
16067 
16129 
16163 
16140 
16082 
16113 
16148 
16106 
16041 
16057 
16086 
16066 
15983 
16017 
16062 
16101 
16039 
16076 
16100 
16139 
16057 
16078 
16155 
16135 
16081 
16022 
16044 
16070 
16002 
15997 
16107 
16117 
16038 
15954 
16042 
16055 
15979 
15934 
16019 
16030 
16047 
16005 
16002 
16127 
16128 
15986 
15975 
16056 
16096 
16004 
16020 
16080 
16050 
15981 
16003 
16045 
16045 
16050 
16019 
16004 
16033 
16048 
15968 
16030 
16109 
16074 
16036 
16035 
16143 
16135 
16082 
16126 
16141 
16126 
16109 
16044 
16126 
16106 
16090 
16020 
16015 
16038 
16031 
15984 
16018 
15998 
16019 
16073 
16090 
16123 
16121 
16008 
15946 
16083 
16170 
16173 
16230 
16484 
16833 
16960 
16942 
16726 
16479 
16252 
16127 
16184 
16168 
16114 
16073 
16117 
16095 
16086 
16075 
16061 
16094 
16169 
16055 
16078 
16088 
16147 
16091 
16066 
16096 
16092 
16063 
16059 
16110 
16172 
16117 
16102 
16115 
16159 
16127 
15995 
16068 
16169 
16137 
16094 
16154 
16139 
16132 
16090 
16112 
16164 
16186 
16172 
16152 
16220 
16217 
16195 
16157 
16177 
16243 
16347 
16242 
16240 
16304 
16305 
16243 
16325 
16418 
16442 
16321 
16266 
16346 
16368 
16346 
16349 
16370 
16300 
16251 
16259 
16248 
16263 
16162 
16100 
16139 
16137 
16104 
16054 
16107 
16140 
16077 
15997 
16049 
16071 
16083 
16022 
16012 
16059 
16043 
16054 
16068 
16065 
16040 
16047 
16007 
16073 
16152 
16064 
15989 
16041 
16137 
16118 
16040 
16134 
16140 
16080 
15973 
16120 
16159 
16104 
16058 
16056 
16048 
16133 
16053 
16039 
16041 
16064 
16084 
16041 
16096 
16154 
16124 
16070 
16015 
16075 
16074 
16035 
16020 
16055 
16042 
15980 
15971 
16063 
16072 
16025 
16083 
16085 
16069 
16018 
16010 
16083 
16076 
15992 
15922 
16041 
16114 
16054 
16020 
16024 
16109 
16044 
15965 
16053 
16124 
16070 
15968 
15955 
16047 
16050 
15983 
16012 
16052 
16043 
16049 
16032 
16052 
16092 
16000 
15998 
16036 
16048 
16003 
16020 
16027 
16056 
15997 
15995 
16045 
16055 
16031 
15993 
16025 
16089 
16106 
16087 
16022 
16070 
16151 
16121 
16074 
16080 
16139 
16065 
15991 
16034 
16053 
16061 
16001 
16042 
16066 
16064 
15975 
15983 
16070 
16036 
15995 
16022 
16050 
16085 
16099 
16134 
16229 
16388 
16576 
16768 
16802 
16650 
16347 
16165 
16183 
16129 
16053 
16036 
16014 
16141 
16077 
16017 
15999 
16019 
16031 
15971 
15980 
16082 
16075 
15970 
16037 
16088 
16108 
16032 
16005 
16066 
16085 
16017 
15992 
16028 
16087 
16079 
16031 
16063 
16072 
16032 
15995 
16079 
16117 
16080 
16004 
16043 
16094 
16183 
16110 
16080 
16160 
16219 
16157 
16161 
16195 
16206 
16232 
16242 
16307 
16313 
16330 
16302 
16310 
16347 
16387 
16354 
16372 
16444 
16387 
16293 
16326 
16384 
16351 
16302 
16262 
16272 
16235 
16155 
16129 
16094 
16159 
16157 
16049 
16042 
16091 
16071 
16013 
16075 
16091 
16015 
15945 
15936 
15972 
15968 
15957 
16024 
16060 
16045 
15984 
15987 
15992 
16037 
16014 
