49322 
49467 
49593 
49731 
49789 
49852 
49916 
49971 
50036 
50107 
50196 
50293 
50426 
50512 
50603 
50735 
50783 
50824 
50919 
51052 
51078 
51143 
51277 
51324 
51366 
51464 
51558 
51573 
51636 
51711 
51738 
51768 
51807 
51916 
52065 
52132 
52174 
52237 
52239 
52251 
52341 
52421 
52434 
52472 
52517 
52556 
52561 
52575 
52669 
52695 
52679 
52678 
52704 
52746 
52770 
52810 
52837 
52852 
52863 
52844 
52857 
52893 
52877 
52898 
52905 
52904 
52955 
52998 
52985 
53005 
53010 
52984 
52968 
52950 
52914 
52914 
52872 
52845 
52916 
52937 
52907 
52939 
52962 
52978 
52990 
53049 
53143 
53169 
53140 
53093 
53065 
52998 
52924 
52824 
52614 
52426 
52176 
51913 
51624 
51366 
51083 
50752 
50404 
50048 
49678 
49308 
48950 
48586 
48247 
47905 
47561 
47232 
46909 
46635 
46364 
46124 
45844 
45625 
45457 
45311 
45205 
45125 
45057 
44924 
44843 
44810 
44795 
44771 
44741 
44735 
44693 
44641 
44605 
44640 
44722 
44801 
44873 
44974 
45028 
45095 
45176 
45279 
45343 
45384 
45408 
45479 
45570 
45702 
45882 
45997 
46111 
46256 
46403 
46564 
46685 
46773 
46885 
47043 
47164 
47294 
47392 
47450 
47523 
47628 
47718 
47838 
47955 
47999 
47996 
48099 
48217 
48220 
48244 
48334 
48424 
48471 
48498 
48546 
48588 
48698 
48790 
48799 
48817 
48854 
48916 
48964 
49039 
49100 
49154 
49234 
49308 
49375 
49397 
49505 
49656 
49740 
49811 
49899 
49965 
50091 
50246 
50370 
50488 
50599 
50673 
50743 
50799 
50889 
51015 
51099 
51171 
51304 
51409 
51473 
51618 
51725 
51832 
51958 
52010 
52028 
52111 
52182 
52276 
52342 
52339 
52373 
52416 
52475 
52537 
52603 
52693 
52755 
52817 
52877 
52941 
53023 
53087 
53131 
53127 
53156 
53176 
53209 
53227 
53210 
53258 
53262 
53268 
53276 
53277 
53276 
53244 
53267 
53339 
53360 
53348 
53294 
53272 
53242 
53236 
53236 
53242 
53217 
53174 
53135 
53092 
53096 
53169 
53186 
53217 
53221 
53200 
53169 
53203 
53228 
53186 
53127 
53129 
53097 
53036 
52974 
52955 
52924 
52921 
52940 
52941 
52932 
52975 
53005 
52971 
52940 
52906 
52868 
52827 
52804 
52753 
52778 
52795 
52849 
52849 
52769 
52726 
52695 
52635 
52540 
52375 
52186 
51963 
51673 
51408 
51196 
50909 
50572 
50216 
49831 
49439 
49029 
48634 
48207 
47805 
47408 
47054 
46703 
46338 
46025 
45692 
45386 
45131 
44885 
44629 
44376 
44159 
43999 
43847 
43708 
43612 
43527 
43414 
43343 
43282 
43203 
43185 
43224 
43244 
43288 
43327 
43374 
43355 
43360 
43400 
43381 
43366 
43444 
43543 
43588 
43650 
43730 
43823 
43956 
44035 
44122 
44237 
44356 
44514 
44644 
44754 
44898 
45063 
45237 
45372 
45538 
45754 
45938 
46049 
46155 
46281 
46382 
46486 
46636 
46773 
46903 
46996 
47075 
47155 
47321 
47432 
47433 
47430 
47515 
47599 
47635 
47731 
47797 
47887 
47934 
47988 
48084 
48111 
48194 
48285 
48389 
48494 
48595 
48689 
48789 
48882 
49019 
49181 
49297 
49407 
49539 
49619 
49689 
49786 
49894 
50080 
50227 
50291 
50369 
50454 
50553 
50697 
50820 
50885 
50946 
51005 
51129 
51290 
51413 
51511 
51586 
51686 
51805 
51872 
51908 
51971 
52075 
52198 
52321 
52380 
52427 
52466 
52519 
52553 
52612 
52676 
52773 
52821 
52877 
52948 
52985 
53028 
53131 
53167 
53198 
53213 
53206 
53259 
53311 
53329 
53301 
53362 
53425 
53471 
53501 
53570 
53581 
53557 
53498 
53460 
53498 
53510 
53508 
53506 
53500 
53492 
53510 
53533 
53534 
53547 
53534 
53537 
53478 
53413 
53370 
53365 
53348 
53355 
53348 
53381 
53396 
53332 
53279 
53263 
53249 
53209 
53193 
53160 
53154 
53128 
53082 
53060 
53027 
53009 
52977 
52985 
52956 
52950 
52980 
52982 
52968 
52920 
52880 
52889 
52899 
52898 
52872 
52847 
52815 
52862 
52866 
52796 
52760 
52711 
52670 
52678 
52655 
52565 
52445 
52328 
52175 
51942 
51676 
51367 
51044 
50719 
50430 
50120 
49769 
49394 
49000 
48649 
48287 
47937 
47543 
47116 
46705 
46361 
46054 
45725 
45427 
45127 
44865 
44567 
44285 
44108 
43946 
43798 
43671 
43556 
43522 
43498 
43514 
43517 
43502 
43483 
43489 
43487 
43472 
43517 
43594 
43664 
43699 
43762 
43784 
43861 
43938 
44025 
44076 
44156 
44282 
44407 
44555 
44716 
44840 
44944 
45001 
45093 
45259 
45392 
45476 
45662 
45835 
45951 
46057 
46153 
46304 
46446 
46566 
46688 
46772 
46860 
46916 
46974 
46995 
47093 
47267 
47382 
47446 
47529 
47630 
47731 
47781 
47792 
47788 
47846 
47920 
47985 
48103 
48157 
48201 
48246 
48252 
48278 
48329 
48437 
48574 
48652 
48729 
48828 
48927 
49040 
49145 
49204 
49282 
49343 
49440 
49524 
49643 
49766 
49873 
49966 
50056 
50166 
50244 
50304 
50406 
50569 
50755 
50912 
51013 
51041 
51061 
51136 
51226 
51348 
51463 
51571 
51645 
51699 
51766 
51822 
51913 
52006 
52050 
52087 
52136 
52219 
52269 
52260 
52280 
52369 
52446 
52464 
52457 
52548 
52616 
52676 
52770 
52843 
52835 
52804 
52872 
52910 
52907 
52950 
52966 
52964 
52947 
52984 
53079 
53091 
53113 
53131 
53144 
53182 
53270 
53305 
53328 
53309 
53308 
53329 
53345 
53377 
53436 
53493 
53503 
53540 
53587 
53596 
53584 
53560 
53594 
53647 
53655 
53609 
53590 
53586 
53565 
53546 
53520 
53474 
53461 
53478 
53488 
53497 
53465 
53450 
53439 
53417 
53443 
53475 
53481 
53421 
53338 
53268 
53240 
53177 
53154 
53150 
53117 
53062 
53014 
52977 
52950 
52929 
52881 
52866 
52876 
52873 
52828 
52722 
52625 
52537 
52446 
52227 
52027 
51768 
51534 
51306 
51097 
50829 
50464 
50085 
49711 
49297 
48895 
48486 
48132 
47825 
47477 
47113 
46714 
46326 
45969 
45616 
45296 
44958 
44667 
44434 
44221 
44054 
43925 
43762 
43617 
43497 
43368 
43263 
43209 
43145 
43149 
43131 
43100 
43125 
43114 
43095 
43103 
43106 
43133 
43222 
43235 
43280 
43356 
43429 
43518 
43601 
43716 
43823 
43898 
44015 
44156 
44287 
44439 
44569 
44697 
44844 
44915 
44998 
45156 
45397 
45624 
45752 
45799 
45898 
45993 
46061 
46191 
46338 
46416 
46470 
46540 
46625 
46734 
46797 
46818 
46896 
46932 
46949 
47053 
47175 
47273 
47312 
47383 
47443 
47492 
47526 
47598 
47655 
47665 
47714 
47815 
47883 
47933 
48071 
48173 
48252 
48340 
48411 
48517 
48649 
48748 
48808 
48912 
49007 
49099 
49206 
49341 
49534 
49700 
49809 
49932 
50008 
50039 
50152 
50253 
50353 
50546 
50641 
50717 
50829 
50882 
50975 
51079 
51145 
51168 
51215 
51310 
51389 
51423 
51521 
51602 
51656 
51744 
51806 
51862 
51967 
52039 
52051 
52109 
52187 
52191 
52159 
52188 
52207 
52253 
52328 
52399 
52414 
52458 
52500 
52563 
52607 
52604 
52628 
52630 
52629 
52656 
52713 
52752 
52766 
52762 
52771 
52746 
52743 
52730 
52737 
52776 
52846 
52852 
52797 
52752 
52770 
52763 
52738 
52755 
52816 
52793 
52810 
52748 
52749 
52815 
52790 
52761 
52726 
52712 
52724 
52650 
52599 
52618 
52631 
52651 
52711 
52723 
52629 
52562 
52553 
52551 
52504 
52408 
52338 
52345 
52267 
52273 
52326 
52327 
52327 
52297 
52233 
52197 
52173 
52157 
52104 
52065 
52043 
52045 
52070 
52042 
52002 
51939 
51862 
51827 
51852 
51837 
51859 
51844 
51853 
51819 
51753 
51688 
51683 
51613 
51448 
51247 
51008 
50759 
50468 
50092 
49740 
49438 
49170 
48798 
48381 
48017 
47624 
47202 
46810 
46420 
46030 
45640 
45260 
44940 
44672 
44371 
44037 
43774 
43577 
43364 
43176 
43039 
42945 
42845 
42768 
42739 
42654 
42541 
42457 
42457 
42443 
42406 
42408 
42394 
42438 
42521 
42560 
42606 
42606 
42662 
42743 
42818 
42883 
42915 
42960 
43042 
43152 
43225 
43325 
43445 
43570 
43743 
43907 
44017 
44117 
44217 
44357 
44538 
44712 
44872 
44991 
45067 
45102 
45248 
45367 
45435 
45546 
45640 
45734 
45858 
45954 
46049 
46176 
46246 
46306 
46332 
46349 
46438 
46531 
46641 
46711 
46771 
46868 
46929 
47062 
47178 
47232 
47285 
47309 
47360 
47433 
47521 
47569 
47664 
47772 
47892 
48028 
48160 
48264 
48369 
48469 
48577 
48711 
48846 
48967 
49114 
49223 
49315 
49368 
49431 
49535 
49681 
49766 
49853 
49980 
50169 
50369 
50448 
50509 
50581 
50671 
50781 
50933 
51081 
51150 
51218 
51297 
51402 
51557 
51695 
51731 
51731 
51800 
51868 
51989 
52083 
52142 
52158 
52198 
52168 
52199 
52256 
52348 
52376 
52424 
52466 
52499 
52543 
52605 
52664 
52689 
52732 
52773 
52799 
52803 
52796 
52862 
52880 
52881 
52829 
52828 
52833 
52836 
52828 
52860 
52835 
52790 
52776 
52793 
52773 
52781 
52813 
52816 
52804 
52829 
52845 
52829 
52782 
52750 
52710 
52644 
52653 
52657 
52643 
52627 
52614 
52633 
52616 
52650 
52696 
52690 
52644 
52623 
52568 
52520 
52460 
52434 
52428 
52398 
52398 
52391 
52418 
52440 
52408 
52366 
52365 
52351 
52328 
52281 
52282 
52256 
52188 
52157 
52170 
52201 
52149 
52162 
52149 
52118 
52091 
52057 
52027 
51963 
51956 
51960 
51924 
51881 
51871 
51811 
51739 
51668 
51623 
51560 
51456 
51249 
50960 
50707 
50473 
50173 
49861 
49532 
49161 
48802 
48474 
48130 
47773 
47448 
47080 
46727 
46363 
46007 
45647 
45362 
45046 
44746 
44479 
44237 
44020 
43803 
43584 
43459 
43330 
43248 
43173 
43101 
42980 
42942 
42856 
42869 
42931 
42947 
42929 
42975 
43059 
43087 
43127 
43186 
43238 
43251 
43321 
43368 
43465 
43618 
43753 
43836 
43957 
44101 
44255 
44389 
44423 
44488 
44587 
44738 
44914 
45050 
45140 
45241 
45383 
45525 
45630 
45728 
45813 
45910 
45989 
46105 
46187 
46209 
46274 
46350 
46491 
46603 
46688 
46744 
46759 
46845 
46959 
47068 
47114 
47168 
47155 
47124 
47151 
47238 
47375 
47461 
47508 
47583 
47685 
47784 
47848 
47887 
47958 
48028 
48094 
48187 
48304 
48444 
48540 
48588 
48623 
48688 
48823 
48966 
49090 
49202 
49304 
49421 
49495 
49574 
49695 
49794 
49892 
49992 
50130 
50237 
50328 
50454 
50545 
50557 
50606 
50707 
50770 
50840 
50937 
51066 
51176 
51232 
51282 
51346 
51390 
51489 
51551 
51582 
51690 
51795 
51869 
51924 
51994 
52040 
52098 
52111 
52152 
52197 
52201 
52244 
52274 
52264 
52263 
52294 
52287 
52282 
52247 
52229 
52229 
52261 
52309 
52381 
52427 
52434 
52468 
52449 
52440 
52461 
52444 
52414 
52457 
52505 
52506 
52480 
52513 
52515 
52489 
52516 
52542 
52566 
52546 
52491 
52465 
52454 
52457 
52480 
52468 
52455 
52436 
52408 
52356 
52335 
52306 
52271 
52268 
52269 
52282 
52270 
52245 
52199 
52175 
52175 
52182 
52164 
52115 
52105 
52141 
52203 
52210 
52170 
52162 
52132 
52055 
51954 
51882 
51740 
51483 
51242 
50999 
50708 
50403 
50113 
49795 
49489 
49217 
48879 
48529 
48253 
47917 
47528 
47179 
46852 
46530 
46221 
45870 
45591 
45348 
45104 
44900 
44726 
44544 
44359 
44219 
44152 
44073 
43937 
43856 
43805 
43721 
43682 
43647 
43590 
43590 
43619 
43667 
43720 
43747 
43761 
43780 
43824 
43929 
44003 
44076 
44186 
44329 
44396 
44452 
44509 
44598 
44680 
44820 
44966 
45085 
45219 
45363 
45492 
45614 
45736 
45863 
45974 
46112 
46233 
46294 
46357 
46441 
46531 
46664 
46822 
46879 
46906 
46955 
47014 
47086 
47150 
47202 
47242 
47302 
47447 
47550 
47587 
47632 
47632 
47618 
47610 
47682 
47735 
47798 
47923 
48020 
48057 
48148 
48279 
48369 
48469 
48538 
48601 
48697 
48789 
48871 
48948 
48985 
49100 
49198 
49275 
49384 
49488 
49566 
49684 
49737 
49787 
49871 
50022 
50170 
50292 
50384 
50441 
50498 
50550 
50653 
50775 
50837 
50952 
51013 
51008 
51051 
51167 
51268 
51325 
51410 
51486 
51503 
51517 
51559 
51611 
51686 
51767 
51852 
51945 
52005 
52061 
52098 
52095 
52087 
52145 
52257 
52333 
52372 
52325 
52318 
52396 
52457 
52448 
52448 
52456 
52431 
52420 
52435 
52471 
52483 
52495 
52478 
52480 
52464 
52470 
52483 
52523 
52543 
52511 
52541 
52579 
52559 
52513 
52434 
52398 
52426 
52404 
52356 
52349 
52394 
52382 
52340 
52311 
52302 
52269 
52223 
52173 
52132 
52148 
52166 
52196 
52195 
52159 
52153 
52131 
52090 
52061 
52125 
52134 
52085 
52033 
52019 
52018 
51993 
51929 
51849 
51844 
51902 
51939 
51859 
51794 
51785 
51704 
51654 
51578 
51477 
51376 
51232 
51057 
50847 
50608 
50365 
50114 
49823 
49499 
49198 
48862 
48511 
48165 
47818 
47496 
47136 
46731 
46343 
45999 
45720 
45457 
45215 
44943 
44746 
44574 
44373 
44165 
43984 
43796 
43630 
43522 
43427 
43376 
43384 
43333 
43196 
43162 
43077 
43044 
43054 
43097 
43164 
43172 
43184 
43156 
43136 
43151 
43202 
43276 
43367 
43438 
43533 
43646 
43741 
43829 
43899 
43938 
44032 
44114 
44250 
44459 
44654 
44818 
44966 
45135 
45286 
45383 
45461 
45554 
45676 
45823 
45906 
45955 
46042 
46137 
46228 
46295 
46342 
46445 
46497 
46544 
46608 
46745 
46856 
46944 
47037 
47040 
47009 
47042 
47124 
47230 
47344 
47428 
47498 
47586 
47668 
47696 
47768 
47846 
47910 
47987 
48094 
48172 
48267 
48361 
48417 
48485 
48614 
48792 
48929 
49018 
49074 
49133 
49253 
49401 
49509 
49605 
49731 
49880 
50000 
50094 
50255 
50342 
50346 
50438 
50479 
50547 
50691 
50814 
50907 
51003 
51059 
51090 
51113 
51172 
51236 
51289 
51368 
51422 
51485 
51599 
51660 
51681 
51747 
51816 
51849 
51877 
51894 
51928 
51958 
51966 
52024 
52094 
52093 
52102 
52107 
52092 
52116 
52139 
52121 
52139 
52177 
52223 
52272 
52349 
52402 
52381 
52386 
52405 
52386 
52379 
52420 
52479 
52516 
52461 
52452 
52494 
52533 
52550 
52511 
52502 
52484 
52523 
52612 
52659 
52655 
52643 
52637 
52601 
52550 
52498 
52504 
52508 
52478 
52452 
52416 
52412 
52445 
52463 
52426 
52436 
52450 
52379 
52360 
52327 
52262 
52242 
52189 
52140 
52118 
52122 
52126 
52088 
52029 
51988 
51949 
51923 
51876 
51834 
51807 
51798 
51684 
51547 
51440 
51272 
51089 
50961 
50740 
50531 
50362 
50131 
49892 
49641 
49349 
48982 
48651 
48349 
48045 
47697 
47371 
47045 
46740 
46407 
46082 
45765 
45468 
45214 
44978 
44747 
44540 
44341 
44142 
43955 
43776 
43582 
43454 
43341 
43288 
43258 
43182 
43141 
43117 
43075 
43054 
43005 
43021 
43088 
43105 
43097 
43126 
43265 
43360 
43363 
43414 
43506 
43606 
43746 
43912 
44048 
44108 
44283 
44470 
44601 
44673 
44774 
44831 
44948 
45057 
45176 
45342 
45501 
45563 
45669 
45851 
45937 
46018 
46132 
46230 
46333 
46436 
46503 
46558 
46659 
46704 
46759 
46828 
46862 
46890 
46931 
46961 
46944 
46943 
47040 
47107 
47134 
47179 
47211 
47317 
47382 
47427 
47511 
47548 
47584 
47725 
47833 
47928 
48011 
48087 
48155 
48277 
48359 
48437 
48554 
48657 
48737 
48860 
48962 
48960 
49014 
49134 
49252 
49366 
49529 
49670 
49742 
49833 
49940 
50014 
50159 
50312 
50426 
50493 
50556 
50583 
50648 
50767 
50879 
51029 
51097 
51151 
51239 
51267 
51293 
51380 
51496 
51584 
51660 
51757 
51853 
51916 
51898 
51909 
51930 
51904 
51949 
52004 
52005 
52032 
52080 
52165 
52272 
52342 
52316 
52306 
52328 
52356 
52384 
52411 
52395 
52381 
52423 
52425 
52421 
52457 
52481 
52433 
52368 
52352 
52423 
52496 
52475 
52423 
52419 
52420 
52425 
52450 
52444 
52478 
52495 
52509 
52553 
52534 
52475 
52448 
52409 
52368 
52390 
52411 
52397 
52366 
52364 
52367 
52328 
52301 
52308 
52309 
52289 
52219 
52136 
52072 
51983 
51794 
51593 
51324 
51074 
50797 
50467 
50196 
49903 
49576 
49198 
48813 
48421 
48094 
47766 
47412 
47064 
46733 
46435 
46113 
45801 
45541 
45317 
45076 
44816 
44635 
44453 
44286 
44159 
44060 
44000 
43871 
43758 
43724 
43696 
43685 
43671 
43666 
43662 
43634 
43693 
43739 
43766 
43758 
43836 
43917 
43950 
43986 
44068 
44200 
44295 
44358 
44403 
44524 
44668 
44792 
44884 
44985 
45164 
45339 
45487 
45597 
45682 
45818 
45945 
46104 
46175 
46286 
46428 
46580 
46707 
46847 
46965 
47050 
47139 
47234 
47305 
47396 
47539 
47664 
47721 
47722 
47727 
47736 
47772 
47822 
47867 
47873 
47921 
48014 
48098 
48134 
48148 
48236 
48335 
48415 
48557 
48626 
48643 
48713 
48827 
48938 
49004 
49088 
49205 
49297 
49349 
49373 
49437 
49612 
49704 
49680 
49754 
49864 
49979 
50124 
50208 
50293 
50418 
50527 
50607 
50665 
50726 
50801 
50870 
50919 
50997 
51074 
51155 
51243 
51341 
51434 
51527 
51572 
51688 
51744 
51787 
51843 
51838 
51854 
51940 
52029 
52083 
52120 
52174 
52210 
52228 
52270 
52309 
52306 
52318 
52330 
52363 
52410 
52439 
52429 
52413 
52373 
52367 
52385 
52447 
52437 
52423 
52397 
52454 
52481 
52472 
52454 
52483 
52492 
52484 
52483 
52476 
52452 
52427 
52442 
52412 
52378 
52389 
52444 
52417 
52346 
52301 
52298 
52299 
52289 
52240 
52202 
52215 
52198 
52167 
52192 
52245 
52224 
52196 
52218 
52193 
52187 
52151 
52118 
52116 
52119 
52136 
52135 
52144 
52134 
52087 
52090 
52044 
52028 
52011 
51991 
51986 
51949 
51921 
51873 
51780 
51689 
51530 
51328 
51147 
50847 
50514 
50221 
49927 
49596 
49232 
48849 
48470 
48074 
47682 
47345 
47002 
46622 
46296 
45899 
45497 
45147 
44857 
44574 
44335 
44098 
43940 
43772 
43626 
43484 
43276 
43124 
43063 
43049 
43006 
43011 
43036 
43027 
43056 
43073 
43068 
43112 
43190 
43209 
43255 
43302 
43395 
43424 
43452 
43520 
43589 
43700 
43876 
43970 
44103 
44211 
44315 
44413 
44550 
44676 
44780 
44941 
45082 
45207 
45356 
45562 
45720 
45842 
46009 
46166 
46286 
46401 
46468 
46606 
46796 
46887 
46923 
47014 
47116 
47193 
47281 
47365 
47399 
47455 
47549 
47589 
47674 
47712 
47712 
47773 
47801 
47875 
47940 
47998 
48015 
48080 
48159 
48232 
48330 
48428 
48526 
48598 
48695 
48819 
48948 
49045 
49106 
49206 
49323 
49401 
49456 
49559 
49683 
49798 
49951 
50083 
50168 
50215 
50287 
50395 
50496 
50643 
50746 
50799 
50889 
50983 
51067 
51213 
51245 
51348 
51494 
51539 
51565 
51629 
51766 
51832 
51820 
51897 
51979 
52007 
52098 
52169 
52185 
52211 
52234 
52226 
52245 
52297 
52380 
52430 
52485 
52527 
52533 
52544 
52602 
52613 
52602 
52652 
52688 
52707 
52700 
52714 
52711 
52710 
52708 
52699 
52693 
52699 
52655 
52641 
52637 
52585 
52571 
52595 
52618 
52641 
52652 
52639 
52607 
52590 
52573 
52607 
52624 
52645 
52631 
52614 
52581 
52594 
52616 
52581 
52554 
52506 
52497 
52513 
52552 
52613 
52605 
52555 
52455 
52345 
52319 
52337 
52311 
52243 
52194 
52170 
52187 
52202 
52155 
52067 
52048 
52053 
52079 
52047 
51982 
51879 
51808 
51812 
51832 
51825 
51788 
51790 
51816 
51794 
51747 
51718 
51637 
51565 
51518 
51421 
51255 
51024 
50714 
50441 
50167 
49869 
49530 
49206 
48860 
48479 
48098 
47726 
47357 
46972 
46603 
46222 
45862 
45495 
45155 
44770 
44422 
44126 
43901 
43693 
43498 
43282 
43079 
42932 
42820 
42738 
42677 
42629 
42571 
42545 
42526 
42566 
42603 
42624 
42646 
42694 
42763 
42801 
42811 
42842 
42902 
42989 
43103 
43221 
43303 
43354 
43449 
43596 
43777 
43909 
44025 
44136 
44319 
44528 
44661 
44764 
44889 
45025 
45197 
45361 
45507 
45638 
45734 
45820 
45967 
46120 
46182 
46278 
46377 
46455 
46585 
46670 
46695 
46785 
46848 
46883 
46995 
47119 
47192 
47189 
47204 
47231 
47275 
47363 
47446 
47479 
47516 
47607 
47671 
47738 
47792 
47855 
47919 
47989 
48072 
48216 
48346 
48401 
48446 
48508 
48605 
48686 
48808 
48942 
49080 
49148 
49285 
49408 
49520 
49591 
49673 
49823 
49971 
50113 
50237 
50355 
50425 
50519 
50671 
50764 
50836 
50910 
50968 
51001 
51059 
51158 
51283 
51366 
51389 
51412 
51404 
51471 
51596 
51735 
51810 
51875 
51876 
51890 
52007 
52083 
52110 
52154 
52174 
52207 
52215 
52266 
52296 
52314 
52328 
52328 
52378 
52393 
52407 
52458 
52451 
52456 
52481 
52485 
52442 
52453 
52472 
52439 
52422 
52418 
52423 
52417 
52416 
52423 
52419 
52408 
52394 
52355 
52329 
52342 
52296 
52249 
52300 
52293 
52238 
52158 
52131 
52083 
52061 
52079 
52117 
52092 
51989 
51959 
51990 
52031 
52059 
52030 
52003 
51978 
51967 
51955 
52018 
52036 
51984 
51954 
51952 
51980 
51987 
51971 
51966 
51968 
51961 
51941 
51908 
51904 
51893 
51862 
51802 
51798 
51761 
51722 
51654 
51585 
51529 
51455 
51348 
51132 
50872 
50599 
50319 
50059 
49669 
49274 
48926 
48579 
48213 
47858 
47453 
47012 
46610 
46176 
45736 
45351 
45029 
44708 
44387 
44070 
43780 
43516 
43306 
43096 
42859 
42658 
42518 
42422 
42352 
42287 
42274 
42233 
42193 
42198 
42219 
42247 
42305 
42372 
42441 
42481 
42525 
42597 
42677 
42762 
42762 
42843 
42970 
43018 
43194 
43380 
43521 
43621 
43723 
43875 
44085 
44297 
44478 
44691 
44888 
45038 
45135 
45279 
45375 
45489 
45672 
45798 
45922 
46029 
46089 
46115 
46197 
46343 
46515 
46626 
46729 
46843 
46926 
46985 
47086 
47190 
47200 
47240 
47305 
47327 
47354 
47412 
47480 
47576 
47677 
47787 
47896 
47989 
48047 
48102 
48184 
48250 
48321 
48370 
48457 
48630 
48763 
48814 
48906 
48992 
49037 
49145 
49314 
49421 
49487 
49564 
49685 
49840 
49970 
50049 
50139 
50215 
50344 
50511 
50652 
50785 
50873 
50953 
51119 
51255 
51339 
51399 
51443 
51478 
51510 
51597 
51679 
51758 
51866 
51954 
52023 
52079 
52185 
52271 
52314 
52303 
52317 
52382 
52453 
52471 
52495 
52560 
52611 
52673 
52712 
52760 
52797 
52826 
52886 
52929 
52926 
52913 
52883 
52914 
52938 
52965 
53025 
53005 
52994 
52988 
52982 
53007 
52987 
52930 
52882 
52858 
52837 
52791 
52772 
52735 
52737 
52741 
52751 
52759 
52782 
52765 
52739 
52754 
52680 
52620 
52641 
52641 
52673 
52698 
52659 
52606 
52547 
52591 
52620 
52588 
52520 
52468 
52421 
52372 
52334 
52314 
52290 
52270 
52225 
52224 
52225 
52245 
52229 
52193 
52183 
52190 
52157 
52103 
52015 
51932 
51891 
51848 
51822 
51754 
51693 
51708 
51706 
51686 
51686 
51667 
51616 
51562 
51515 
51448 
51422 
51392 
51345 
51352 
51316 
51243 
51196 
51182 
51192 
51096 
50933 
50699 
50449 
50178 
49929 
49623 
49288 
48878 
48457 
48043 
47636 
47274 
46911 
46552 
46122 
45698 
45272 
44826 
44443 
44074 
43713 
43375 
43067 
42746 
42399 
42141 
41986 
41829 
41633 
41485 
41354 
41238 
41198 
41175 
41133 
41143 
41096 
41023 
41068 
41164 
41249 
41272 
41326 
41415 
41503 
41633 
41786 
41901 
41974 
42072 
42178 
42329 
42513 
42631 
42716 
42881 
43091 
43292 
43443 
43583 
43718 
43899 
44137 
44349 
44549 
44724 
44895 
45122 
45290 
45378 
45450 
45526 
45639 
45756 
45880 
46010 
46097 
46179 
46316 
46401 
46484 
46599 
46670 
46790 
46894 
46973 
47114 
47179 
47240 
47327 
47421 
47436 
47504 
47637 
47688 
47746 
47898 
48010 
48114 
48222 
48239 
48308 
48422 
48560 
48702 
48813 
48910 
48972 
49035 
49165 
49328 
49488 
49627 
49776 
49911 
50021 
50106 
50174 
50235 
50330 
50411 
50531 
50654 
50756 
50767 
50834 
50995 
51152 
51302 
51415 
51521 
51609 
51639 
51673 
51736 
51807 
51912 
51964 
51973 
52039 
52081 
52146 
52206 
52223 
52255 
52299 
52406 
52495 
52568 
52593 
52594 
52599 
52595 
52647 
52603 
52600 
52613 
52567 
52571 
52647 
52630 
52635 
52648 
52662 
52669 
52657 
52631 
52589 
52556 
52567 
52607 
52624 
52579 
52547 
52574 
52584 
52597 
52595 
52579 
52519 
52484 
52502 
52522 
52514 
52471 
52406 
52338 
52315 
52352 
52349 
52364 
52356 
52320 
52285 
52234 
52199 
52173 
52200 
52200 
52199 
52154 
52104 
52096 
52065 
52047 
52014 
51967 
51921 
51942 
51947 
51898 
51816 
51797 
51747 
51723 
51687 
51673 
51662 
51649 
51604 
51535 
51487 
51468 
51488 
51515 
51455 
51378 
51340 
51316 
51268 
51219 
51188 
51217 
51184 
51115 
51154 
51152 
51141 
51107 
51054 
51003 
50979 
50894 
50799 
50741 
50719 
50657 
50489 
50323 
50122 
49900 
49630 
49289 
48958 
48628 
48297 
47971 
47614 
47201 
46768 
46392 
45989 
45555 
45190 
44850 
44429 
44014 
43664 
43368 
43072 
42745 
42510 
42337 
42133 
41957 
41836 
41670 
41561 
41488 
41450 
41430 
41371 
41292 
41278 
41297 
41352 
41385 
41464 
41524 
41549 
41624 
41728 
41865 
42011 
42113 
42193 
42352 
42476 
42538 
42634 
42830 
43007 
43162 
43362 
43532 
43702 
43899 
44062 
44233 
44375 
44558 
44740 
44922 
45039 
45146 
45285 
45401 
45526 
45615 
45686 
45766 
45885 
46027 
46093 
46180 
46295 
46388 
46432 
46472 
46528 
46574 
46619 
46700 
46860 
47001 
46970 
46985 
47054 
47124 
47136 
47190 
47319 
47388 
47467 
47564 
47605 
47677 
47815 
47949 
48083 
48186 
48260 
48267 
48349 
48514 
48660 
48764 
48830 
48946 
49036 
49096 
49140 
49284 
49443 
49588 
49714 
49794 
49920 
50022 
50092 
50175 
50355 
50480 
50545 
50639 
50746 
50850 
50923 
50992 
51111 
51240 
51347 
51429 
51484 
51547 
51629 
51671 
51690 
51754 
51819 
51889 
51961 
52016 
52024 
52021 
52090 
52135 
52153 
52193 
52238 
52301 
52379 
52467 
52479 
52408 
52354 
52361 
52379 
52401 
52388 
52408 
52423 
52428 
52394 
52433 
52445 
52440 
52420 
52387 
52322 
52314 
52282 
52260 
52232 
52225 
52160 
52100 
52071 
52046 
51997 
52061 
52137 
52152 
52097 
52054 
52050 
52036 
52035 
52009 
51942 
51938 
51988 
51978 
51951 
51909 
51847 
51799 
51745 
51746 
51815 
51859 
51830 
51827 
51799 
51751 
51688 
51654 
51637 
51685 
51714 
51716 
51690 
51632 
51617 
51571 
51551 
51579 
51579 
51533 
51456 
51402 
51415 
51410 
51347 
51315 
51284 
51244 
51238 
51209 
51168 
51151 
51128 
51115 
51097 
51060 
50990 
50961 
50919 
50915 
50861 
50784 
50682 
50462 
50234 
50012 
49713 
49409 
49082 
48755 
48426 
48079 
47659 
47222 
46814 
46394 
45993 
45573 
45111 
44648 
44242 
43933 
43594 
43268 
42975 
42613 
42283 
42014 
41802 
41583 
41364 
41232 
41097 
40969 
40893 
40821 
40793 
40774 
40780 
40742 
40741 
40790 
40853 
40923 
40997 
41053 
41072 
41127 
41196 
41282 
41369 
41526 
41695 
41834 
42022 
42202 
42401 
42565 
42722 
42849 
42937 
43097 
43344 
43577 
43786 
43947 
44078 
44304 
44433 
44541 
44621 
44760 
44906 
45084 
45212 
45355 
45482 
45583 
45717 
45876 
45985 
46071 
46190 
46304 
46432 
46490 
46541 
46612 
46691 
46818 
46940 
47032 
47035 
47102 
47213 
47280 
47345 
47412 
47483 
47567 
47702 
47825 
47935 
48083 
48223 
48295 
48320 
48353 
48478 
48603 
48769 
48911 
49000 
49176 
49341 
49441 
49497 
49552 
49686 
49805 
49870 
49965 
50076 
50224 
50434 
50571 
50659 
50784 
50891 
51007 
51107 
51178 
51261 
51375 
51475 
51536 
51576 
51635 
51733 
51837 
51881 
51907 
51922 
51969 
52059 
52129 
52197 
52262 
52267 
52250 
52286 
52338 
52348 
52375 
52392 
52429 
52484 
52546 
52598 
52600 
52607 
52632 
52651 
52615 
52614 
52649 
52650 
52594 
52583 
52630 
52675 
52678 
52656 
52672 
52701 
52698 
52708 
52685 
52678 
52661 
52630 
52599 
52575 
52555 
52535 
52506 
52485 
52432 
52431 
52471 
52444 
52432 
52455 
52464 
52424 
52417 
52388 
52334 
52292 
52248 
52156 
52128 
52077 
52019 
52021 
51974 
51948 
51933 
51945 
51938 
51916 
51899 
51949 
51953 
51902 
51917 
51933 
51911 
51853 
51807 
51775 
51724 
51658 
51638 
51658 
51575 
51515 
51475 
51444 
51429 
51458 
51458 
51456 
51401 
51395 
51402 
51441 
51397 
51335 
51262 
51244 
51231 
51215 
51217 
51189 
51161 
51129 
51092 
51061 
51049 
50983 
50864 
50756 
50586 
50462 
50312 
50043 
49757 
49494 
49188 
48834 
48441 
48064 
47691 
47271 
46833 
46456 
46039 
45691 
45389 
44993 
44582 
44208 
43853 
43498 
43188 
42866 
42559 
42300 
42049 
41818 
41683 
41559 
41441 
41315 
41182 
41096 
41013 
40949 
40968 
41045 
41052 
41099 
41206 
41258 
41264 
41305 
41404 
41445 
41531 
41623 
41770 
41924 
42042 
42215 
42385 
42446 
42541 
42672 
42861 
43066 
43222 
43337 
43501 
43737 
43932 
44138 
44274 
44388 
44546 
44696 
44808 
44961 
45099 
45198 
45342 
45457 
45537 
45658 
45753 
45840 
45943 
46062 
46155 
46200 
46283 
46376 
46483 
46496 
46531 
46589 
46669 
46781 
46858 
46893 
46950 
47010 
47080 
47164 
47210 
47236 
47326 
47414 
47499 
47599 
47704 
47791 
47896 
47953 
48002 
48109 
48287 
48408 
48504 
48637 
48712 
48814 
48939 
49030 
49135 
49283 
49378 
49438 
49518 
49619 
49749 
49824 
49895 
50030 
50143 
50221 
50325 
50424 
50555 
50641 
50720 
50765 
50821 
50899 
51023 
51112 
51148 
51212 
51243 
51280 
51336 
51450 
51546 
51610 
51640 
51675 
51679 
51735 
51827 
51862 
51863 
51842 
51872 
51913 
51907 
51921 
51955 
51987 
52048 
52071 
52061 
52044 
52063 
52104 
52136 
52092 
52030 
52030 
52067 
52090 
52081 
52018 
51986 
52003 
51988 
51968 
51987 
51987 
51965 
51938 
52013 
52030 
51946 
51878 
51842 
51836 
51817 
51789 
51802 
51875 
51838 
51787 
51760 
51722 
51684 
51635 
51595 
51615 
51581 
51543 
51551 
51544 
51525 
51525 
51495 
51510 
51483 
51449 
51439 
51441 
51372 
51327 
51333 
51334 
51309 
51308 
51307 
51372 
51389 
51351 
51282 
51210 
51216 
51246 
51252 
51266 
51250 
51222 
51167 
51199 
51187 
51125 
51090 
51036 
51075 
51124 
51132 
51066 
50941 
50819 
50696 
50523 
50275 
50035 
49720 
49382 
49035 
48662 
48286 
47857 
47414 
47063 
46717 
46335 
45896 
45469 
45077 
44718 
44374 
44080 
43798 
43435 
43135 
42912 
42669 
42455 
42234 
42031 
41876 
41765 
41702 
41618 
41560 
41574 
41564 
41562 
41566 
41563 
41636 
41732 
41747 
41823 
41918 
41994 
42100 
42238 
42371 
42503 
42605 
42741 
42873 
43012 
43122 
43211 
43360 
43541 
43771 
43913 
44059 
44199 
44357 
44546 
44771 
44941 
45080 
45228 
45437 
45582 
45731 
45866 
45968 
46079 
46217 
46335 
46434 
46487 
46513 
46569 
46646 
46714 
46772 
46838 
46868 
46889 
46975 
47105 
47174 
47211 
47232 
47277 
47320 
47351 
47417 
47485 
47540 
47620 
47660 
47673 
47732 
47848 
47950 
48031 
48075 
48164 
48266 
48366 
48434 
48482 
48543 
48698 
48836 
48938 
49044 
49161 
49259 
49345 
49417 
49469 
49556 
49692 
49797 
49870 
49934 
50005 
50114 
50239 
50331 
50448 
50538 
50594 
50649 
50754 
50847 
50902 
50919 
50981 
51071 
51146 
51234 
51319 
51414 
51445 
51488 
51544 
51571 
51592 
51641 
51693 
51774 
51832 
51822 
51865 
51912 
51936 
52000 
52070 
52132 
52157 
52140 
52107 
52104 
52072 
52088 
52077 
52098 
52122 
52171 
52160 
52151 
52172 
52178 
52133 
52077 
52042 
52038 
52053 
52055 
52057 
52048 
52028 
52061 
52025 
52006 
52029 
52008 
52018 
52021 
51982 
51911 
51825 
51779 
51729 
51741 
51746 
51712 
51717 
51711 
51635 
51595 
51626 
51599 
51554 
51525 
51459 
51451 
51440 
51403 
51366 
51336 
51296 
51215 
51152 
51129 
51148 
51125 
51135 
51137 
51133 
51144 
51130 
51126 
51090 
51037 
51022 
51043 
51025 
50964 
50880 
50811 
50752 
50749 
50766 
50772 
50745 
50679 
50684 
50684 
50613 
50516 
50471 
50418 
50411 
50348 
50156 
49890 
49620 
49357 
49028 
48620 
48249 
47915 
47540 
47123 
46725 
46338 
45975 
45562 
45089 
44656 
44309 
43908 
43490 
43143 
42814 
42493 
42223 
41972 
41696 
41425 
41208 
41068 
40944 
40862 
40824 
40762 
40688 
40638 
40650 
40659 
40641 
40645 
40689 
40767 
40858 
40913 
41038 
41117 
41185 
41285 
41405 
41480 
41544 
41686 
41861 
42056 
42224 
42416 
42599 
42735 
42873 
43069 
43233 
43376 
43550 
43711 
43886 
44035 
44159 
44254 
44410 
44556 
44642 
44817 
45007 
45141 
45239 
45344 
45465 
45545 
45606 
45691 
45801 
45861 
45932 
46030 
46115 
46263 
46365 
46455 
46508 
46529 
46607 
46712 
46851 
46918 
46935 
46916 
46942 
47079 
47250 
47293 
47297 
47363 
47455 
47531 
47651 
47743 
47810 
47890 
47934 
48013 
48193 
48337 
48489 
48650 
48743 
48830 
48924 
49014 
49093 
49193 
49285 
49376 
49444 
49529 
49656 
49750 
49872 
50035 
50144 
50278 
50390 
50500 
50594 
50685 
50722 
50748 
50774 
50858 
50902 
50975 
51079 
51153 
51273 
51377 
51429 
51474 
51584 
51647 
51654 
51656 
51710 
51742 
51767 
51812 
51831 
51923 
51992 
52015 
52038 
52106 
52201 
52216 
52221 
52230 
52207 
52195 
52229 
52320 
52372 
52390 
52404 
52447 
52510 
52543 
52613 
52603 
52559 
52501 
52482 
52486 
52504 
52561 
52576 
52572 
52595 
52612 
52659 
52665 
52575 
52528 
52535 
52556 
52601 
52636 
52605 
52536 
52481 
52474 
52482 
52414 
52411 
52404 
52381 
52360 
52341 
52308 
52251 
52215 
52202 
52173 
52142 
52087 
52067 
52077 
52014 
51984 
52009 
52000 
51975 
51929 
51902 
51914 
51862 
51808 
51748 
51777 
51753 
51685 
51658 
51641 
51606 
51606 
51570 
51506 
51506 
51496 
51463 
51472 
51408 
51308 
51224 
51087 
50938 
50773 
50479 
50178 
49930 
49710 
49398 
49023 
48589 
48145 
47724 
47276 
46849 
46467 
46035 
45569 
45185 
44804 
44422 
44141 
43854 
43562 
43253 
42945 
42715 
42509 
42332 
42169 
42017 
41889 
41738 
41603 
41566 
41547 
41548 
41553 
41619 
41653 
41704 
41704 
41755 
41822 
41924 
42075 
42222 
42355 
42435 
42486 
42628 
42791 
42931 
43077 
43245 
43373 
43513 
43701 
43886 
43996 
44165 
44330 
44468 
44645 
44820 
44959 
45140 
45365 
45474 
45534 
45608 
45697 
45773 
45880 
46022 
46125 
46175 
46216 
46291 
46394 
46439 
46523 
46617 
46644 
46686 
46693 
46672 
46682 
46702 
46766 
46842 
46902 
46950 
47037 
47078 
47124 
47178 
47282 
47352 
47414 
47464 
47516 
47537 
47575 
47711 
47786 
47830 
47958 
48105 
48246 
48377 
48476 
48560 
48693 
48805 
48881 
49015 
49149 
49172 
49207 
49282 
49379 
49453 
49509 
49642 
49747 
49867 
50040 
50151 
50249 
50316 
50422 
50512 
50608 
50679 
50737 
50812 
50888 
50970 
51103 
51190 
51230 
51276 
51341 
51429 
51511 
51573 
51563 
51564 
51594 
51583 
51543 
51521 
51619 
51686 
51756 
51789 
51768 
51735 
51732 
51756 
51791 
51839 
51855 
51848 
51832 
51844 
51852 
51854 
51841 
51833 
51821 
51851 
51881 
51881 
51912 
51894 
51806 
51774 
51753 
51753 
51780 
51774 
51770 
51774 
51772 
51691 
51672 
51689 
51719 
51743 
51707 
51685 
51701 
51670 
51658 
51608 
51559 
51582 
51586 
51613 
51591 
51587 
51569 
51523 
51525 
51520 
51529 
51511 
51514 
51521 
51487 
51449 
51443 
51422 
51382 
51372 
51393 
51415 
51424 
51435 
51395 
51364 
51364 
51363 
51357 
51350 
51316 
51253 
51193 
51163 
51101 
51002 
50882 
50635 
50338 
50035 
49728 
49366 
48980 
48594 
48193 
47775 
47332 
46894 
46467 
46040 
45603 
45142 
44739 
44408 
44073 
43694 
43325 
43013 
42717 
42441 
42210 
41993 
41805 
41655 
41465 
41324 
41230 
41195 
41222 
41201 
41182 
41195 
41262 
41304 
41347 
41392 
41461 
41544 
41571 
41626 
41736 
41846 
41969 
42104 
42200 
42286 
42420 
42532 
42650 
42819 
43023 
43250 
43455 
43593 
43754 
43987 
44186 
44323 
44485 
44604 
44772 
44927 
45083 
45212 
45381 
45525 
45677 
45837 
45952 
46070 
46183 
46330 
46435 
46457 
46455 
46521 
46595 
46668 
46758 
46799 
46822 
46895 
46939 
46928 
46974 
47111 
47202 
47252 
47327 
47455 
47571 
47667 
47765 
47835 
47930 
48033 
48089 
48189 
48274 
48349 
48515 
48682 
48784 
48848 
49003 
49194 
49333 
49446 
49624 
49773 
49888 
49987 
50115 
50259 
50379 
50455 
50496 
50570 
50693 
50858 
51019 
51125 
51222 
51313 
51375 
51420 
51510 
51601 
51708 
51800 
51862 
51924 
52027 
52104 
52175 
52252 
52371 
52488 
52553 
52551 
52541 
52580 
52636 
52663 
52705 
52778 
52840 
52903 
52957 
52917 
52863 
52844 
52855 
52902 
52956 
52968 
52902 
52874 
52874 
52844 
52826 
52812 
52811 
52858 
52917 
52932 
52938 
52904 
52874 
52857 
52877 
52835 
52843 
52891 
52861 
52777 
52727 
52675 
52636 
52593 
52544 
52492 
52515 
52575 
52538 
52519 
52485 
52457 
52421 
52372 
52287 
52201 
52217 
52263 
52265 
52237 
52181 
52156 
52181 
52133 
52093 
52106 
52115 
52091 
52046 
51973 
51930 
51859 
51788 
51788 
51868 
51857 
51824 
51753 
51717 
51735 
51720 
51705 
51680 
51622 
51588 
51560 
51458 
51402 
51397 
51407 
51404 
51393 
51344 
51282 
51232 
51197 
51145 
51085 
51058 
50976 
50874 
50783 
50595 
50361 
50119 
49840 
49502 
49181 
48875 
48492 
48013 
47508 
47062 
46609 
46177 
45667 
45203 
44761 
44323 
43946 
43531 
43088 
42690 
42375 
42111 
41837 
41509 
41170 
40976 
40834 
40657 
40503 
40362 
40233 
40170 
40162 
40146 
40089 
40107 
40140 
40179 
40275 
40359 
40416 
40483 
40607 
40693 
40774 
40925 
41102 
41217 
41302 
41434 
41536 
41660 
41804 
41971 
42225 
42453 
42638 
42829 
43058 
43313 
43518 
43649 
43829 
44061 
44247 
44430 
44610 
44799 
44981 
45165 
45290 
45389 
45558 
45679 
45806 
45851 
45935 
46077 
46217 
46390 
46496 
46553 
46597 
46683 
46750 
46782 
46844 
46903 
46996 
47081 
47171 
47206 
47241 
47289 
47423 
47503 
47594 
47719 
47811 
47921 
48061 
48150 
48206 
48288 
48442 
48582 
48736 
48815 
48903 
48969 
49104 
49296 
49459 
49560 
49687 
49839 
49935 
50080 
50220 
50397 
50592 
50688 
50793 
50895 
50989 
51071 
51159 
51284 
51417 
51503 
51620 
51791 
51886 
51914 
52007 
52167 
52256 
52322 
52430 
52517 
52557 
52626 
52685 
52776 
52891 
52934 
52944 
52987 
53055 
53127 
53197 
53297 
53322 
53339 
53380 
53456 
53483 
53439 
53466 
53531 
53469 
53451 
53496 
53516 
53455 
53429 
53451 
53456 
53421 
53395 
53390 
53409 
53455 
53413 
53394 
53367 
53324 
53313 
53301 
53342 
53419 
53394 
53312 
53247 
53242 
53248 
53288 
53306 
53263 
53176 
53090 
52979 
52951 
52928 
52858 
52806 
52758 
52717 
52699 
52699 
52741 
52721 
52641 
52561 
52528 
52519 
52507 
52485 
52487 
52503 
52471 
52421 
52354 
52282 
52243 
52206 
52175 
52110 
52066 
51996 
51963 
51982 
51987 
51953 
51934 
51939 
51904 
51877 
51862 
51855 
51863 
51862 
51856 
51820 
51791 
51694 
51615 
51482 
51349 
51208 
50986 
50682 
50330 
49998 
49695 
49394 
49011 
48590 
48154 
47699 
47262 
46833 
46410 
45998 
45564 
45124 
44658 
44225 
43856 
43524 
43219 
42926 
42655 
42392 
42166 
41971 
41762 
41561 
41432 
41335 
41236 
41180 
41155 
41185 
41238 
41272 
41295 
41312 
41335 
41306 
41337 
41455 
41571 
41701 
41837 
41945 
42005 
42088 
42217 
42325 
42438 
42579 
42766 
42901 
43078 
43246 
43475 
43758 
43965 
44171 
44323 
44419 
44587 
44837 
44994 
45121 
45204 
45235 
45327 
45444 
45555 
45656 
45806 
45888 
45925 
45959 
46001 
46063 
46115 
46131 
46182 
46208 
46281 
46307 
46349 
46450 
46491 
46570 
46673 
46726 
46757 
46807 
46844 
46903 
47001 
47138 
47272 
47379 
47458 
47544 
47702 
47841 
47958 
48119 
48233 
48339 
48470 
48620 
48721 
48882 
49027 
49182 
49356 
49534 
49646 
49779 
49966 
50149 
50300 
50426 
50557 
50665 
50758 
50860 
50912 
50965 
51057 
51203 
51327 
51438 
51481 
51483 
51562 
51697 
51816 
51929 
52029 
52061 
52074 
52097 
52100 
52154 
52210 
52210 
52239 
52259 
52252 
52261 
52352 
52431 
52484 
52541 
52563 
52640 
52733 
52732 
52713 
52673 
52702 
52736 
52771 
52772 
52813 
52821 
52830 
52899 
52906 
52825 
52835 
52860 
52837 
52787 
52704 
52697 
52668 
52653 
52634 
52577 
52578 
52652 
52638 
52574 
52570 
52555 
52513 
52451 
52424 
52450 
52445 
52446 
52477 
52481 
52460 
52434 
52389 
52398 
52511 
52505 
52434 
52357 
52297 
52264 
52261 
52248 
52308 
52373 
52355 
52306 
52254 
52208 
52202 
52215 
52165 
52154 
52181 
52240 
52228 
52224 
52221 
52226 
52169 
52037 
51959 
51928 
51802 
51536 
51251 
50940 
50558 
50165 
49827 
49453 
48995 
48557 
48161 
47759 
47311 
46852 
46412 
45986 
45541 
45152 
44783 
44403 
44039 
43693 
43335 
43064 
42800 
42572 
42359 
42195 
42015 
41900 
41862 
41822 
41712 
41610 
41579 
41577 
41530 
41549 
41586 
41643 
41722 
41834 
41938 
42066 
42161 
42265 
42377 
42458 
42638 
42794 
42970 
43142 
43347 
43532 
43668 
43843 
44022 
44211 
44387 
44550 
44709 
44910 
45159 
45371 
45555 
45742 
45879 
45991 
46091 
46253 
46400 
46498 
46623 
46719 
46851 
47002 
47092 
47148 
47229 
47325 
47376 
47371 
47380 
47400 
47469 
47569 
47605 
47688 
47820 
47930 
48072 
48167 
48170 
48194 
48283 
48430 
48588 
48740 
48870 
48952 
49031 
49118 
49225 
49390 
49556 
49711 
49865 
50008 
50132 
50273 
50413 
50545 
50650 
50751 
50936 
51108 
51232 
51399 
51560 
51650 
51738 
51852 
51950 
52017 
52145 
52251 
52397 
52553 
52686 
52729 
52774 
52844 
52966 
53036 
53115 
53230 
53255 
53282 
53351 
53391 
53457 
53556 
53586 
53610 
53590 
53659 
53708 
53668 
53707 
53761 
53782 
53786 
53784 
53827 
53806 
53734 
53714 
53734 
53775 
53843 
53839 
53825 
53840 
53871 
53887 
53834 
53829 
53819 
53815 
53841 
53838 
53807 
53796 
53764 
53735 
53680 
53624 
53556 
53487 
53451 
53457 
53450 
53380 
53283 
53223 
53212 
53242 
53193 
53126 
53088 
53074 
53110 
53111 
53080 
53067 
52995 
52898 
52865 
52810 
52765 
52783 
52787 
52741 
52711 
52681 
52639 
52580 
52528 
52490 
52510 
52512 
52525 
52539 
52474 
52469 
52446 
52418 
52463 
52450 
52397 
52336 
52354 
52383 
52392 
52408 
52382 
52363 
52383 
52408 
52435 
52436 
52498 
52511 
52499 
52466 
52399 
52340 
52235 
52065 
51869 
51558 
51230 
50912 
50551 
50159 
49717 
49230 
48771 
48240 
47672 
47171 
46717 
46228 
45742 
45268 
44804 
44322 
43853 
43437 
43118 
42798 
42506 
42213 
41924 
41632 
41346 
41153 
40976 
40808 
40696 
40593 
40509 
40485 
40476 
40516 
40600 
40658 
40729 
40821 
40944 
41045 
41113 
41210 
41328 
41450 
41569 
41726 
41938 
42125 
42312 
42510 
42726 
42954 
43208 
43420 
43600 
43815 
44067 
44297 
44503 
44730 
45030 
45303 
45522 
45710 
45908 
46132 
46378 
46611 
46783 
46915 
47095 
47278 
47357 
47441 
47488 
47567 
47708 
47826 
47865 
47899 
47994 
48089 
48180 
48290 
48391 
48467 
48546 
48641 
48705 
48719 
48813 
48895 
48992 
49105 
49215 
49331 
49448 
49525 
49660 
49754 
49837 
49951 
50145 
50224 
50319 
50429 
50551 
50691 
50801 
50925 
51065 
51208 
51348 
51461 
51546 
51618 
51688 
51782 
51936 
52069 
52198 
52324 
52469 
52644 
52800 
52898 
52920 
53014 
53180 
53340 
53479 
53566 
53609 
53692 
53741 
53831 
53874 
53957 
54003 
54090 
54163 
54235 
54276 
54344 
54409 
54461 
54532 
54624 
54704 
54733 
54737 
54711 
54706 
54744 
54783 
54838 
54911 
54950 
54989 
55018 
55019 
55074 
55142 
55143 
55099 
55062 
55071 
55028 
54994 
54984 
55007 
54998 
55052 
55069 
54982 
54935 
54941 
54971 
54962 
54942 
54944 
54959 
54903 
54876 
54848 
54759 
54699 
54684 
54655 
54584 
54541 
54551 
54521 
54485 
54429 
54410 
54409 
54441 
54431 
54387 
54350 
54276 
54253 
54193 
54155 
54113 
54021 
53941 
53895 
53861 
53837 
53781 
53728 
53594 
53462 
53388 
53343 
53254 
53120 
52994 
52886 
52809 
52759 
52667 
52557 
52457 
52309 
52150 
52028 
51954 
51875 
51759 
51684 
51584 
51455 
51369 
51295 
51202 
51122 
51044 
50983 
50936 
50845 
50766 
50683 
50626 
50469 
50255 
50056 
49822 
49575 
49312 
49020 
48747 
48453 
48089 
47744 
47379 
47004 
46635 
46322 
45983 
45695 
45373 
45077 
44779 
44536 
44291 
44040 
43833 
43693 
43535 
43406 
43259 
43116 
43019 
42924 
42816 
42760 
42717 
42622 
42563 
42575 
42546 
42515 
42534 
42501 
42560 
42684 
42731 
42818 
42944 
43049 
43192 
43354 
43459 
43558 
43695 
43825 
43977 
44156 
44335 
44496 
44689 
44870 
45045 
45216 
45376 
45570 
45801 
45987 
46113 
46262 
46430 
46608 
46803 
46957 
47111 
47276 
47447 
47606 
47715 
47809 
47852 
47922 
47980 
48070 
48127 
48187 
48241 
48268 
48344 
48417 
48468 
48519 
48576 
48628 
48666 
48681 
48725 
48828 
48872 
48872 
48911 
48918 
48913 
48971 
49053 
49116 
49165 
49191 
49225 
49256 
49328 
49342 
49321 
49327 
49384 
49450 
49550 
49650 
49727 
49728 
49725 
49770 
49787 
49797 
49837 
49934 
50089 
50144 
50161 
50214 
50332 
50419 
50444 
50497 
50597 
50686 
50764 
50823 
50859 
50946 
51040 
51123 
51227 
51284 
51301 
51347 
51439 
51501 
51592 
51675 
51746 
51831 
51949 
51972 
51988 
52040 
52109 
52175 
52236 
52379 
52458 
52543 
52617 
52663 
52718 
52799 
52884 
52955 
53005 
53048 
53138 
53197 
53223 
53257 
53294 
53332 
53359 
53391 
53394 
53445 
53516 
53577 
53661 
53731 
53768 
53838 
53873 
53880 
53923 
53913 
53902 
53915 
53898 
54012 
54121 
54140 
54133 
54141 
54202 
54206 
54159 
54137 
54120 
54040 
53989 
53996 
53953 
53888 
53858 
53833 
53759 
53720 
53736 
53694 
53599 
53494 
53468 
53486 
53438 
53346 
53222 
53141 
53095 
53046 
53038 
53025 
52947 
52852 
52731 
52636 
52529 
52485 
52438 
52389 
52353 
52333 
52272 
52256 
52265 
52151 
52112 
52123 
52112 
52108 
52087 
52076 
52053 
52054 
52089 
52067 
52013 
52002 
52011 
51985 
51962 
51974 
52043 
52047 
52044 
52046 
51996 
51953 
51887 
51846 
51840 
51811 
51789 
51789 
51752 
51743 
51791 
51739 
51688 
51708 
51645 
51596 
51592 
51549 
51517 
51518 
51537 
51563 
51585 
51555 
51546 
51602 
51628 
51587 
51538 
51495 
51553 
51569 
51585 
51603 
51681 
51703 
51639 
51622 
51647 
51654 
51671 
51676 
51625 
51606 
51578 
51583 
51607 
51606 
51615 
51703 
51805 
51825 
51849 
51864 
51860 
51836 
51838 
51811 
51835 
51901 
51900 
51888 
51887 
51866 
51856 
51890 
51911 
51894 
51916 
51893 
51812 
51766 
51727 
51713 
51731 
51661 
51586 
51563 
51578 
51587 
51580 
51575 
51605 
51642 
51641 
51608 
51523 
51449 
51429 
51455 
51444 
51460 
51464 
51448 
51461 
51497 
51514 
51451 
51431 
51465 
51515 
51482 
51504 
51583 
51568 
51523 
51535 
51557 
51546 
51549 
51550 
51547 
51529 
51540 
51570 
51574 
51569 
51527 
51531 
51571 
51615 
51580 
51563 
51590 
51614 
51635 
51600 
51565 
51609 
51613 
51557 
51566 
51585 
51571 
51576 
51551 
51516 
51521 
51554 
51569 
51559 
51541 
51526 
51528 
51533 
51530 
51579 
51534 
51504 
51469 
51405 
51400 
51419 
51456 
51485 
51523 
51523 
51509 
51518 
51555 
51579 
51588 
51527 
51525 
51503 
51488 
51501 
51559 
51567 
51556 
51550 
51533 
51543 
51553 
51584 
51539 
51502 
51481 
51498 
51460 
51452 
51447 
51454 
51418 
51382 
51378 
51394 
51387 
51330 
51316 
51325 
51304 
51316 
51347 
51266 
51203 
51193 
51250 
51301 
51253 
51232 
51200 
51194 
51206 
51196 
51211 
51172 
51117 
51130 
51114 
51078 
51020 
51016 
51051 
51048 
51057 
51082 
51089 
51025 
50931 
50897 
50890 
50853 
50823 
50797 
50818 
50807 
50780 
50708 
50706 
50743 
50802 
50823 
50771 
50712 
50692 
50671 
50668 
50675 
50664 
50619 
50605 
50654 
50653 
50658 
50623 
50589 
50563 
50499 
50454 
50420 
50437 
50491 
50536 
50544 
50564 
50545 
50505 
50479 
50481 
50541 
50560 
50549 
50563 
50559 
50551 
50536 
50509 
50478 
50405 
50391 
50350 
50311 
50284 
50332 
50386 
50373 
50367 
50342 
50309 
50244 
50252 
50244 
50278 
50308 
50298 
50261 
50215 
50191 
50187 
50175 
50129 
50072 
50050 
50079 
50052 
50048 
50078 
50030 
50001 
50017 
50041 
50028 
50030 
49981 
49923 
49905 
49861 
49873 
49882 
49834 
49851 
49865 
49855 
49886 
49832 
49811 
49762 
49653 
49587 
49574 
49609 
49650 
49674 
49610 
49524 
49473 
49482 
49477 
49534 
49556 
49573 
49584 
49521 
49454 
49448 
49422 
49406 
49409 
49438 
49430 
49437 
49430 
49374 
49388 
49368 
49325 
49271 
49289 
49304 
49299 
49286 
49276 
49289 
49281 
49229 
49201 
49176 
49127 
49167 
49233 
49195 
49170 
49141 
49104 
49076 
49104 
49108 
49079 
49099 
49145 
49149 
49075 
48979 
48970 
49006 
49119 
49193 
49172 
49180 
49163 
49111 
49096 
49100 
49081 
49061 
49091 
49101 
49057 
48977 
48928 
48890 
48918 
48939 
48908 
48979 
49023 
49030 
49049 
49050 
49022 
49011 
48975 
48992 
48955 
48917 
48944 
48958 
48868 
48907 
48950 
48951 
48952 
48981 
48965 
48916 
48869 
48852 
48809 
48769 
48775 
48783 
48828 
48833 
48814 
48822 
48813 
48732 
48672 
48742 
48813 
48781 
48787 
48822 
48832 
48793 
48746 
48735 
48735 
48749 
48745 
48713 
48654 
48645 
48654 
48683 
48678 
48662 
48638 
48634 
48615 
48607 
48625 
48647 
48662 
48664 
48632 
48569 
48589 
48648 
48629 
48614 
48589 
48596 
48589 
48587 
48615 
48633 
48645 
48626 
48622 
48599 
48604 
48609 
48635 
48611 
48648 
48626 
48603 
48609 
48616 
48610 
48536 
48496 
48529 
48554 
48543 
48502 
48483 
48458 
48475 
48586 
48624 
48611 
48599 
48569 
48515 
48505 
48524 
48565 
48650 
48632 
48581 
48490 
48502 
48535 
48528 
48529 
48513 
48539 
48543 
48572 
48599 
48589 
48553 
48532 
48592 
48577 
48553 
48539 
48491 
48440 
48390 
48376 
48395 
48436 
48458 
48439 
48422 
48397 
48391 
48413 
48369 
48344 
48392 
48438 
48445 
48404 
48332 
48324 
48311 
48319 
48325 
48342 
48379 
48400 
48409 
48414 
48411 
48393 
48357 
48324 
48275 
48286 
48294 
48291 
48284 
48227 
48199 
48153 
48121 
48128 
48126 
48124 
48090 
48085 
48117 
48141 
48153 
48158 
48165 
48189 
48203 
48192 
48179 
48165 
48123 
48027 
48000 
47975 
47959 
48030 
48075 
48089 
48059 
48019 
48029 
47999 
47965 
47943 
47933 
47946 
47960 
47949 
47940 
47897 
47894 
47894 
47880 
47884 
47863 
47869 
47910 
47907 
47925 
47889 
47873 
47930 
47905 
47839 
47819 
47857 
47857 
47836 
47850 
47866 
47846 
47876 
47886 
47941 
47960 
47900 
47875 
47935 
47979 
47928 
47897 
47856 
47875 
47898 
47884 
47879 
47832 
47788 
47819 
47809 
47794 
47816 
47857 
47862 
47858 
47871 
47867 
47878 
47858 
47836 
47863 
47865 
47818 
47784 
47838 
47876 
47899 
47858 
47824 
47848 
47829 
47782 
47789 
47811 
47762 
47719 
47696 
47694 
47722 
47719 
47723 
47806 
47807 
47768 
47761 
47745 
47712 
47675 
47727 
47818 
47817 
47764 
47752 
47711 
47665 
47670 
47689 
47716 
47712 
47727 
47781 
47802 
47788 
47799 
47825 
47807 
47815 
47827 
47836 
47897 
47944 
47912 
47905 
47868 
47893 
47948 
47959 
47924 
47922 
47910 
47957 
47959 
47886 
47890 
47876 
47856 
47878 
47890 
47886 
47881 
47886 
47833 
47785 
47763 
47797 
47825 
47817 
47831 
47835 
47856 
47841 
47810 
47768 
47723 
47701 
47710 
47735 
47816 
47860 
47828 
47779 
47751 
47724 
47742 
47763 
47754 
47768 
47823 
47822 
47795 
47772 
47806 
47842 
47820 
47857 
47898 
47871 
47844 
47856 
47842 
47761 
47761 
47761 
47751 
47785 
47847 
47855 
47806 
47770 
47765 
47770 
47791 
47781 
47761 
47754 
47729 
47684 
47719 
47740 
47701 
47726 
47763 
47784 
47798 
47792 
47809 
47791 
47797 
47756 
47673 
47646 
47647 
47635 
47656 
47683 
47720 
47788 
47868 
47837 
47776 
47757 
47750 
47761 
47748 
47750 
47748 
47740 
47721 
47708 
47709 
47701 
47706 
47723 
47759 
47723 
47699 
47712 
47745 
47749 
47732 
47696 
47633 
47612 
47649 
47689 
47719 
47727 
47732 
47737 
47764 
47758 
47723 
47717 
47701 
47679 
47681 
47729 
47763 
47719 
47708 
47698 
47678 
47654 
47625 
47600 
47569 
47553 
47584 
47648 
47663 
47689 
47722 
47708 
47658 
47656 
47628 
47591 
47608 
47596 
47559 
47574 
47580 
47555 
47571 
47604 
47619 
47634 
47620 
47553 
47531 
47512 
47528 
47496 
47496 
47557 
47625 
47627 
47630 
47646 
47636 
47620 
47572 
47560 
47532 
47530 
47510 
47515 
47473 
47494 
47559 
47598 
47584 
47560 
47546 
47525 
47575 
47536 
47512 
47513 
47549 
47578 
47569 
47586 
47573 
47539 
47562 
47635 
47672 
47658 
47611 
47547 
47514 
47526 
47524 
47541 
47505 
47534 
47576 
47585 
47636 
47584 
47580 
47597 
47606 
47644 
47640 
47633 
47619 
47634 
47646 
47673 
47686 
47647 
47596 
47520 
47487 
47534 
47524 
47517 
47534 
47581 
47641 
47603 
47577 
47560 
47506 
47475 
47451 
47471 
47472 
47487 
47492 
47532 
47530 
47533 
47577 
47574 
47571 
47586 
47560 
47538 
47538 
47510 
47524 
47544 
47515 
47504 
47535 
47568 
47567 
47538 
47491 
47453 
47492 
47504 
47500 
47582 
47623 
47606 
47631 
47619 
47630 
47612 
47582 
47594 
47690 
47681 
47677 
47659 
47644 
47656 
47620 
47614 
47608 
47596 
47602 
47632 
47626 
47605 
47623 
47665 
47658 
47655 
47636 
47652 
47672 
47682 
47642 
47658 
47679 
47683 
47692 
47745 
47763 
47766 
47711 
47746 
47737 
47701 
47662 
47656 
47671 
47643 
47612 
47597 
47620 
47632 
47635 
47657 
47636 
47664 
47720 
47794 
47772 
47730 
47659 
47640 
47605 
47634 
47635 
47628 
47653 
47676 
47679 
47675 
47652 
47605 
47603 
47633 
47678 
47700 
47682 
47647 
47627 
47643 
47680 
47690 
47655 
47643 
47652 
47565 
47543 
47557 
47528 
47491 
47523 
47540 
47483 
47472 
47501 
47472 
47458 
47446 
47410 
47384 
47394 
47447 
47468 
47476 
47462 
47452 
47442 
47456 
47495 
47497 
47583 
47645 
47607 
47546 
47534 
47536 
47517 
47470 
47444 
47406 
47366 
47376 
47386 
47390 
47440 
47438 
47480 
47560 
47528 
47484 
47470 
47457 
47445 
47451 
47432 
47392 
47399 
47443 
47507 
47543 
47527 
47509 
47492 
47490 
47505 
47459 
47427 
47414 
47432 
47434 
47451 
47488 
47489 
47437 
47463 
47502 
47491 
47407 
47341 
47356 
47370 
47387 
47423 
47399 
47379 
47406 
47413 
47386 
47354 
47391 
47416 
47401 
47396 
47412 
47424 
47425 
47410 
47398 
47431 
47489 
47488 
47512 
47546 
47568 
47535 
47487 
47457 
47430 
47429 
47431 
47469 
47514 
47502 
47442 
47401 
47383 
47368 
47408 
47374 
47374 
47409 
47387 
47399 
47406 
47392 
47417 
47404 
47358 
47363 
47326 
47320 
47343 
47321 
47276 
47237 
47259 
47296 
47316 
47214 
47164 
47155 
47152 
47174 
47247 
47302 
47316 
47322 
47345 
47330 
47356 
47342 
47309 
47320 
47332 
47373 
47378 
47343 
47308 
47302 
47276 
47239 
47173 
47178 
47258 
47304 
47348 
47368 
47367 
47352 
47328 
47324 
47315 
47354 
47347 
47365 
47405 
47355 
47308 
47311 
47268 
47285 
47256 
47165 
47162 
47175 
47180 
47183 
47198 
47202 
47156 
47139 
47168 
47161 
47124 
47083 
47075 
47069 
47107 
47138 
47136 
47173 
47217 
47204 
47197 
47201 
47226 
47204 
47191 
47161 
47090 
47065 
47061 
47054 
47004 
46954 
46995 
47019 
47054 
47011 
46983 
46967 
46961 
46992 
46990 
46984 
47000 
46965 
46933 
46904 
46887 
46948 
47017 
47067 
47066 
47017 
46973 
46925 
46874 
46884 
46966 
47010 
46998 
47014 
46975 
46952 
46912 
46925 
46976 
47004 
47018 
46973 
46959 
46958 
46931 
46935 
46925 
46953 
47004 
47020 
46964 
46931 
46876 
46877 
46868 
46836 
46841 
46844 
46917 
46974 
46965 
46986 
46963 
46964 
46944 
46938 
46941 
46991 
46961 
46922 
46899 
46913 
46924 
46922 
46938 
46976 
46967 
46929 
46890 
46905 
46903 
46891 
46871 
46859 
46913 
46938 
46916 
46897 
46927 
46951 
46941 
46959 
47015 
47027 
47002 
46994 
46976 
46920 
46908 
46948 
46966 
46979 
46985 
46949 
46969 
46971 
46972 
46980 
46988 
47001 
46967 
46947 
46941 
46959 
46968 
46974 
46995 
47013 
47007 
47023 
47024 
47013 
47002 
46994 
47026 
47089 
47067 
47034 
47009 
46997 
47052 
47050 
47081 
47111 
47135 
47085 
47055 
47081 
47043 
47019 
47064 
47068 
47070 
47095 
47137 
47113 
47094 
47095 
47104 
47113 
47117 
47141 
47091 
47036 
47039 
47047 
47104 
47168 
47176 
47121 
47049 
47054 
47036 
47011 
47051 
47079 
47077 
47067 
47010 
46970 
46985 
47094 
47121 
47077 
47073 
47066 
47046 
47004 
46992 
47024 
47054 
47078 
47090 
47048 
47056 
47070 
47064 
47051 
47026 
47020 
47082 
47068 
47083 
47122 
47111 
47086 
47052 
47067 
47054 
47085 
47101 
47099 
47084 
47085 
47083 
47156 
47174 
47132 
47051 
46975 
46976 
46971 
47003 
46971 
46980 
47060 
47073 
47096 
47108 
47078 
47075 
47040 
47034 
47039 
47021 
47014 
47022 
47025 
47048 
47078 
47001 
46941 
46924 
46900 
46887 
46842 
46779 
46713 
46697 
46692 
46693 
46674 
46640 
46597 
46575 
46523 
46485 
46426 
46404 
46401 
46396 
46367 
46331 
46322 
46308 
46289 
46240 
46219 
46190 
46154 
46057 
45999 
45962 
45932 
45909 
45902 
45873 
45875 
45890 
45897 
45916 
45912 
45932 
45958 
45936 
45905 
45895 
45866 
45880 
45906 
45938 
45971 
46014 
45989 
45970 
45931 
45942 
45957 
45974 
45966 
45930 
45894 
45946 
45987 
46013 
45978 
45953 
45987 
46030 
46084 
46103 
46105 
46137 
46185 
46195 
46210 
46269 
46305 
46327 
46326 
46344 
46338 
46292 
46254 
46288 
46298 
46287 
46277 
46250 
46273 
46293 
46311 
46349 
46396 
46435 
46458 
46484 
46476 
46435 
46396 
46396 
46449 
46467 
46476 
46530 
46522 
46532 
46574 
46597 
46610 
46673 
46683 
46654 
46602 
46595 
46593 
46650 
46732 
46802 
46825 
46804 
46815 
46823 
46857 
46891 
46921 
46928 
46951 
46959 
46987 
47016 
46989 
46994 
47009 
46990 
46973 
46997 
46997 
47026 
47040 
47044 
47027 
47032 
47044 
47083 
47075 
47059 
47100 
47118 
47129 
47173 
47156 
47140 
47087 
47103 
47159 
47201 
47223 
47227 
47197 
47176 
47159 
47214 
47220 
47263 
47355 
47372 
47360 
47376 
47384 
47377 
47325 
47303 
47318 
47397 
47472 
47509 
47516 
47501 
47476 
47466 
47433 
47471 
47490 
47465 
47459 
47470 
47484 
47521 
47530 
47577 
47605 
47607 
47631 
47621 
47621 
47637 
47688 
47717 
47688 
47665 
47679 
47682 
47647 
47596 
47584 
47576 
47605 
47634 
47630 
47584 
47560 
47587 
47594 
47611 
47597 
47583 
47571 
47614 
47622 
47551 
47540 
47576 
47534 
47501 
47553 
47584 
47562 
47535 
47524 
47531 
47506 
47507 
47470 
47456 
47514 
47515 
47493 
47504 
47560 
47558 
47502 
47539 
47584 
47573 
47550 
47523 
47508 
47477 
47408 
47288 
47187 
47127 
47041 
46951 
46896 
46844 
46744 
46709 
46654 
46563 
46438 
46304 
46292 
46224 
46138 
46046 
45981 
45950 
45902 
45863 
45845 
45785 
45709 
45635 
45643 
45557 
45479 
45476 
45433 
45381 
45397 
45363 
45250 
45221 
45224 
45197 
45129 
45170 
45205 
45200 
45166 
45125 
45112 
45180 
45202 
45170 
45147 
45131 
45156 
45190 
45171 
45169 
45181 
45184 
45184 
45171 
45183 
45229 
45224 
45213 
45258 
45243 
45198 
45223 
45237 
45238 
45273 
45332 
45332 
45289 
45345 
45391 
45403 
45428 
45494 
45544 
45588 
45552 
45537 
45619 
45667 
45675 
45689 
45728 
45778 
45870 
45905 
45914 
45929 
45918 
45947 
46055 
46128 
46169 
46200 
46180 
46221 
46304 
46351 
46369 
46394 
46432 
46427 
46372 
46378 
46373 
46397 
46474 
46538 
46613 
46704 
46805 
46888 
46958 
46980 
46968 
46965 
46954 
46967 
47004 
47077 
47142 
47215 
47254 
47299 
47292 
47283 
47279 
47304 
47376 
47374 
47394 
47427 
47389 
47416 
47493 
47565 
47591 
47548 
47550 
47575 
47548 
47531 
47524 
47622 
47707 
47731 
47759 
47768 
47809 
47814 
47815 
47806 
47783 
47831 
47858 
47901 
47898 
47928 
48003 
48022 
48052 
48048 
48036 
48046 
48022 
48016 
48001 
48022 
48020 
47973 
47945 
47887 
47897 
47949 
47990 
48036 
48027 
47994 
48059 
48116 
48128 
48108 
48059 
48056 
48109 
48165 
48215 
48203 
48192 
48197 
48163 
48138 
48127 
48174 
48188 
48249 
48274 
48214 
48210 
48194 
48136 
48124 
48145 
48185 
48217 
48257 
48282 
48284 
48291 
48269 
48228 
48233 
48254 
48295 
48296 
48272 
48249 
48289 
48264 
48201 
48192 
48191 
48229 
48265 
48244 
48205 
48167 
48089 
47986 
47885 
47778 
47702 
47601 
47432 
47226 
47079 
46957 
46766 
46624 
46506 
46317 
46080 
45914 
45805 
45633 
45491 
45387 
45278 
45158 
44998 
44835 
44693 
44571 
44425 
44323 
44197 
44056 
43907 
43800 
43702 
43575 
43427 
43330 
43219 
43090 
42973 
42878 
42826 
42802 
42736 
42703 
42654 
42619 
42510 
42443 
42447 
42406 
42364 
42311 
42279 
42317 
42391 
42387 
42320 
42293 
42279 
42251 
42327 
42435 
42480 
42532 
42613 
42652 
42673 
42710 
42768 
42862 
42886 
42949 
43004 
43061 
43111 
43197 
43233 
43285 
43334 
43400 
43456 
43548 
43692 
43811 
43853 
43919 
43997 
44003 
44095 
44237 
44349 
44459 
44549 
44629 
44752 
44861 
44918 
44955 
44997 
45063 
45185 
45244 
45288 
45400 
45507 
45566 
45679 
45830 
45900 
45971 
46063 
46138 
46224 
46355 
46408 
46429 
46523 
46635 
46725 
46774 
46848 
46961 
47042 
47092 
47199 
47320 
47391 
47457 
47493 
47511 
47575 
47671 
47804 
47865 
47918 
48031 
48128 
48179 
48210 
48333 
48403 
48461 
48583 
48676 
48726 
48793 
48814 
48807 
48821 
48871 
48958 
48995 
49062 
49198 
49304 
49354 
49405 
49450 
49438 
49456 
49477 
49556 
49645 
49679 
49700 
49755 
49796 
49867 
49923 
49963 
50009 
50044 
50061 
50089 
50109 
50127 
50138 
50146 
50162 
50170 
50230 
50296 
50319 
50360 
50413 
50495 
50571 
50643 
50645 
50625 
50647 
50667 
50717 
50723 
50672 
50650 
50688 
50727 
50757 
50777 
50759 
50825 
50920 
50963 
51002 
51011 
50997 
50990 
50951 
50930 
50932 
50933 
50940 
50950 
51004 
51037 
51045 
51093 
51099 
51112 
51134 
51072 
51037 
51019 
51046 
51090 
51107 
51155 
51160 
51137 
51075 
51033 
51007 
51004 
51018 
51058 
51072 
51056 
51074 
51058 
50982 
50970 
50990 
50985 
50924 
50893 
50880 
50892 
50860 
50799 
50717 
50670 
50579 
50393 
50209 
50032 
49839 
49596 
49334 
49138 
48900 
48648 
48379 
48096 
47835 
47617 
47379 
47185 
47000 
46762 
46536 
46289 
46078 
45927 
45779 
45588 
45365 
45184 
44990 
44803 
44626 
44458 
44282 
44134 
43979 
43794 
43668 
43536 
43373 
43273 
43166 
43082 
42932 
42808 
42750 
42666 
42595 
42535 
42485 
42431 
42363 
42286 
42278 
42237 
42152 
42085 
42042 
42046 
42081 
42146 
42182 
42169 
42201 
42227 
42244 
42281 
42325 
42323 
42355 
42397 
42443 
42458 
42497 
42533 
42589 
42604 
42625 
42700 
42800 
42831 
42839 
42869 
42862 
42898 
42968 
43083 
43177 
43281 
43355 
43492 
43660 
43746 
43789 
43838 
43921 
43990 
44091 
44255 
44435 
44532 
44579 
44633 
44674 
44782 
44931 
45038 
45142 
45262 
45352 
45515 
45656 
45746 
45827 
45973 
46158 
46332 
46448 
46544 
46621 
46739 
46869 
47038 
47183 
47248 
47328 
47444 
47613 
47828 
47974 
48068 
48189 
48312 
48494 
48625 
48750 
48878 
49024 
49162 
49287 
49390 
49455 
49536 
49645 
49767 
49891 
50014 
50142 
50284 
50396 
50472 
50554 
50625 
50704 
50816 
50944 
51087 
51185 
51232 
51289 
51369 
51460 
51601 
51696 
51783 
51892 
51945 
52014 
52086 
52124 
52182 
52244 
52320 
52389 
52454 
52503 
52601 
52685 
52723 
52746 
52816 
52821 
52865 
52957 
53040 
53103 
53098 
53070 
53075 
53156 
53210 
53197 
53220 
53280 
53392 
53466 
53490 
53544 
53608 
53651 
53696 
53715 
53681 
53718 
53746 
53738 
53760 
53801 
53831 
53847 
53879 
53934 
53949 
53914 
53917 
53975 
54010 
53980 
53961 
53993 
54024 
54034 
54075 
54177 
54224 
54198 
54171 
54083 
54047 
54076 
54107 
54157 
54220 
54290 
54294 
54246 
54197 
54145 
54132 
54153 
54147 
54149 
54173 
54146 
54056 
54020 
53972 
53806 
53593 
53415 
53198 
52909 
52641 
52380 
52112 
51826 
51539 
51298 
51124 
50906 
50676 
50468 
50267 
50017 
49770 
49542 
49254 
49032 
48878 
48714 
48562 
48404 
48219 
48058 
47889 
47760 
47653 
47518 
47344 
47205 
47093 
46975 
46893 
46817 
46728 
46617 
46572 
46595 
46582 
46535 
46490 
46481 
46447 
46471 
46546 
46578 
46611 
46650 
46665 
46670 
46746 
46820 
46806 
46801 
46808 
46883 
46933 
47020 
47127 
47134 
47189 
47263 
47282 
47302 
47384 
47467 
47516 
47559 
47566 
47664 
47769 
47849 
47955 
47996 
48030 
48107 
48154 
48215 
48237 
48317 
48452 
48548 
48603 
48703 
48790 
48857 
48909 
48968 
49070 
49207 
49294 
49367 
49464 
49558 
49644 
49756 
49833 
49865 
49995 
50119 
50163 
50289 
50427 
50486 
50552 
50581 
50637 
50742 
50826 
50894 
50980 
51035 
51095 
51207 
51314 
51401 
51567 
51705 
51758 
51786 
51821 
51836 
51933 
51983 
52047 
52097 
52159 
52261 
52346 
52458 
52501 
52499 
52597 
52639 
52693 
52767 
52874 
52964 
53040 
53089 
53098 
53093 
53164 
53233 
53269 
53313 
53315 
53320 
53416 
53493 
53523 
53551 
53616 
53653 
53646 
53678 
53767 
53771 
53758 
53777 
53788 
53786 
53805 
53863 
53928 
53955 
53949 
53948 
53947 
53985 
54082 
54150 
54154 
54120 
54103 
54144 
54163 
54182 
54261 
54302 
54272 
54266 
54274 
54235 
54178 
54153 
54159 
54195 
54287 
54319 
54304 
54319 
54305 
54306 
54324 
54353 
54393 
54408 
54409 
54402 
54410 
54360 
54322 
54339 
54309 
54370 
54437 
54427 
54417 
54402 
54393 
54367 
54325 
54335 
54356 
54361 
54355 
54322 
54342 
54332 
54348 
54326 
54291 
54294 
54243 
54229 
54224 
54185 
54040 
53863 
53657 
53384 
53134 
52868 
52592 
52288 
51988 
51623 
51283 
50980 
50670 
50407 
50148 
49850 
49517 
49206 
48916 
48621 
48388 
48182 
47941 
47692 
47464 
47303 
47116 
46985 
46840 
46655 
46489 
46331 
46194 
46068 
45959 
45894 
45826 
45768 
45744 
45698 
45630 
45560 
45544 
45604 
45637 
45658 
45657 
45714 
45777 
45879 
45966 
46080 
46171 
46265 
46373 
46502 
46671 
46877 
46949 
47022 
47154 
47280 
47427 
47597 
47735 
47804 
47897 
48032 
48161 
48324 
48468 
48549 
48588 
48659 
48811 
48882 
48953 
49016 
49064 
49160 
49270 
49339 
49416 
49481 
49603 
49740 
49886 
49975 
50063 
50173 
50302 
50421 
50543 
50658 
50803 
50867 
50874 
50957 
51057 
51144 
51219 
51372 
51513 
51610 
51716 
51811 
51889 
51992 
52081 
52212 
52333 
52419 
52477 
52571 
52691 
52835 
52980 
53044 
53110 
53163 
53269 
53361 
53516 
53587 
53629 
53744 
53800 
53868 
53921 
53984 
54074 
54168 
54242 
54328 
54384 
54425 
54472 
54495 
54522 
54565 
54644 
54735 
54789 
54817 
54879 
54954 
55029 
55020 
55046 
55075 
55097 
55077 
55120 
55186 
55210 
55251 
55256 
55233 
55238 
55277 
55333 
55405 
55426 
55429 
55421 
55412 
55419 
55438 
55488 
55554 
55562 
55559 
55531 
55512 
55576 
55617 
55664 
55643 
55613 
55607 
55637 
55677 
55698 
55689 
55696 
55697 
55713 
55692 
55693 
55703 
55762 
55784 
55731 
55711 
55723 
55691 
55642 
55601 
55608 
55600 
55640 
55647 
55620 
55631 
55657 
55611 
55546 
55588 
55624 
55593 
55597 
55577 
55532 
55486 
55439 
55412 
55413 
55386 
55380 
55338 
55311 
55309 
55290 
55237 
55189 
55208 
55223 
55221 
55221 
55195 
55140 
55078 
55064 
55061 
55070 
55106 
55051 
54992 
54935 
54947 
54921 
54854 
54811 
54769 
54745 
54743 
54786 
54803 
54749 
54638 
54522 
54324 
54065 
53797 
53531 
53244 
52895 
52493 
52160 
51778 
51377 
51023 
50645 
50251 
49858 
49471 
49104 
48778 
48504 
48259 
48018 
47766 
47503 
47253 
47033 
46860 
46703 
46544 
46387 
46232 
46163 
46114 
46041 
45991 
45944 
45890 
45846 
45802 
45698 
45680 
45721 
45748 
45756 
45769 
45811 
45907 
45993 
46085 
46198 
46295 
46433 
46567 
46689 
46811 
46938 
47104 
47244 
47427 
47652 
47807 
48015 
48190 
48350 
48486 
48547 
48645 
48823 
48977 
49094 
49232 
49344 
49486 
49643 
49829 
49954 
50033 
50107 
50159 
50240 
50365 
50469 
50578 
50686 
50757 
50819 
50933 
51038 
51092 
51181 
51267 
51339 
51409 
51541 
51638 
51745 
51834 
51915 
52003 
52158 
52239 
52320 
52358 
52405 
52474 
52532 
52605 
52740 
52854 
52909 
52951 
52999 
53066 
53142 
53227 
53321 
53412 
53477 
53557 
53675 
53759 
53835 
53874 
53960 
54043 
54147 
54219 
54216 
54247 
54301 
54355 
54442 
54498 
54519 
54546 
54601 
54677 
54722 
54824 
54891 
54957 
54969 
54990 
55011 
54990 
55002 
55060 
55078 
55112 
55209 
55265 
55261 
55277 
55293 
55348 
55361 
55402 
55511 
55553 
55545 
55543 
55584 
55624 
55655 
55687 
55701 
55714 
55712 
55689 
55696 
55661 
55650 
55635 
55606 
55643 
55661 
55651 
55661 
55671 
55654 
55654 
55656 
55659 
55652 
55665 
55675 
55656 
55641 
55625 
55633 
55676 
55711 
55735 
55770 
55776 
55820 
55787 
55748 
55709 
55667 
55660 
55669 
55683 
55674 
55663 
55680 
55659 
55586 
55513 
55477 
55456 
55462 
55476 
55479 
55444 
55389 
55383 
55357 
55330 
55323 
55330 
55315 
55286 
55270 
55301 
55316 
55306 
55270 
55249 
55212 
55200 
55311 
55407 
55371 
55275 
55166 
55097 
54983 
54847 
54589 
54278 
53946 
53563 
53144 
52748 
52383 
51983 
51601 
51222 
50803 
50419 
50087 
49707 
49369 
49104 
48825 
48535 
48254 
48054 
47882 
47711 
47580 
47425 
47263 
47149 
47085 
46986 
46888 
46811 
46779 
46745 
46712 
46698 
46722 
46775 
46813 
46817 
46821 
46855 
46937 
47018 
47131 
47249 
47363 
47536 
47676 
47781 
47894 
48010 
48124 
48264 
48448 
48643 
48812 
48971 
49147 
49313 
49473 
49594 
49739 
49958 
50177 
50284 
50366 
50517 
50636 
50764 
50933 
51073 
51175 
51294 
51456 
51559 
51611 
51627 
51673 
51739 
51814 
51896 
51967 
52046 
52081 
52165 
52280 
52336 
52378 
52443 
52503 
52572 
52615 
52760 
52885 
53025 
53136 
53147 
53158 
53189 
53246 
53298 
53368 
53437 
53512 
53589 
53637 
53709 
53821 
53891 
53967 
54013 
54100 
54197 
54332 
54451 
54504 
54571 
54628 
54662 
54726 
54795 
54848 
54895 
54964 
54983 
55033 
55166 
55271 
55304 
55358 
55446 
55494 
55531 
55567 
55615 
55659 
55684 
55777 
55848 
55946 
55990 
56006 
56007 
55990 
55964 
55992 
56052 
56054 
55994 
56029 
56064 
56096 
56201 
56289 
56296 
56268 
56244 
56219 
56198 
56191 
56217 
56298 
56369 
56356 
56304 
56293 
56301 
56327 
56325 
56310 
56322 
56316 
56305 
56289 
56302 
56284 
56283 
56270 
56262 
56301 
56318 
56296 
56219 
56167 
56175 
56144 
56090 
56039 
56006 
56001 
55993 
55961 
55930 
55921 
55869 
55838 
55839 
55836 
55825 
55793 
55764 
55760 
55798 
55750 
55639 
55590 
55540 
55501 
55562 
55589 
55565 
55555 
55623 
55597 
55528 
55494 
55519 
55511 
55456 
55374 
55369 
55349 
55329 
55310 
55305 
55272 
55220 
55220 
55200 
55170 
55139 
55117 
55106 
55047 
55037 
55047 
55009 
54940 
54887 
54815 
54683 
54462 
54212 
53927 
53644 
53301 
52843 
52328 
51851 
51372 
50943 
50487 
50074 
49752 
49417 
49065 
48673 
48300 
47925 
47616 
47380 
47163 
46940 
46759 
46646 
46471 
46297 
46163 
46024 
45911 
45874 
45849 
45796 
45757 
45773 
45788 
45819 
45812 
45844 
45882 
45896 
45903 
45976 
46085 
46227 
46389 
46548 
46645 
46762 
46945 
47090 
47194 
47358 
47601 
47838 
48096 
48371 
48524 
48665 
48879 
49109 
49319 
49507 
49670 
49821 
49972 
50184 
50358 
50577 
50704 
50848 
50945 
51024 
51142 
51223 
51301 
51353 
51421 
51507 
51569 
51671 
51778 
51870 
52004 
52098 
52141 
52212 
52307 
52375 
52409 
52486 
52581 
52647 
52729 
52791 
52826 
52857 
52918 
53024 
53099 
53199 
53250 
53314 
53424 
53533 
53625 
53717 
53806 
53921 
54029 
54077 
54142 
54238 
54375 
54492 
54584 
54693 
54731 
54790 
54875 
54964 
55023 
55112 
55210 
55229 
55285 
55388 
55458 
55544 
55634 
55703 
55758 
55797 
55808 
55849 
55921 
55955 
55984 
56027 
56084 
56154 
56166 
56201 
56268 
56317 
56407 
56474 
56540 
56565 
56580 
56566 
56588 
56670 
56670 
56713 
56759 
56794 
56826 
56863 
56880 
56842 
56817 
56860 
56888 
56887 
56865 
56830 
56862 
56879 
56851 
56873 
56865 
56812 
56806 
56813 
56841 
56903 
56852 
56854 
56883 
56900 
56922 
56932 
56910 
56943 
57014 
57058 
57053 
57062 
57074 
57054 
57013 
57054 
57088 
57051 
57062 
57118 
57163 
57178 
57193 
57169 
57174 
57191 
57179 
57201 
57213 
57230 
57253 
57237 
57241 
57279 
57287 
57287 
57287 
57237 
57185 
57179 
57187 
57226 
57297 
57345 
57355 
57362 
57364 
57355 
57335 
57282 
57205 
57219 
57254 
57259 
57241 
57201 
57146 
57126 
57042 
56925 
56778 
56542 
56245 
55858 
55541 
55209 
54795 
54418 
54008 
53544 
53093 
52623 
52219 
51839 
51424 
51010 
50609 
50250 
49897 
49541 
49235 
48928 
48670 
48447 
48233 
48016 
47827 
47701 
47616 
47504 
47428 
47362 
47313 
47311 
47341 
47358 
47388 
47449 
47491 
47548 
47617 
47653 
47747 
47847 
47878 
47953 
48093 
48194 
48293 
48460 
48643 
48766 
48841 
48964 
49084 
49161 
49347 
49588 
49796 
49953 
50088 
50205 
50326 
50439 
50545 
50677 
50814 
50951 
51024 
51072 
51140 
51275 
51450 
51521 
51598 
51643 
51663 
51694 
51811 
51857 
51889 
51939 
52027 
52087 
52120 
52173 
52217 
52222 
52235 
52201 
52195 
52238 
52266 
52334 
52473 
52583 
52664 
52700 
52733 
52759 
52819 
52909 
52983 
53079 
53192 
53277 
53386 
53505 
53601 
53733 
53811 
53905 
53994 
54071 
54167 
54285 
54446 
54579 
54725 
54854 
54988 
55112 
55207 
55305 
55422 
55509 
55609 
55725 
55874 
56037 
56118 
56147 
56152 
56198 
56299 
56379 
56458 
56541 
56653 
56773 
56889 
56997 
57043 
57052 
57106 
57178 
57259 
57345 
57505 
57591 
57593 
57639 
57742 
57876 
57973 
58080 
58142 
58209 
58225 
58234 
58260 
58298 
58382 
58468 
58560 
58640 
58690 
58745 
58797 
58820 
58875 
58913 
58919 
58951 
58986 
59019 
59086 
59147 
59212 
59293 
59363 
59419 
59440 
59381 
59329 
59329 
59351 
59344 
59398 
59411 
59380 
59369 
59371 
59374 
59438 
59461 
59460 
59484 
59486 
59489 
59496 
59522 
59549 
59547 
59529 
59543 
59544 
59506 
59428 
59391 
59373 
59358 
59390 
59411 
59346 
59241 
59138 
59023 
58870 
58683 
58433 
58157 
57846 
57463 
57083 
56645 
56145 
55663 
55225 
54748 
54334 
53914 
53501 
53020 
52554 
52062 
51604 
51234 
50929 
50655 
50327 
50057 
49812 
49596 
49400 
49217 
49069 
48969 
48914 
48873 
48797 
48780 
48812 
48791 
48812 
48877 
48934 
49056 
49191 
49296 
49396 
49477 
49577 
49706 
49863 
49974 
50102 
50268 
50398 
50565 
50721 
50874 
51066 
51265 
51452 
51642 
51864 
52048 
52179 
52293 
52475 
52662 
52880 
53056 
53152 
53260 
53347 
53411 
53540 
53668 
53743 
53815 
53883 
53942 
54038 
54102 
54136 
54201 
54258 
54305 
54360 
54419 
54428 
54402 
54348 
54322 
54336 
54343 
54366 
54365 
54396 
54482 
54540 
54530 
54571 
54612 
54644 
54668 
54667 
54679 
54678 
54695 
54735 
54791 
54921 
55074 
55162 
55236 
55247 
55351 
55548 
55656 
55709 
55822 
55904 
55970 
56064 
56149 
56267 
56365 
56454 
56545 
56593 
56662 
56721 
56762 
56791 
56922 
56991 
56978 
57021 
57075 
57124 
57154 
57166 
57258 
57312 
57293 
57279 
57280 
57258 
57211 
57169 
57200 
57265 
57295 
57316 
57320 
57256 
57185 
57192 
57182 
57188 
57190 
57205 
57222 
57146 
57111 
57094 
57076 
57035 
56979 
56932 
56929 
56938 
56903 
56829 
56730 
56707 
56697 
56714 
56752 
56776 
56727 
56681 
56669 
56603 
56574 
56569 
56574 
56547 
56512 
56483 
56452 
56406 
56357 
56322 
56283 
56287 
56279 
56238 
56231 
56239 
56233 
56222 
56125 
56087 
56071 
56071 
56071 
56091 
56078 
56013 
55942 
55925 
55887 
55861 
55875 
55893 
55770 
55700 
55713 
55706 
55672 
55615 
55550 
55443 
55391 
55342 
55230 
55124 
54994 
54809 
54580 
54369 
54155 
53825 
53407 
53047 
52593 
52093 
51554 
50936 
50354 
49835 
49311 
48783 
48233 
47694 
47178 
46736 
46302 
45877 
45450 
45031 
44614 
44267 
43916 
43621 
43382 
43195 
43064 
42983 
42884 
42768 
42729 
42726 
42749 
42808 
42847 
42923 
42982 
43091 
43196 
43311 
43447 
43522 
43605 
43749 
43889 
44045 
44201 
44306 
44452 
44639 
44789 
44941 
45116 
45290 
45519 
45708 
45942 
46219 
46485 
46688 
46866 
47047 
47237 
47454 
47699 
47908 
48085 
48271 
48455 
48631 
48830 
49001 
49116 
49271 
49429 
49500 
49538 
49643 
49758 
49848 
49883 
49905 
49963 
50008 
50036 
50142 
50281 
50354 
50394 
50392 
50409 
50425 
50432 
50461 
50495 
50578 
50617 
50707 
50788 
50852 
50952 
51057 
51190 
51320 
51379 
51418 
51554 
51660 
51718 
51806 
51952 
52076 
52186 
52263 
52345 
52401 
52465 
52577 
52715 
52820 
52874 
52943 
52993 
53050 
53140 
53259 
53388 
53522 
53651 
53753 
53777 
53819 
53927 
53983 
54060 
54153 
54239 
54319 
54388 
54470 
54533 
54543 
54545 
54565 
54588 
54631 
54670 
54736 
54760 
54753 
54763 
54794 
54847 
54833 
54864 
54904 
54926 
54949 
54951 
54975 
54967 
54928 
54877 
54823 
54775 
54754 
54772 
54812 
54774 
54749 
54689 
54622 
54614 
54555 
54576 
54613 
54614 
54601 
54562 
54515 
54469 
54480 
54517 
54548 
54550 
54536 
54533 
54595 
54619 
54575 
54529 
54529 
54471 
54446 
54519 
54588 
54572 
54528 
54526 
54516 
54524 
54532 
54539 
54557 
54501 
54423 
54295 
54104 
53868 
53608 
53334 
52997 
52630 
52174 
51717 
51207 
50676 
50124 
49581 
49069 
48540 
47983 
47404 
46818 
46321 
45831 
45408 
44993 
44630 
44290 
43940 
43614 
43333 
43096 
42885 
42665 
42532 
42394 
42296 
42209 
42117 
42096 
42162 
42232 
42319 
42408 
42495 
42568 
42669 
42795 
42925 
43076 
43260 
43500 
43704 
43863 
44081 
44333 
44602 
44872 
45118 
45367 
45638 
45927 
46192 
46414 
46652 
46939 
47248 
47500 
47744 
47971 
48186 
48351 
48547 
48772 
48949 
49113 
49282 
49435 
49541 
49664 
49779 
49867 
49956 
49988 
50025 
50087 
50164 
50228 
50236 
50258 
50263 
50192 
50165 
50224 
50311 
50341 
50339 
50331 
50398 
50483 
50543 
50622 
50707 
50762 
50789 
50829 
50835 
50883 
51036 
51150 
51197 
51243 
51316 
51401 
51508 
51604 
51684 
51827 
51981 
52075 
52158 
52234 
52322 
52484 
52661 
52819 
52936 
53029 
53088 
53115 
53154 
53206 
53259 
53296 
53339 
53473 
53579 
53604 
53625 
53708 
53805 
53809 
53787 
53745 
53742 
53745 
53770 
53816 
53793 
53767 
53778 
53819 
53882 
53898 
53938 
53938 
53874 
53898 
53943 
53943 
53942 
53934 
53918 
53901 
53936 
53968 
54000 
54022 
54034 
54041 
53993 
53915 
53873 
53879 
53888 
53867 
53822 
53787 
53779 
53765 
53703 
53634 
53614 
53586 
53597 
53588 
53548 
53517 
53526 
53583 
53578 
53519 
53471 
53436 
53379 
53353 
53272 
53210 
53218 
53226 
53202 
53211 
53189 
53167 
53184 
53169 
53175 
53173 
53129 
53103 
53092 
53067 
53014 
52934 
52858 
52775 
52665 
52511 
52285 
52024 
51691 
51253 
50848 
50430 
49912 
49320 
48721 
48141 
47573 
46945 
46341 
45736 
45131 
44577 
44048 
43510 
42966 
42461 
41979 
41527 
41099 
40651 
40296 
39992 
39715 
39501 
39362 
39268 
39203 
39121 
39073 
39042 
39026 
39049 
39130 
39237 
39333 
39442 
39611 
39749 
39868 
39999 
40172 
40405 
40605 
40773 
40952 
41192 
41433 
41679 
41954 
42216 
42437 
42689 
43003 
43333 
43685 
43999 
44253 
44511 
44793 
45076 
45369 
45702 
45992 
46290 
46596 
46880 
47172 
47408 
47637 
47861 
48039 
48293 
48526 
48700 
48863 
48981 
49097 
49226 
49356 
49433 
49558 
49696 
49771 
49850 
49942 
50081 
50180 
50268 
50362 
50465 
50573 
50644 
50701 
50832 
50957 
51036 
51123 
51244 
51337 
51502 
51684 
51804 
51976 
52115 
52170 
52281 
52445 
52573 
52698 
52831 
53004 
53186 
53342 
53541 
53741 
53871 
53982 
54127 
54238 
54367 
54500 
54629 
54746 
54910 
55059 
55179 
55252 
55334 
55461 
55568 
55659 
55789 
55892 
55954 
56022 
56073 
56131 
56190 
56237 
56230 
56232 
56212 
56251 
56269 
56273 
56318 
56339 
56340 
56288 
56268 
56337 
56378 
56361 
56327 
56322 
56351 
56363 
56394 
56451 
56473 
56475 
56512 
56475 
56453 
56452 
56378 
56310 
56330 
56317 
56310 
56281 
56259 
56264 
56279 
56284 
56209 
56132 
56111 
56104 
56045 
55935 
55898 
55925 
55893 
55864 
55870 
55839 
55793 
55802 
55749 
55652 
55607 
55617 
55568 
55494 
55403 
55334 
55224 
55089 
54946 
54801 
54636 
54458 
54325 
54239 
54127 
54027 
53937 
53828 
53712 
53616 
53540 
53435 
53302 
53186 
53128 
53096 
53100 
53085 
53052 
52908 
52705 
52494 
52266 
52004 
51722 
51353 
50905 
50411 
49886 
49271 
48591 
47933 
47284 
46627 
45992 
45353 
44756 
44167 
43580 
43008 
42468 
41923 
41388 
40919 
40493 
40117 
39853 
39641 
39388 
39150 
38948 
38816 
38763 
38704 
38672 
38661 
38701 
38743 
38805 
38846 
38908 
39029 
39196 
39372 
39526 
39683 
39891 
40100 
40262 
40472 
40658 
40845 
41011 
41189 
41417 
41642 
41921 
42217 
42424 
42629 
42853 
43194 
43546 
43863 
44086 
44304 
44613 
44916 
45164 
45385 
45566 
45797 
45999 
46193 
46399 
46586 
46789 
46969 
47100 
47188 
47279 
47459 
47673 
47841 
47945 
48073 
48187 
48231 
48298 
48380 
48481 
48596 
48645 
48758 
48876 
49021 
49100 
49159 
49275 
49444 
49587 
49630 
49698 
49792 
49868 
49978 
50086 
50171 
50288 
50446 
50591 
50737 
50858 
50965 
51092 
51199 
51356 
51462 
51592 
51702 
51819 
51960 
52058 
52201 
52358 
52493 
52683 
52835 
52977 
53078 
53186 
53358 
53467 
53541 
53651 
53725 
53777 
53860 
53996 
54127 
54253 
54359 
54434 
54528 
54636 
54705 
54772 
54796 
54811 
54821 
54911 
54987 
55070 
55126 
55188 
55291 
55367 
55399 
55442 
55455 
55387 
55360 
55397 
55441 
55481 
55504 
55503 
55509 
55507 
55498 
55517 
55518 
55540 
55535 
55493 
55489 
55497 
55490 
55497 
55514 
55512 
55557 
55518 
55462 
55449 
55445 
55407 
55376 
55341 
55302 
55328 
55322 
55252 
55215 
55150 
55056 
55053 
55028 
54948 
54862 
54816 
54828 
54834 
54826 
54815 
54771 
54699 
54652 
54590 
54542 
54511 
54553 
54549 
54506 
54511 
54574 
54542 
54477 
54448 
54426 
54406 
54335 
54303 
54217 
54161 
53986 
53765 
53478 
53113 
52714 
52208 
51692 
51160 
50632 
50092 
49519 
48914 
48271 
47663 
47081 
46480 
45870 
45312 
44836 
44394 
44001 
43616 
43188 
42840 
42575 
42298 
42053 
41829 
41699 
41655 
41617 
41577 
41526 
41510 
41546 
41635 
41744 
41876 
42018 
42118 
42245 
42436 
42639 
42827 
43003 
43180 
43384 
43597 
43791 
43986 
44260 
44511 
44757 
45045 
45362 
45691 
45957 
46235 
46503 
46812 
47109 
47363 
47617 
47860 
48110 
48355 
48557 
48774 
48973 
49146 
49329 
49488 
49636 
49819 
50000 
50133 
50245 
50318 
50412 
50513 
50629 
50751 
50862 
50949 
51019 
51018 
50994 
51047 
51075 
51094 
51172 
51289 
51350 
51360 
51407 
51432 
51511 
51625 
51755 
51827 
51889 
51946 
52023 
52104 
52231 
52332 
52366 
52437 
52537 
52627 
52689 
52743 
52790 
52873 
52941 
52982 
53049 
53174 
53281 
53384 
53468 
53550 
53627 
53679 
53803 
53821 
53852 
53917 
53988 
54070 
54174 
54239 
54327 
54390 
54399 
54476 
54578 
54628 
54687 
54692 
54687 
54691 
54670 
54674 
54630 
54522 
54482 
54491 
54445 
54389 
54371 
54368 
54349 
54347 
54313 
54317 
54321 
54292 
54283 
54293 
54253 
54165 
54064 
54019 
53959 
53869 
53826 
53756 
53684 
53644 
53691 
53704 
53632 
53577 
53543 
53559 
53580 
53590 
53576 
53577 
53621 
53634 
53627 
53633 
53613 
53586 
53631 
53669 
53697 
53717 
53682 
53655 
53668 
53685 
53781 
53831 
53858 
53880 
53895 
53906 
53904 
53874 
53894 
53969 
54002 
53971 
53956 
54004 
54032 
54009 
53997 
54010 
54080 
54087 
54045 
54032 
54065 
54091 
54121 
54164 
54185 
54226 
54251 
54225 
54198 
54197 
54136 
54028 
53806 
53490 
53103 
52705 
52233 
51730 
51233 
50724 
50168 
49579 
49019 
48446 
47821 
47191 
46604 
46051 
45574 
45103 
44655 
44257 
43847 
43500 
43176 
42875 
42583 
42327 
42103 
41922 
41772 
41639 
41550 
41473 
41450 
41412 
41365 
41330 
41365 
41453 
41504 
41614 
41727 
41824 
41949 
42101 
42264 
42453 
42610 
42750 
42924 
43097 
43294 
43521 
43771 
43981 
44134 
44339 
44575 
44770 
44995 
45264 
45559 
45800 
46045 
46302 
46569 
46839 
47085 
47334 
47559 
47735 
47944 
48188 
48437 
48666 
48927 
49150 
49385 
49583 
49813 
50069 
50301 
50571 
50788 
51021 
51214 
51434 
51690 
51921 
52156 
52316 
52475 
52641 
52811 
52914 
53047 
53241 
53415 
53633 
53809 
53944 
54079 
54217 
54371 
54496 
54658 
54789 
54911 
55093 
55210 
55296 
55386 
55501 
55591 
55632 
55704 
55818 
55930 
55985 
56018 
56071 
56116 
56201 
56303 
56348 
56394 
56463 
56528 
56575 
56602 
56622 
56701 
56784 
56765 
56735 
56818 
56875 
56864 
56865 
56894 
56926 
56968 
57040 
57019 
57020 
57065 
57066 
56997 
56903 
56776 
56601 
56474 
56282 
56005 
55698 
55428 
55122 
54784 
54416 
54048 
53700 
53336 
52964 
52657 
52361 
52010 
51705 
51389 
51026 
50714 
50445 
50244 
49989 
49713 
49451 
49217 
49032 
48858 
48721 
48579 
48490 
48412 
48354 
48294 
48177 
48080 
48064 
48069 
48028 
48012 
48054 
48092 
48140 
48204 
48242 
48310 
48352 
48416 
48561 
48706 
48817 
48988 
49120 
49254 
49416 
49570 
49740 
49906 
50069 
50247 
50431 
50611 
50779 
50963 
51125 
51252 
51363 
51447 
51587 
51711 
51865 
52043 
52172 
52257 
52378 
52523 
52614 
52676 
52753 
52900 
53037 
53139 
53246 
53325 
53462 
53658 
53769 
53845 
53858 
53922 
54051 
54217 
54345 
54441 
54505 
54585 
54716 
54842 
54908 
55022 
55160 
55297 
55355 
55372 
55455 
55533 
55643 
55765 
55827 
55872 
55922 
55966 
55965 
56088 
56198 
56247 
56270 
56278 
56306 
56375 
56448 
56517 
56590 
56682 
56688 
56690 
56685 
56675 
56679 
56711 
56704 
56664 
56583 
56571 
56503 
56468 
56464 
56475 
56426 
56381 
56335 
56247 
56179 
56080 
55967 
55930 
55837 
55709 
55559 
55423 
55350 
55313 
55249 
55121 
55010 
54911 
54818 
54833 
54769 
54783 
54774 
54680 
54636 
54605 
54597 
54570 
54477 
54432 
54414 
54392 
54375 
54306 
54233 
54210 
54224 
54231 
54216 
54215 
54254 
54255 
54247 
54209 
54196 
54205 
54185 
54175 
54178 
54204 
54182 
54182 
54249 
54326 
54359 
54401 
54468 
54475 
54457 
54481 
54501 
54505 
54548 
54591 
54605 
54580 
54574 
54650 
54692 
54666 
54666 
54708 
54748 
54731 
54734 
54769 
54815 
54875 
54901 
54947 
54981 
55049 
55040 
55007 
54979 
54945 
54936 
54946 
54948 
54976 
55006 
54980 
54995 
55001 
54972 
55028 
55059 
55015 
55002 
54983 
54986 
54995 
55022 
55046 
55068 
55056 
55040 
55007 
54998 
55013 
54966 
54972 
54987 
54997 
54993 
54999 
54931 
54899 
54915 
54915 
54865 
54860 
54859 
54808 
54815 
54841 
54920 
54957 
54885 
54880 
54888 
54818 
54779 
54748 
54728 
54652 
54591 
54561 
54593 
54626 
54591 
54594 
54603 
54563 
54522 
54503 
54510 
54513 
54491 
54423 
54358 
54329 
54262 
54220 
54188 
54146 
54145 
54093 
54014 
53990 
53952 
53971 
53949 
53901 
53866 
53840 
53843 
53792 
53752 
53748 
53722 
53667 
53626 
53510 
53400 
53391 
53410 
53411 
53403 
53357 
53379 
53382 
53308 
53277 
53205 
53148 
53113 
53045 
53065 
53090 
53029 
52918 
52868 
52816 
52840 
52829 
52784 
52793 
52753 
52661 
52650 
52649 
52636 
52607 
52537 
52482 
52454 
52426 
52366 
52289 
52271 
52241 
52236 
52235 
52263 
52277 
52303 
52265 
52204 
52152 
52059 
51947 
51928 
51909 
51876 
51855 
51850 
51904 
51968 
51961 
51885 
51854 
51834 
51800 
51770 
51748 
51734 
51730 
51683 
51668 
51668 
51664 
51653 
51611 
51636 
51619 
51671 
51647 
51565 
51523 
51540 
51518 
51460 
51441 
51428 
51344 
51337 
51319 
51297 
51289 
51259 
51262 
51260 
51258 
51229 
51241 
51247 
51207 
51194 
51179 
51136 
51068 
51052 
51106 
51082 
51036 
51047 
51017 
51029 
51043 
50986 
50941 
50896 
50917 
50922 
50903 
50874 
50880 
50884 
50854 
50838 
50814 
50828 
50870 
50879 
50906 
50892 
50854 
50834 
50793 
50734 
50741 
50773 
50787 
50820 
50789 
50776 
50758 
50714 
50740 
50764 
50729 
50718 
50689 
50706 
50740 
50757 
50745 
50699 
50680 
50657 
50676 
50740 
50763 
50748 
50739 
50753 
50779 
50844 
50866 
50848 
50810 
50828 
50865 
50862 
50831 
50843 
50870 
50851 
50783 
50742 
50710 
50700 
50721 
50794 
50844 
50836 
50869 
50936 
50921 
50877 
50925 
50969 
50974 
50952 
50952 
50987 
51020 
51018 
51023 
50988 
50911 
50862 
50811 
50804 
50806 
50845 
50903 
50901 
50859 
50840 
50839 
50861 
50899 
50942 
50934 
50927 
50955 
50958 
50953 
50958 
50918 
50910 
50946 
50965 
50993 
50997 
50986 
50949 
50917 
50922 
50935 
50926 
50900 
50890 
50878 
50852 
50828 
50761 
50744 
50800 
50765 
50643 
50547 
50530 
50534 
50527 
50453 
50403 
50364 
50330 
50317 
50293 
50289 
50284 
50280 
50230 
50198 
50190 
50170 
50201 
50204 
50237 
50248 
50193 
50134 
50085 
50082 
50054 
50072 
50078 
50059 
50024 
49922 
49895 
49932 
49961 
49985 
50059 
50127 
50121 
50106 
50100 
50060 
50010 
49994 
50043 
50102 
50062 
50059 
50042 
50025 
49998 
50016 
50052 
50043 
50060 
50071 
50065 
50075 
50000 
49983 
50070 
50139 
50138 
50147 
50172 
50145 
50134 
50118 
50123 
50140 
50163 
50179 
50182 
50190 
50181 
50160 
50188 
50239 
50270 
50263 
50253 
50268 
50284 
50312 
50342 
50313 
50319 
50292 
50316 
50360 
50370 
50371 
50391 
50415 
50388 
50409 
50418 
50446 
50467 
50419 
50377 
50388 
50429 
50496 
50518 
50516 
50494 
50554 
50630 
50654 
50626 
50641 
50618 
50632 
50607 
50623 
50650 
50656 
50727 
50736 
50699 
50695 
50697 
50723 
50794 
50813 
50814 
50785 
50747 
50751 
50730 
50746 
50799 
50868 
50898 
50926 
50944 
50891 
50832 
50833 
50912 
50974 
50933 
50920 
50907 
50931 
50955 
50976 
50955 
50903 
50853 
50888 
50912 
50924 
50916 
50938 
50927 
50926 
50955 
50958 
50934 
50946 
50984 
50996 
50938 
50868 
50849 
50803 
50767 
50757 
50768 
50796 
50808 
50799 
50821 
50820 
50826 
50815 
50806 
50840 
50861 
50863 
50841 
50886 
50971 
50980 
50924 
50852 
50810 
50808 
50750 
50712 
50725 
50755 
50770 
50757 
50728 
50661 
50622 
50605 
50615 
50700 
50747 
50715 
50736 
50792 
50743 
50705 
50686 
50620 
50580 
50617 
50656 
50656 
50629 
50625 
50690 
50748 
50740 
50764 
50770 
50765 
50774 
50827 
50852 
50825 
50770 
50758 
50765 
50803 
50849 
50853 
50868 
50881 
50854 
50817 
50808 
50815 
50809 
50744 
50665 
50675 
50697 
50670 
50600 
50577 
50635 
50659 
50679 
50683 
50685 
50640 
50563 
50526 
50468 
50453 
50471 
50446 
50444 
50469 
50474 
50455 
50440 
50411 
50375 
50338 
50334 
50358 
50323 
50306 
50296 
50259 
50222 
50255 
50287 
50337 
50307 
50302 
50303 
50261 
50246 
50249 
50223 
50238 
50251 
50195 
50168 
50166 
50169 
50150 
50134 
50154 
50211 
50264 
50268 
50255 
50264 
50260 
50270 
50268 
50244 
50240 
50268 
50300 
50312 
50307 
50290 
50287 
50294 
50285 
50265 
50246 
50239 
50174 
50113 
50159 
50198 
50212 
50243 
50223 
50188 
50175 
50165 
50164 
50164 
50218 
50281 
50252 
50204 
50176 
50156 
50107 
50110 
50173 
50227 
50230 
50241 
50251 
50267 
50261 
50229 
50208 
50218 
50219 
50175 
50175 
50171 
50217 
50243 
50215 
50181 
50191 
50225 
50261 
50304 
50285 
50313 
50292 
50266 
50319 
50362 
50363 
50326 
50267 
50252 
50231 
50214 
50225 
50200 
50152 
50175 
50201 
50188 
50184 
50198 
50228 
50193 
50182 
50169 
50177 
50180 
50149 
50148 
50141 
50109 
50120 
50161 
50195 
50207 
50211 
50173 
50109 
50120 
50156 
50174 
50164 
50155 
50193 
50197 
50186 
50198 
50162 
50113 
50123 
50122 
50141 
50139 
50129 
50137 
50174 
50182 
50228 
50276 
50252 
50198 
50189 
50191 
50148 
50110 
50091 
50042 
50073 
50038 
50000 
50003 
50091 
50126 
50124 
50082 
50105 
50157 
50126 
50044 
50052 
50103 
50141 
50175 
50186 
50161 
50153 
50125 
50084 
50053 
50040 
50061 
50016 
49989 
50005 
50068 
50071 
50080 
50104 
50065 
49994 
50002 
50060 
50059 
50087 
50100 
50124 
50114 
50079 
50085 
50085 
50072 
50117 
50164 
50112 
50082 
50052 
50023 
50024 
49992 
49959 
49932 
49948 
49904 
49877 
49844 
49824 
49816 
49803 
49749 
49715 
49678 
49652 
49624 
49604 
49632 
49608 
49562 
49496 
49459 
49440 
49403 
49433 
49428 
49380 
49346 
49335 
49326 
49339 
49296 
49246 
49270 
49352 
49349 
49310 
49295 
49243 
49273 
49270 
49233 
49239 
49252 
49221 
49216 
49207 
49200 
49237 
49287 
49280 
49323 
49367 
49391 
49389 
49387 
49426 
49438 
49451 
49454 
49479 
49447 
49431 
49493 
49510 
49511 
49495 
49500 
49537 
49609 
49602 
49577 
49561 
49515 
49514 
49567 
49634 
49703 
49681 
49634 
49675 
49675 
49630 
49609 
49593 
49604 
49633 
49679 
49704 
49699 
49750 
49773 
49781 
49819 
49838 
49769 
49723 
49742 
49851 
49918 
49924 
49886 
49872 
49872 
49908 
49892 
49864 
49848 
49850 
49898 
49959 
49984 
50001 
50019 
50003 
50000 
50015 
50016 
50044 
50042 
50073 
50056 
50054 
50041 
50046 
50112 
50127 
50141 
50137 
50122 
50118 
50125 
50143 
50157 
50181 
50185 
50172 
50172 
50227 
50294 
50298 
50347 
50356 
50327 
50338 
50335 
50332 
50377 
50379 
50345 
50369 
50396 
50405 
50375 
50306 
50260 
50301 
50338 
50353 
50295 
50301 
50350 
50388 
50446 
50449 
50458 
50441 
50415 
50388 
50401 
50430 
50419 
50409 
50391 
50422 
50433 
50369 
50288 
50290 
50319 
50328 
50331 
50376 
50411 
50458 
50425 
50368 
50351 
50346 
50341 
50369 
50396 
50410 
50456 
50427 
50393 
50435 
50454 
50442 
50487 
50502 
50516 
50469 
50486 
50534 
50562 
50545 
50512 
50535 
50530 
50485 
50428 
50441 
50445 
50510 
50536 
50542 
50553 
50504 
50506 
50534 
50511 
50493 
50500 
50511 
50478 
50467 
50459 
50468 
50427 
50399 
50453 
50505 
50518 
50512 
50495 
50445 
50342 
50241 
50154 
50098 
50048 
49948 
49839 
49834 
49741 
49670 
49641 
49625 
49608 
49559 
49494 
49458 
49410 
49433 
49382 
49278 
49227 
49208 
49232 
49267 
49210 
49138 
49112 
49158 
49236 
49224 
49168 
49176 
49149 
49087 
49033 
49032 
49053 
49046 
49057 
49096 
49174 
49149 
49098 
49075 
49069 
49046 
49069 
49061 
49037 
49049 
49058 
49094 
49152 
49177 
49123 
49116 
49114 
49139 
49177 
49188 
49169 
49151 
49200 
49280 
49332 
49353 
49318 
49317 
49294 
49303 
49330 
49374 
49437 
49443 
49450 
49474 
49514 
49558 
49603 
49605 
49591 
49622 
49636 
49643 
49666 
49637 
49629 
49651 
49677 
49729 
49747 
49728 
49735 
49758 
49765 
49782 
49793 
49816 
49852 
49871 
49863 
49893 
49950 
49942 
49879 
49855 
49821 
49778 
49836 
49895 
49953 
50033 
50073 
50052 
50048 
50065 
50076 
50038 
49952 
49942 
50008 
50048 
50057 
50082 
50082 
50070 
50104 
50136 
50173 
50153 
50091 
50038 
50007 
50029 
50053 
50082 
50117 
50089 
50108 
50110 
50109 
50111 
50102 
50086 
50150 
50184 
50137 
50106 
50048 
50033 
50029 
50042 
50074 
50131 
50093 
50046 
50106 
50139 
50152 
50193 
50224 
50287 
50340 
50347 
50304 
50262 
50311 
50320 
50276 
50290 
50348 
50429 
50437 
50398 
50332 
50311 
50292 
50287 
50268 
50297 
50359 
50365 
50388 
50421 
50456 
50461 
50454 
50480 
50514 
50497 
50469 
50449 
50423 
50455 
50500 
50507 
50509 
50452 
50428 
50456 
50478 
50498 
50473 
50483 
50557 
50549 
50494 
50467 
50500 
50531 
50536 
50540 
50518 
50514 
50529 
50512 
50506 
50520 
50545 
50522 
50531 
50556 
50509 
50481 
50488 
50493 
50493 
50489 
50509 
50519 
50529 
50526 
50513 
50527 
50530 
50520 
50526 
50489 
50445 
50447 
50468 
50475 
50456 
50435 
50430 
50496 
50452 
50343 
50303 
50294 
50263 
50234 
50233 
50209 
50139 
50129 
50107 
50068 
49994 
49902 
49897 
49892 
49845 
49783 
49770 
49761 
49720 
49703 
49724 
49709 
49665 
49608 
49564 
49511 
49476 
49439 
49348 
49298 
49312 
49285 
49223 
49278 
49311 
49315 
49317 
49287 
49261 
49284 
49324 
49306 
49313 
49283 
49239 
49271 
49282 
49260 
49264 
49280 
49238 
49217 
49186 
49150 
49170 
49257 
49284 
49263 
49271 
49274 
49313 
49350 
49350 
49350 
49351 
49369 
49371 
49353 
49388 
49451 
49458 
49463 
49456 
49421 
49390 
49339 
49399 
49431 
49440 
49434 
49462 
49491 
49473 
49467 
49471 
49513 
49540 
49545 
49529 
49544 
49596 
49614 
49607 
49587 
49597 
49655 
49698 
49724 
49716 
49708 
49638 
49602 
49648 
49655 
49616 
49625 
49698 
49736 
49739 
49768 
49793 
49768 
49712 
49773 
49809 
49776 
49771 
49748 
49758 
49788 
49810 
49856 
49885 
49883 
49861 
49859 
49898 
49897 
49896 
49953 
49992 
49931 
49938 
49922 
49907 
49943 
49925 
49909 
49930 
49988 
50076 
50101 
50087 
50071 
50010 
49999 
50015 
50043 
50073 
50025 
49975 
49956 
49989 
50003 
50026 
50051 
50075 
50110 
50155 
50171 
50114 
50078 
50080 
50135 
50187 
50225 
50185 
50145 
50173 
50168 
50114 
50077 
50072 
50101 
50140 
50118 
50070 
50046 
50032 
50019 
50027 
50068 
50089 
50116 
50127 
50157 
50181 
50163 
50116 
50168 
50163 
50177 
50181 
50207 
50218 
50198 
50156 
50088 
50060 
50042 
50046 
50023 
50024 
50048 
50083 
50099 
50139 
50161 
50117 
50116 
50144 
50137 
50143 
50160 
50180 
50106 
50050 
50073 
50095 
50140 
50181 
50182 
50199 
50211 
50174 
50099 
50007 
49946 
49912 
49893 
49828 
49761 
49691 
49628 
49543 
49512 
49451 
49407 
49324 
49243 
49150 
49052 
48968 
48919 
48890 
48857 
48805 
48735 
48666 
48589 
48538 
48526 
48522 
48525 
48547 
48530 
48563 
48561 
48531 
48513 
48504 
48511 
48504 
48554 
48569 
48572 
48559 
48548 
48514 
48454 
48423 
48413 
48354 
48340 
48373 
48409 
48409 
48448 
48472 
48431 
48473 
48555 
48563 
48562 
48634 
48662 
48696 
48741 
48779 
48820 
48884 
48958 
48940 
48881 
48866 
48865 
48891 
48906 
48906 
48915 
48994 
49080 
49089 
49108 
49167 
49160 
49191 
49225 
49262 
49305 
49317 
49307 
49305 
49311 
49345 
49364 
49370 
49415 
49494 
49540 
49529 
49491 
49499 
49575 
49608 
49641 
49651 
49712 
49783 
49786 
49827 
49863 
49862 
49879 
49905 
49886 
49887 
49892 
49921 
49952 
49971 
49942 
49949 
50026 
50087 
50107 
50140 
50182 
50192 
50181 
50210 
50221 
50203 
50221 
50205 
50264 
50311 
50337 
50389 
50404 
50449 
50482 
50479 
50490 
50484 
50473 
50484 
50531 
50580 
50602 
50617 
50599 
50596 
50617 
50681 
50731 
50746 
50692 
50690 
50682 
50675 
50711 
50755 
50736 
50721 
50717 
50779 
50812 
50812 
50795 
50764 
50742 
50719 
50736 
50747 
50757 
50802 
50832 
50818 
50817 
50854 
50833 
50873 
50910 
50916 
50905 
50876 
50866 
50835 
50789 
50817 
50828 
50838 
50879 
50891 
50867 
50892 
50928 
50950 
50940 
50907 
50911 
50889 
50819 
50796 
50791 
50748 
50772 
50855 
50867 
50861 
50871 
50897 
50956 
51012 
51054 
51041 
50974 
50942 
50933 
50950 
51011 
51028 
51045 
51043 
51084 
51077 
51040 
51032 
51052 
51018 
51000 
51001 
50998 
50983 
51006 
50982 
50973 
50958 
50991 
51037 
50999 
50909 
50879 
50801 
50710 
50630 
50545 
50481 
50383 
50214 
50065 
49931 
49872 
49844 
49811 
49716 
49657 
49614 
49504 
49433 
49376 
49325 
49270 
49158 
49044 
49021 
49023 
48956 
48947 
48896 
48786 
48706 
48623 
48599 
48650 
48689 
48693 
48620 
48549 
48565 
48618 
48605 
48552 
48521 
48451 
48428 
48509 
48535 
48532 
48487 
48466 
48493 
48536 
48632 
48704 
48750 
48741 
48715 
48669 
48684 
48711 
48701 
48746 
48811 
48847 
48871 
48909 
48988 
49028 
49048 
49143 
49179 
49184 
49197 
49217 
49224 
49270 
49274 
49302 
49328 
49373 
49389 
49385 
49457 
49472 
49439 
49481 
49535 
49606 
49673 
49734 
49765 
49734 
49752 
49781 
49761 
49785 
49828 
49968 
49997 
49953 
49938 
49988 
50021 
50052 
50052 
50021 
50072 
50107 
50183 
50211 
50192 
50181 
50155 
50148 
50178 
50256 
50343 
50382 
50396 
50405 
50466 
50499 
50494 
50482 
50437 
50425 
50485 
50518 
50568 
50587 
50633 
50644 
50648 
50640 
50644 
50624 
50663 
50666 
50705 
50732 
50721 
50722 
50732 
50685 
50709 
50767 
50794 
50787 
50794 
50786 
50772 
50738 
50713 
50715 
50733 
50741 
50713 
50673 
50666 
50704 
50743 
50739 
50709 
50740 
50692 
50692 
50750 
50753 
50752 
50748 
50738 
50785 
50846 
50863 
50776 
50731 
50759 
50800 
50799 
50845 
50816 
50757 
50708 
50674 
50643 
50601 
50652 
50677 
50669 
50713 
50710 
50684 
50687 
50670 
50658 
50686 
50694 
50624 
50600 
50652 
50653 
50616 
50623 
50697 
50680 
50695 
50756 
50771 
50700 
50660 
50662 
50689 
50721 
50755 
50819 
50817 
50765 
50708 
50736 
50747 
50723 
50743 
50753 
50695 
50674 
50665 
50695 
50765 
50792 
50748 
50719 
50684 
50679 
50701 
50661 
50625 
50648 
50680 
50695 
50653 
50579 
50574 
50563 
50474 
50396 
50273 
50168 
50065 
49934 
49823 
49728 
49615 
49575 
49522 
49440 
49319 
49137 
49001 
48934 
48903 
48840 
48759 
48643 
48561 
48533 
48433 
48365 
48379 
48379 
48329 
48272 
48227 
48213 
48132 
48098 
48130 
48112 
48097 
48138 
48131 
48161 
48172 
48085 
48081 
48138 
48204 
48274 
48309 
48359 
48360 
48325 
48335 
48335 
48358 
48410 
48464 
48449 
48425 
48472 
48534 
48635 
48698 
48696 
48694 
48703 
48745 
48810 
48809 
48762 
48817 
48868 
48874 
48852 
48815 
48853 
48917 
48999 
49107 
49154 
49166 
49159 
49184 
49200 
49261 
49354 
49409 
49460 
49519 
49590 
49644 
49648 
49677 
49715 
49738 
49819 
49850 
49809 
49812 
49861 
49915 
49914 
49918 
49973 
49995 
49998 
50003 
50041 
50113 
50169 
50206 
50222 
50161 
50160 
50211 
50214 
50251 
50350 
50392 
50397 
50400 
50392 
50407 
50444 
50471 
50495 
50486 
50493 
50560 
50604 
50570 
50568 
50612 
50618 
50645 
50688 
50745 
50769 
50763 
50734 
50693 
50672 
50750 
50808 
50850 
50896 
50895 
50904 
50864 
50888 
50919 
50947 
50893 
50864 
50896 
50914 
50887 
50887 
50906 
50970 
51014 
51006 
51010 
50978 
50978 
51016 
51042 
51096 
51160 
51182 
51181 
51170 
51140 
51081 
51042 
51033 
51057 
51079 
51106 
51130 
51095 
51072 
51090 
51111 
51132 
51157 
51111 
51083 
51114 
51136 
51095 
51043 
51003 
50977 
50964 
51006 
51053 
51087 
51063 
51045 
51057 
51088 
51133 
51146 
51140 
51131 
51152 
51143 
51075 
50997 
50971 
51013 
51085 
51103 
51093 
51101 
51105 
51085 
51054 
51045 
51057 
51128 
51162 
51141 
51134 
51091 
51019 
50978 
50974 
51005 
51094 
51111 
51082 
51065 
51068 
51044 
51053 
51021 
50989 
50937 
50896 
50803 
50625 
50427 
50238 
50059 
49905 
49681 
49483 
49285 
49100 
48951 
48814 
48629 
48441 
48263 
48095 
47932 
47784 
47653 
47517 
47391 
47309 
47195 
47105 
47006 
46874 
46738 
46662 
46636 
46606 
46543 
46460 
46354 
46282 
46262 
46241 
46201 
46144 
46070 
46048 
46035 
46027 
46048 
46043 
46000 
46043 
46070 
46085 
46064 
46083 
46129 
46170 
46161 
46175 
46234 
46302 
46367 
46418 
46491 
46533 
46617 
46741 
46781 
46795 
46884 
46976 
47047 
47131 
47192 
47277 
47393 
47469 
47550 
47643 
47749 
47812 
47903 
47966 
48030 
48105 
48122 
48137 
48211 
48325 
48421 
48466 
48570 
48714 
48812 
48880 
48945 
49030 
49079 
49085 
49132 
49222 
49358 
49499 
49564 
49598 
49691 
49774 
49843 
49906 
49967 
50029 
50090 
50189 
50325 
50424 
50501 
50542 
50563 
50644 
50720 
50812 
50855 
50926 
50981 
51050 
51106 
51163 
51236 
51305 
51322 
51377 
51441 
51508 
51594 
51652 
51767 
51821 
51842 
51912 
51991 
52011 
52059 
52096 
52132 
52163 
52241 
52347 
52376 
52411 
52433 
52432 
52420 
52396 
52446 
52530 
52537 
52553 
52568 
52521 
52530 
52626 
52704 
52787 
52814 
52874 
52919 
52939 
52919 
52869 
52798 
52831 
52919 
52924 
52959 
52948 
52981 
53034 
53022 
53048 
53053 
53078 
53092 
53087 
53058 
53002 
52959 
52955 
53013 
52978 
52926 
52968 
53004 
53005 
52985 
53010 
52997 
53038 
53088 
53075 
53074 
53086 
53062 
53011 
52975 
52997 
53028 
53012 
52994 
52974 
52950 
52929 
52933 
52931 
52971 
52964 
52970 
52980 
52944 
52880 
52847 
52869 
52865 
52856 
52828 
52848 
52873 
52832 
52762 
52720 
52710 
52679 
52662 
52726 
52763 
52693 
52619 
52582 
52569 
52584 
52591 
52599 
52608 
52559 
52500 
52444 
52389 
52373 
52400 
52411 
52392 
52366 
52328 
52222 
52105 
51947 
51749 
51523 
51221 
50944 
50668 
50470 
50267 
49993 
49724 
49434 
49174 
48970 
48775 
48546 
48360 
48180 
47951 
47715 
47501 
47372 
47233 
47145 
47045 
46913 
46809 
46648 
46475 
46313 
46152 
46027 
45954 
45871 
45814 
45801 
45748 
45693 
45628 
45547 
45496 
45463 
45439 
45468 
45479 
45455 
45446 
45421 
45425 
45425 
45487 
45519 
45546 
45555 
45605 
45624 
45646 
45714 
45822 
45945 
45984 
45963 
45990 
46116 
46216 
46289 
46350 
46418 
46521 
46606 
46655 
46734 
46786 
46821 
46858 
46948 
46997 
47009 
47036 
47129 
47196 
47268 
47346 
47442 
47558 
47664 
47783 
47892 
47973 
48040 
48121 
48232 
48343 
48445 
48512 
48630 
48774 
48887 
48960 
49043 
49122 
49190 
49297 
49424 
49495 
49585 
49698 
49817 
49973 
50015 
50087 
50200 
50290 
50361 
50483 
50579 
50651 
50751 
50839 
50881 
50913 
51048 
51201 
51318 
51416 
51544 
51667 
51693 
51709 
51780 
51891 
51972 
52072 
52130 
52220 
52269 
52315 
52394 
52468 
52516 
52610 
52739 
52849 
52933 
52964 
52995 
53105 
53179 
53243 
53280 
53316 
53337 
53385 
53397 
53419 
53438 
53434 
53478 
53497 
53526 
53574 
53678 
53702 
53666 
53706 
53791 
53854 
53859 
53879 
53956 
54012 
54019 
54053 
54086 
54118 
54108 
54071 
54045 
54011 
53958 
53979 
54031 
54081 
54171 
54233 
54219 
54170 
54174 
54202 
54209 
54224 
54228 
54174 
54182 
54215 
54253 
54271 
54261 
54259 
54261 
54286 
54291 
54282 
54250 
54258 
54251 
54257 
54309 
54310 
54272 
54243 
54260 
54255 
54265 
54245 
54252 
54272 
54280 
54308 
54305 
54277 
54312 
54336 
54332 
54346 
54327 
54326 
54361 
54377 
54409 
54378 
54324 
54328 
54254 
54218 
54277 
54252 
54244 
54255 
54279 
54248 
54200 
54123 
54037 
53942 
53769 
53514 
53212 
52923 
52614 
52242 
51894 
51614 
51324 
51043 
50786 
50517 
50265 
50008 
49774 
49575 
49355 
49138 
48908 
48765 
48605 
48367 
48149 
47995 
47880 
47737 
47584 
47462 
47376 
47277 
47142 
46998 
46901 
46818 
46748 
46654 
46568 
46528 
46475 
46443 
46422 
46411 
46417 
46398 
46410 
46477 
46534 
46649 
46748 
46821 
46878 
46894 
46927 
46990 
47049 
47129 
47236 
47346 
47395 
47432 
47514 
47563 
47656 
47706 
47753 
47861 
47986 
48075 
48178 
48271 
48422 
48577 
48677 
48711 
48764 
48871 
49044 
49096 
49150 
49269 
49391 
49456 
49582 
49642 
49611 
49628 
49683 
49790 
49880 
49977 
50108 
50288 
50408 
50504 
50601 
50691 
50800 
50917 
50947 
51019 
51106 
51178 
51285 
51414 
51555 
51633 
51745 
51847 
51928 
51992 
52117 
52134 
52084 
52166 
52318 
52446 
52553 
52719 
52865 
52931 
52992 
53054 
53112 
53155 
53224 
53324 
53403 
53501 
53581 
53681 
53793 
53862 
53930 
53935 
53918 
53914 
54004 
54149 
54311 
54348 
54371 
54395 
54453 
54592 
54645 
54650 
54662 
54690 
54677 
54705 
54712 
54738 
54830 
54912 
54933 
54959 
55024 
55103 
55128 
55113 
55130 
55148 
55200 
55253 
55336 
55374 
55396 
55389 
55359 
55365 
55361 
55343 
55357 
55374 
55393 
55422 
55412 
55427 
55439 
55469 
55539 
55525 
55487 
55443 
55451 
55459 
55477 
55461 
55530 
55606 
55581 
55563 
55552 
55608 
55650 
55659 
55666 
55639 
55657 
55681 
55668 
55662 
55642 
55634 
55617 
55625 
55636 
55649 
55648 
55649 
55630 
55646 
55650 
55668 
55657 
55624 
55622 
55622 
55656 
55632 
55607 
55632 
55632 
55622 
55661 
55683 
55688 
55661 
55646 
55675 
55686 
55670 
55669 
55704 
55707 
55684 
55633 
55633 
55636 
55627 
55647 
55682 
55672 
55613 
55577 
55583 
55571 
55523 
55439 
55245 
54985 
54671 
54379 
54058 
53711 
53366 
53041 
52736 
52440 
52158 
51903 
51602 
51302 
51036 
50741 
50400 
50094 
49817 
49560 
49333 
49149 
48977 
48791 
48608 
48435 
48277 
48121 
47934 
47822 
47750 
47638 
47546 
47477 
47453 
47449 
47394 
47315 
47281 
47270 
47289 
47327 
47350 
47414 
47476 
47529 
47563 
47666 
47792 
47890 
48050 
48202 
48327 
48455 
48591 
48680 
48794 
49010 
49203 
49345 
49518 
49667 
49803 
49950 
50070 
50205 
50307 
50438 
50609 
50701 
50806 
50875 
50920 
50979 
51062 
51214 
51324 
51427 
51526 
51658 
51762 
51834 
51920 
52012 
52082 
52169 
52308 
52390 
52461 
52586 
52704 
52747 
52836 
52975 
53063 
53107 
53102 
53170 
53316 
53461 
53613 
53726 
53759 
53816 
53883 
53992 
54144 
54233 
54346 
54468 
54550 
54647 
54743 
54821 
54887 
54951 
55022 
55077 
55158 
55223 
55297 
55386 
55435 
55509 
55610 
55661 
55719 
55779 
55871 
55939 
55954 
55984 
56057 
56109 
56171 
56221 
56289 
56364 
56447 
56504 
56533 
56555 
56606 
56633 
56648 
56736 
56728 
56718 
56752 
56738 
56708 
56724 
56725 
56732 
56775 
56787 
56816 
56843 
56805 
56839 
56885 
56877 
56885 
56895 
56863 
56843 
56833 
56858 
56860 
56882 
56976 
56986 
56959 
56979 
56964 
56894 
56846 
56884 
56871 
56876 
56876 
56842 
56823 
56816 
56786 
56794 
56800 
56793 
56757 
56695 
56669 
56649 
56652 
56683 
56677 
56664 
56662 
56641 
56672 
56699 
56652 
56627 
56564 
56488 
56486 
56443 
56444 
56505 
56495 
56440 
56395 
56325 
56323 
56406 
56389 
56324 
56312 
56301 
56301 
56250 
56210 
56205 
56178 
56178 
56187 
56140 
56115 
56102 
56113 
56104 
56052 
55978 
55965 
55947 
55873 
55821 
55820 
55802 
55791 
55779 
55745 
55730 
55733 
55727 
55702 
55694 
55695 
55649 
55570 
55514 
55514 
55481 
55404 
55350 
55326 
55324 
55349 
55317 
55235 
55046 
54850 
54647 
54365 
54054 
53712 
53377 
53013 
52659 
52312 
51976 
51673 
51393 
51089 
50794 
50533 
50323 
50077 
49828 
49535 
49277 
49051 
48842 
48670 
48545 
48409 
48312 
48235 
48167 
48107 
48024 
47972 
47922 
47904 
47902 
47886 
47855 
47840 
47906 
47956 
48032 
48147 
48224 
48302 
48358 
48432 
48547 
48663 
48769 
48906 
48999 
49092 
49198 
49317 
49440 
49616 
49802 
49993 
50139 
50269 
50372 
50460 
50585 
50731 
50913 
51090 
51198 
51344 
51459 
51546 
51657 
51785 
51917 
52024 
52104 
52194 
52233 
52283 
52363 
52462 
52549 
52597 
52699 
52821 
52874 
52934 
53055 
53150 
53186 
53267 
53319 
53392 
53473 
53523 
53565 
53623 
53691 
53710 
53790 
53981 
54090 
54168 
54219 
54276 
54340 
54434 
54541 
54659 
54751 
54786 
54829 
54881 
54977 
55014 
55027 
55059 
55089 
55133 
55230 
55385 
55528 
55600 
55563 
55579 
55646 
55781 
55829 
55872 
55918 
55984 
56068 
56133 
56152 
56161 
56218 
56238 
56270 
56343 
56397 
56428 
56446 
56428 
56462 
56489 
56506 
56568 
56647 
56686 
56705 
56700 
56703 
56752 
56774 
56752 
56760 
56774 
56773 
56732 
56718 
56729 
56800 
56833 
56850 
56892 
56901 
56880 
56862 
56904 
56932 
56906 
56912 
56914 
56927 
56897 
56904 
56869 
56842 
56845 
56804 
56803 
56795 
56739 
56716 
56724 
56723 
56747 
56688 
56660 
56658 
56614 
56570 
56514 
56518 
56514 
56504 
56522 
56578 
56566 
56538 
56508 
56551 
56540 
56479 
56431 
56385 
56352 
56375 
56349 
56332 
56303 
56273 
56269 
56240 
56184 
56133 
56105 
56038 
55970 
55937 
55944 
55934 
55903 
55900 
55945 
55955 
55956 
55941 
55904 
55851 
55803 
55763 
55725 
55698 
55610 
55578 
55590 
55579 
55519 
55444 
55418 
55428 
55431 
55426 
55367 
55329 
55284 
55115 
54888 
54624 
54362 
54060 
53716 
53375 
53048 
52678 
52290 
51903 
51577 
51264 
50923 
50593 
50241 
49908 
49645 
49379 
49106 
48856 
48598 
48364 
48231 
48085 
47939 
47826 
47709 
47568 
47481 
47432 
47408 
47398 
47442 
47498 
47538 
47570 
47637 
47680 
47695 
47722 
47824 
47933 
48061 
48180 
48271 
48397 
48478 
48548 
48713 
48899 
49075 
49260 
49427 
49589 
49712 
49881 
50023 
50140 
50301 
50506 
50656 
50777 
50929 
51028 
51146 
51357 
51511 
51632 
51751 
51871 
52042 
52156 
52267 
52352 
52460 
52547 
52635 
52706 
52757 
52786 
52880 
52981 
53110 
53203 
53255 
53337 
53420 
53441 
53518 
53577 
53640 
53733 
53830 
53931 
53994 
54080 
54142 
54208 
54257 
54275 
54359 
54487 
54563 
54634 
54706 
54749 
54775 
54845 
54907 
54963 
54996 
55077 
55178 
55270 
55362 
55425 
55497 
55567 
55639 
55695 
55776 
55864 
55933 
56006 
56116 
56194 
56197 
56228 
56256 
56295 
56375 
56454 
56535 
56556 
56544 
56558 
56603 
56653 
56675 
56734 
56766 
56795 
56819 
56838 
56906 
56938 
56983 
57009 
56985 
57011 
57020 
57024 
57051 
57136 
57155 
57132 
57163 
57213 
57236 
57243 
57241 
57241 
57268 
57276 
57290 
57260 
57282 
57273 
57274 
57310 
57354 
57313 
57295 
57301 
57307 
57353 
57399 
57380 
57367 
57357 
57320 
57292 
57302 
57334 
57313 
57334 
57297 
57282 
57234 
57228 
57228 
57253 
57289 
57287 
57263 
57307 
57255 
57251 
57245 
57176 
57143 
57123 
57114 
57101 
57134 
57151 
57121 
57071 
57075 
57066 
57046 
57033 
56984 
56916 
56864 
56839 
56845 
56862 
56852 
56839 
56771 
56721 
56716 
56689 
56661 
56636 
56619 
56612 
56651 
56668 
56600 
56511 
56484 
56470 
56472 
56414 
56346 
56310 
56273 
56250 
56240 
56205 
56181 
56083 
56006 
55949 
55892 
55830 
55807 
55784 
55744 
55624 
55509 
55323 
55046 
54784 
54508 
54179 
53763 
53350 
52925 
52467 
52013 
51610 
51229 
50868 
50580 
50299 
49983 
49667 
49369 
49073 
48822 
48670 
48476 
48336 
48195 
48059 
47997 
47928 
47849 
47846 
47887 
47871 
47868 
47909 
47916 
47913 
47950 
48016 
48089 
48163 
48247 
48345 
48459 
48559 
48684 
48737 
48793 
48896 
49000 
49189 
49379 
49574 
49770 
49902 
50065 
50223 
50342 
50483 
50640 
50785 
50965 
51110 
51254 
51350 
51460 
51607 
51775 
51901 
52045 
52148 
52252 
52379 
52456 
52516 
52602 
52697 
52725 
52863 
53034 
53135 
53221 
53291 
53354 
53395 
53522 
53624 
53658 
53712 
53772 
53803 
53856 
53915 
53957 
54075 
54190 
54315 
54340 
54310 
54408 
54514 
54576 
54582 
54638 
54703 
54786 
54884 
54964 
55048 
55140 
55221 
55295 
55354 
55398 
55454 
55495 
55565 
55618 
55686 
55779 
55834 
55849 
55846 
55913 
56000 
56069 
56147 
56212 
56273 
56370 
56468 
56491 
56485 
56498 
56523 
56557 
56609 
56682 
56722 
56780 
56837 
56880 
56924 
56936 
56946 
56945 
56896 
56907 
56986 
57037 
57038 
57034 
57089 
57180 
57189 
57170 
57147 
57098 
57081 
57119 
57161 
57200 
57168 
57152 
57153 
57190 
57178 
57165 
57208 
57236 
57217 
57237 
57279 
57355 
57402 
57356 
57289 
57266 
57309 
57333 
57336 
57278 
57239 
57221 
57215 
57262 
57273 
57284 
57269 
57272 
57309 
57289 
57248 
57220 
57290 
57293 
57261 
57248 
57176 
57116 
57096 
57095 
57107 
57125 
57105 
57036 
57000 
56981 
56990 
56995 
56971 
56936 
56926 
56924 
56916 
56916 
56903 
56829 
56756 
56716 
56686 
56715 
56755 
56741 
56750 
56738 
56729 
56721 
56669 
56625 
56628 
56599 
56583 
56588 
56613 
56588 
56530 
56435 
56342 
56328 
56302 
56167 
55933 
55679 
55396 
55105 
54806 
54430 
54053 
53689 
53284 
52916 
52531 
52134 
51727 
51320 
51006 
50713 
50417 
50135 
49884 
49633 
49421 
49268 
49088 
48898 
48759 
48651 
48580 
48536 
48481 
48446 
48431 
48489 
48514 
48528 
48589 
48608 
48636 
48685 
48751 
48823 
48923 
48982 
49056 
49171 
49279 
49395 
49513 
49661 
49798 
49959 
50104 
50262 
50474 
50685 
50864 
51043 
51225 
51385 
51527 
51692 
51897 
52089 
52236 
52340 
52490 
52629 
52783 
52926 
53034 
53130 
53226 
53355 
53481 
53565 
53646 
53753 
53839 
53921 
53955 
54005 
54065 
54123 
54174 
54277 
54331 
54349 
54395 
54467 
54598 
54691 
54694 
54722 
54789 
54869 
54939 
54979 
55007 
55089 
55173 
55232 
55264 
55367 
55451 
55501 
55542 
55588 
55641 
55759 
55881 
55930 
55958 
56021 
56018 
56031 
56086 
56197 
56324 
56421 
56552 
56607 
56587 
56612 
56696 
56808 
56842 
56880 
56948 
57031 
57136 
57208 
57299 
57385 
57473 
57542 
57557 
57526 
57542 
57612 
57673 
57705 
57755 
57804 
57889 
57937 
57978 
58042 
58074 
58103 
58124 
58165 
58213 
58188 
58182 
58197 
58211 
58229 
58271 
58244 
58235 
58242 
58254 
58278 
58322 
58334 
58307 
58313 
58286 
58252 
58290 
58301 
58340 
58406 
58412 
58397 
58417 
58424 
58459 
58443 
58421 
58448 
58488 
58501 
58512 
58466 
58405 
58394 
58357 
58341 
58331 
58350 
58339 
58308 
58268 
58233 
58201 
58177 
58134 
58124 
58162 
58136 
58086 
58065 
58079 
58089 
58038 
58031 
58033 
58023 
58000 
57922 
57880 
57929 
57962 
57932 
57907 
57897 
57893 
57888 
57835 
57809 
57795 
57795 
57767 
57709 
57670 
57688 
57719 
57744 
57759 
57736 
57680 
57663 
57665 
57646 
57550 
57441 
57351 
57240 
57090 
56913 
56661 
56350 
56082 
55709 
55253 
54820 
54450 
54083 
53638 
53170 
52729 
52320 
51900 
51496 
51082 
50718 
50372 
50078 
49804 
49571 
49370 
49213 
49063 
48954 
48833 
48742 
48683 
48604 
48571 
48553 
48526 
48521 
48583 
48692 
48784 
48879 
48968 
49086 
49176 
49297 
49430 
49534 
49691 
49845 
49931 
50036 
50200 
50377 
50569 
50788 
50986 
51213 
51451 
51573 
51717 
51885 
52088 
52314 
52449 
52605 
52760 
52894 
53105 
53277 
53452 
53549 
53627 
53772 
53928 
54022 
54163 
54336 
54522 
54691 
54774 
54824 
54953 
55075 
55192 
55284 
55345 
55452 
55587 
55691 
55759 
55803 
55844 
55953 
56034 
56080 
56134 
56229 
56291 
56342 
56420 
56511 
56611 
56703 
56816 
56952 
57069 
57150 
57279 
57423 
57535 
57624 
57721 
57828 
57924 
58018 
58111 
58175 
58256 
58360 
58463 
58489 
58538 
58648 
58775 
58904 
59040 
59119 
59212 
59294 
59413 
59587 
59713 
59814 
59834 
59878 
59965 
60083 
60190 
60285 
60350 
60390 
60468 
60541 
60619 
60697 
60712 
60748 
60790 
60824 
60896 
60962 
60934 
60937 
60932 
60974 
61036 
61038 
61066 
61140 
61092 
61014 
60979 
60946 
60943 
61003 
61024 
61033 
61041 
60959 
60872 
60917 
60945 
60963 
60969 
60943 
60878 
60806 
60790 
60742 
60679 
60671 
60671 
60625 
60609 
60564 
60526 
60543 
60522 
60428 
60342 
60370 
60370 
60305 
60281 
60250 
60222 
60245 
60210 
60142 
60082 
60034 
60058 
60066 
60084 
60060 
59977 
59918 
59972 
59999 
59976 
59939 
59913 
59888 
59908 
59902 
59816 
59739 
59712 
59701 
59713 
59720 
59699 
59682 
59646 
59588 
59557 
59535 
59498 
59404 
59242 
59141 
59091 
59054 
58972 
58938 
58890 
58843 
58795 
58730 
58726 
58666 
58528 
58385 
58223 
58035 
57806 
57544 
57237 
56882 
56463 
56045 
55627 
55173 
54710 
54209 
53745 
53293 
52888 
52464 
52022 
51613 
51164 
50693 
50307 
49954 
49570 
49204 
48948 
48691 
48452 
48267 
48081 
47929 
47793 
47742 
47676 
47628 
47642 
47656 
47695 
47751 
47773 
47838 
47973 
48053 
48160 
48284 
48377 
48472 
48582 
48688 
48816 
48942 
49118 
49299 
49447 
49592 
49760 
49982 
50152 
50309 
50444 
50622 
50834 
51026 
51221 
51403 
51511 
51581 
51672 
51769 
51865 
51954 
52095 
52190 
52229 
52269 
52303 
52339 
52365 
52384 
52398 
52396 
52391 
52440 
52483 
52438 
52398 
52384 
52318 
52294 
52254 
52222 
52205 
52159 
52160 
52148 
52115 
52140 
52219 
52225 
52157 
52155 
52155 
52197 
52274 
52344 
52377 
52426 
52518 
52628 
52693 
52778 
52881 
52988 
53096 
53192 
53273 
53336 
53375 
53451 
53529 
53614 
53666 
53755 
53754 
53782 
53846 
53936 
54013 
54030 
54055 
54125 
54241 
54317 
54381 
54426 
54448 
54490 
54558 
54578 
54617 
54663 
54766 
54855 
54892 
54896 
54879 
54918 
54978 
55030 
55079 
55139 
55194 
55214 
55197 
55187 
55180 
55154 
55131 
55174 
55235 
55273 
55306 
55303 
55290 
55232 
55206 
55221 
55211 
55204 
55204 
55174 
55210 
55172 
55135 
55101 
55076 
55046 
55043 
55043 
55030 
54992 
54974 
54968 
54932 
54905 
54909 
54927 
54895 
54868 
54880 
54873 
54856 
54854 
54848 
54853 
54871 
54901 
54858 
54814 
54778 
54733 
54742 
54800 
54805 
54744 
54766 
54771 
54719 
54736 
54727 
54715 
54694 
54685 
54672 
54691 
54720 
54739 
54703 
54617 
54457 
54246 
53979 
53674 
53382 
53048 
52672 
52242 
51748 
51245 
50675 
50163 
49653 
49108 
48572 
48081 
47630 
47141 
46642 
46194 
45807 
45391 
44988 
44602 
44290 
44043 
43795 
43525 
43245 
43022 
42838 
42741 
42652 
42597 
42542 
42563 
42671 
42738 
42830 
42898 
42955 
43025 
43156 
43281 
43382 
43506 
43627 
43781 
43983 
44200 
44408 
44591 
44728 
44892 
45102 
45338 
45628 
45874 
46065 
46302 
46549 
46800 
46966 
47178 
47476 
47726 
47920 
48142 
48345 
48542 
48686 
48779 
48876 
49023 
49207 
49347 
49471 
49529 
49658 
49833 
49946 
50036 
50080 
50141 
50213 
50246 
50300 
50339 
50336 
50383 
50424 
50464 
50530 
50558 
50654 
50728 
50806 
50902 
50979 
51023 
51109 
51187 
51206 
51210 
51242 
51323 
51465 
51611 
51698 
51777 
51876 
51973 
52037 
52146 
52302 
52457 
52548 
52647 
52780 
52905 
52984 
53077 
53154 
53271 
53437 
53568 
53686 
53814 
53909 
54035 
54118 
54161 
54235 
54302 
54366 
54452 
54526 
54579 
54696 
54770 
54857 
54932 
54889 
54873 
54907 
54926 
54962 
54970 
54936 
54976 
55029 
55032 
55027 
55011 
55052 
55111 
55127 
55182 
55222 
55238 
55266 
55285 
55243 
55186 
55154 
55204 
55276 
55248 
55193 
55200 
55206 
55233 
55292 
55279 
55262 
55275 
55237 
55215 
55211 
55199 
55162 
55121 
55082 
55050 
55089 
55086 
55019 
55046 
55015 
54941 
54896 
54886 
54897 
54865 
54870 
54836 
54761 
54715 
54658 
54643 
54614 
54611 
54569 
54527 
54522 
54411 
54310 
54308 
54300 
54256 
54227 
54209 
54178 
54153 
54125 
54129 
54110 
54074 
54030 
54042 
54130 
54165 
54136 
54114 
54072 
54084 
54031 
53968 
53921 
53912 
53866 
53821 
53744 
53546 
53270 
52986 
52654 
52247 
51806 
51283 
50776 
50313 
49786 
49221 
48636 
48029 
47454 
46886 
46288 
45770 
45284 
44772 
44240 
43752 
43308 
42907 
42518 
42119 
41822 
41549 
41344 
41184 
40992 
40829 
40727 
40629 
40594 
40615 
40646 
40714 
40768 
40861 
40947 
41067 
41191 
41279 
41415 
41607 
41829 
41999 
42158 
42332 
42525 
42743 
42913 
43143 
43391 
43587 
43767 
43992 
44264 
44545 
44806 
45044 
45307 
45568 
45869 
46174 
46428 
46640 
46858 
47032 
47213 
47435 
47626 
47816 
48008 
48222 
48402 
48502 
48495 
48550 
48664 
48848 
49025 
49123 
49225 
49312 
49382 
49449 
49570 
49645 
49725 
49806 
49861 
49938 
50015 
50081 
50215 
50346 
50479 
50636 
50740 
50793 
50879 
51007 
51154 
51291 
51359 
51434 
51507 
51630 
51777 
51937 
52039 
52148 
52264 
52354 
52449 
52558 
52672 
52764 
52778 
52841 
52975 
53106 
53181 
53245 
53357 
53500 
53610 
53687 
53769 
53857 
53895 
53964 
54041 
54132 
54198 
54232 
54243 
54287 
54359 
54464 
54497 
54504 
54540 
54576 
54588 
54611 
54621 
54639 
54660 
54627 
54623 
54611 
54612 
54641 
54667 
54661 
54634 
54592 
54596 
54585 
54560 
54525 
54531 
54565 
54611 
54632 
54647 
54657 
54631 
54570 
54505 
54454 
54512 
54535 
54503 
54501 
54476 
54403 
54382 
54353 
54286 
54287 
54321 
54274 
54263 
54249 
54275 
54266 
54238 
54210 
54156 
54117 
54093 
54109 
54068 
54002 
53943 
53901 
53883 
53908 
53964 
53977 
53933 
53879 
53861 
53831 
53802 
53792 
53762 
53775 
53780 
53724 
53641 
53548 
53511 
53504 
53507 
53526 
53575 
53584 
53573 
53551 
53472 
53416 
53368 
53271 
53177 
53070 
52840 
52539 
52214 
51833 
51379 
50945 
50489 
50014 
49493 
48918 
48311 
47694 
47109 
46541 
45957 
45351 
44806 
44260 
43726 
43226 
42732 
42284 
41884 
41497 
41155 
40891 
40693 
40485 
40276 
40112 
39994 
39943 
39925 
39968 
40024 
40104 
40172 
40243 
40309 
40438 
40622 
40791 
40934 
41120 
41340 
41548 
41779 
41992 
42203 
42417 
42695 
42996 
43259 
43452 
43721 
44035 
44287 
44556 
44783 
45061 
45367 
45630 
45916 
46222 
46494 
46670 
46775 
46958 
47200 
47423 
47526 
47655 
47778 
47911 
48053 
48210 
48326 
48412 
48476 
48491 
48573 
48625 
48662 
48724 
48761 
48797 
48870 
48969 
49073 
49095 
49101 
49178 
49239 
49313 
49474 
49631 
49763 
49858 
49999 
50158 
50251 
50344 
50428 
50564 
50730 
50940 
51122 
51210 
51326 
51465 
51637 
51807 
51893 
52000 
52112 
52255 
52448 
52574 
52691 
52817 
52952 
53109 
53254 
53343 
53462 
53590 
53706 
53811 
53854 
53976 
54087 
54157 
54271 
54383 
54469 
54478 
54540 
54701 
54847 
54903 
54959 
55011 
55104 
55199 
55289 
55337 
55396 
55428 
55513 
55590 
55650 
55666 
55669 
55695 
55742 
55788 
55795 
55801 
55824 
55811 
55773 
55731 
55695 
55655 
55634 
55593 
55592 
55597 
55638 
55612 
55558 
55519 
55494 
55452 
55442 
55404 
55391 
55374 
55314 
55277 
55220 
55148 
55137 
55137 
55128 
55084 
55099 
55132 
55091 
55064 
55054 
55032 
55035 
54970 
54857 
54846 
54853 
54799 
54745 
54719 
54666 
54614 
54523 
54482 
54439 
54407 
54370 
54346 
54296 
54248 
54211 
54164 
54048 
53922 
53727 
53504 
53229 
52861 
52401 
51895 
51332 
50767 
50177 
49518 
48916 
48268 
47624 
47007 
46375 
45751 
45074 
44456 
43888 
43310 
42762 
42281 
41879 
41476 
41092 
40767 
40487 
40235 
40056 
39904 
39826 
39760 
39692 
39664 
39673 
39721 
39792 
39840 
39914 
40088 
40284 
40470 
40630 
40815 
40949 
41142 
41335 
41494 
41687 
41890 
42113 
42327 
42564 
42844 
43164 
43400 
43617 
43904 
44194 
44480 
44686 
44913 
45197 
45484 
45780 
46037 
46269 
46511 
46754 
47009 
47291 
47493 
47671 
47885 
48060 
48201 
48325 
48462 
48636 
48772 
48913 
49023 
49040 
49128 
