27997 
27993 
27964 
27959 
27935 
27902 
27886 
27870 
27853 
27859 
27849 
27844 
27823 
27814 
27821 
27797 
27764 
27740 
27716 
27703 
27685 
27676 
27657 
27620 
27615 
27603 
27582 
27554 
27532 
27510 
27474 
27464 
27450 
27468 
27464 
27453 
27415 
27382 
27355 
27320 
27258 
27192 
27116 
27020 
26931 
26837 
26734 
26643 
26542 
26412 
26279 
26159 
26032 
25902 
25805 
25679 
25554 
25450 
25343 
25249 
25157 
25059 
24980 
24897 
24816 
24750 
24713 
24671 
24628 
24608 
24617 
24614 
24599 
24588 
24575 
24569 
24558 
24558 
24562 
24579 
24631 
24624 
24587 
24595 
24620 
24669 
24722 
24746 
24788 
24832 
24858 
24880 
24893 
24900 
24920 
24947 
25001 
25035 
25029 
25063 
25105 
25129 
25137 
25176 
25219 
25264 
25296 
25349 
25413 
25431 
25434 
25473 
25477 
25513 
25589 
25634 
25663 
25699 
25707 
25734 
25760 
25777 
25811 
25836 
25869 
25893 
25917 
25946 
25991 
26048 
26060 
26079 
26121 
26172 
26214 
26255 
26317 
26374 
26448 
26498 
26508 
26516 
26552 
26591 
26629 
26672 
26700 
26720 
26742 
26771 
26798 
26835 
26880 
26917 
26949 
26991 
27025 
27031 
27024 
27029 
27082 
27115 
27148 
27190 
27211 
27241 
27294 
27322 
27370 
27396 
27390 
27373 
27403 
27438 
27480 
27515 
27514 
27512 
27543 
27538 
27522 
27514 
27505 
27521 
27542 
27571 
27603 
27608 
27594 
27567 
27578 
27575 
27549 
27543 
27531 
27529 
27562 
27576 
27569 
27574 
27576 
27543 
27525 
27532 
27545 
27559 
27542 
27529 
27518 
27504 
27490 
27474 
27464 
27443 
27417 
27385 
27400 
27422 
27398 
27395 
27406 
27411 
27402 
27390 
27375 
27365 
27367 
27352 
27338 
27332 
27327 
27313 
27299 
27269 
27260 
27248 
27233 
27232 
27225 
27226 
27207 
27163 
27142 
27125 
27078 
27072 
27060 
27011 
26980 
26929 
26879 
26803 
26693 
26616 
26526 
26413 
26301 
26198 
26091 
25982 
25866 
25764 
25656 
25554 
25461 
25354 
25270 
25187 
25091 
25002 
24947 
24900 
24851 
24811 
24754 
24722 
24715 
24719 
24724 
24729 
24721 
24709 
24752 
24795 
24795 
24807 
24841 
24875 
24909 
24950 
25008 
25028 
25057 
25102 
25131 
25150 
25180 
25268 
25294 
25316 
25362 
25391 
25405 
25427 
25468 
25538 
25580 
25617 
25633 
25641 
25676 
25711 
25725 
25757 
25812 
25836 
25863 
25898 
25929 
25963 
25981 
25994 
26008 
26017 
25991 
25982 
25962 
25979 
26011 
26024 
26029 
26030 
26044 
26064 
26044 
26031 
26034 
26039 
26060 
26080 
26105 
26133 
26165 
26187 
26204 
26217 
26244 
26267 
26306 
26327 
26372 
26408 
26441 
26474 
26502 
26526 
26540 
26548 
26565 
26614 
26660 
26681 
26704 
26706 
26709 
26712 
26706 
26742 
26800 
26848 
26882 
26898 
26900 
26934 
26966 
26995 
27045 
27042 
27035 
27031 
27040 
27035 
27036 
27040 
27047 
27068 
27063 
27053 
27063 
27076 
27073 
27080 
27067 
27071 
27092 
27106 
27112 
27111 
27094 
27067 
27055 
27047 
27033 
27042 
27052 
27059 
27059 
27042 
27029 
27021 
27025 
27031 
27010 
27015 
27004 
27007 
27024 
27035 
27033 
27012 
26997 
27002 
27001 
27010 
27008 
27010 
27009 
27015 
27023 
27016 
26996 
26985 
26988 
26984 
26999 
26993 
26978 
26973 
26966 
26947 
26944 
26951 
26934 
26895 
26869 
26864 
26828 
26777 
26728 
26664 
26590 
26513 
26442 
26355 
26250 
26152 
26050 
25952 
25855 
25745 
25648 
25552 
25457 
25359 
25232 
25110 
25034 
24984 
24936 
24887 
24828 
24773 
24737 
24692 
24629 
24608 
24603 
24599 
24631 
24644 
24656 
24638 
24613 
24612 
24620 
24647 
24664 
24683 
24721 
24734 
24759 
24765 
24759 
24761 
24764 
24785 
24796 
24847 
24908 
24928 
24939 
24965 
24992 
25005 
25049 
25103 
25167 
25222 
25267 
25312 
25347 
25388 
25412 
25452 
25495 
25522 
25543 
25572 
25616 
25646 
25666 
25694 
25731 
25770 
25766 
25789 
25836 
25879 
25884 
25897 
25946 
25998 
26032 
26045 
26055 
26081 
26116 
26129 
26153 
26193 
26208 
26206 
26213 
26233 
26254 
26282 
26309 
26361 
26414 
26449 
26482 
26507 
26530 
26544 
26546 
26541 
26566 
26617 
26624 
26635 
26660 
26685 
26706 
26731 
26783 
26821 
26847 
26863 
26882 
26890 
26897 
26910 
26925 
26953 
26969 
27003 
27015 
27002 
26981 
26988 
27013 
27030 
27035 
27036 
27035 
27051 
27042 
27030 
27047 
27072 
27074 
27072 
27061 
27050 
27045 
27029 
27039 
27049 
27052 
27037 
27016 
27000 
26988 
26983 
26971 
26972 
26966 
26949 
26962 
26967 
26947 
26935 
26929 
26918 
26910 
26900 
26907 
26934 
26912 
26890 
26872 
26859 
26850 
26831 
26815 
26783 
26772 
26789 
26776 
26767 
26767 
26764 
26763 
26754 
26716 
26718 
26740 
26728 
26722 
26720 
26687 
26651 
26629 
26593 
26577 
26579 
26611 
26648 
26657 
26653 
26649 
26629 
26623 
26607 
26591 
26578 
26589 
26575 
26546 
26519 
26481 
26448 
26397 
26340 
26283 
26224 
26157 
26093 
26027 
25940 
25843 
25756 
25671 
25603 
25527 
25442 
25354 
25260 
25177 
25121 
25055 
24992 
24945 
24900 
24873 
24842 
24820 
24793 
24778 
24775 
24754 
24731 
24737 
24745 
24756 
24765 
24785 
24793 
24790 
24801 
24817 
24842 
24872 
24905 
24928 
24953 
24971 
24982 
24987 
25003 
25021 
25053 
25109 
25123 
25138 
25163 
25169 
25182 
25218 
25238 
25240 
25282 
25328 
25345 
25364 
25413 
25482 
25528 
25543 
25561 
25596 
25614 
25638 
25669 
25684 
25698 
25704 
25731 
25771 
25770 
25772 
25794 
25813 
25849 
25869 
25850 
25845 
25891 
25926 
25933 
25925 
25935 
25956 
25974 
26003 
26050 
26067 
26058 
26079 
26107 
26125 
26146 
26158 
26199 
26260 
26278 
26293 
26299 
26303 
26317 
26340 
26361 
26380 
26429 
26469 
26486 
26494 
26516 
26542 
26543 
26544 
26569 
26602 
26602 
26590 
26590 
26587 
26582 
26579 
26573 
26578 
26604 
26625 
26625 
26607 
26606 
26608 
26608 
26590 
26599 
26607 
26612 
26637 
26638 
26622 
26593 
26583 
26597 
26608 
26616 
26619 
26648 
26662 
26638 
26623 
26613 
26613 
26621 
26615 
26604 
26605 
26617 
26605 
26582 
26555 
26544 
26528 
26527 
26528 
26520 
26518 
26525 
26543 
26547 
26558 
26560 
26552 
26548 
26536 
26535 
26528 
26540 
26552 
26553 
26544 
26540 
26548 
26553 
26559 
26550 
26542 
26536 
26522 
26493 
26478 
26447 
26428 
26399 
26351 
26313 
26266 
26236 
26199 
26126 
26062 
25990 
25898 
25809 
25745 
25685 
25617 
25553 
25491 
25419 
25353 
25289 
25240 
25218 
25177 
25131 
25096 
25072 
25053 
25030 
25005 
24971 
24954 
24919 
24911 
24941 
24931 
24928 
24953 
24987 
25002 
25009 
25022 
25052 
25073 
25067 
25081 
25102 
25118 
25129 
25141 
25174 
25198 
25212 
25229 
25259 
25288 
25316 
25345 
25383 
25402 
25407 
25420 
25449 
25494 
25534 
25571 
25622 
25645 
25667 
25698 
25715 
25713 
25728 
25757 
25806 
25827 
25839 
25850 
25858 
25861 
25875 
25869 
25903 
25917 
25919 
25922 
25929 
25957 
25963 
25961 
25958 
25986 
26015 
26024 
26048 
26055 
26064 
26084 
26082 
26086 
26135 
26179 
26190 
26185 
26189 
26215 
26220 
26241 
26265 
26309 
26330 
26318 
26332 
26347 
26366 
26394 
26428 
26473 
26492 
26511 
26527 
26531 
26546 
26581 
26607 
26607 
26612 
26605 
26623 
26636 
26632 
26634 
26623 
26617 
26624 
26647 
26639 
26633 
26627 
26631 
26641 
26642 
26634 
26642 
26658 
26670 
26662 
26673 
26677 
26670 
26667 
26656 
26642 
26621 
26630 
26634 
26636 
26653 
26653 
26634 
26628 
26619 
26600 
26613 
26614 
26607 
26606 
26605 
26601 
26589 
26563 
26553 
26556 
26558 
26551 
26550 
26563 
26577 
26590 
26600 
26598 
26569 
26558 
26558 
26555 
26560 
26555 
26562 
26568 
26566 
26571 
26556 
26536 
26521 
26509 
26509 
26505 
26499 
26524 
26528 
26509 
26477 
26443 
26416 
26387 
26348 
26307 
26259 
26211 
26181 
26120 
26034 
25966 
25891 
25807 
25718 
25646 
25570 
25486 
25409 
25349 
25296 
25232 
25158 
25095 
25064 
25028 
24982 
24939 
24904 
24895 
24881 
24854 
24844 
24843 
24842 
24876 
24877 
24884 
24890 
24895 
24919 
24945 
24931 
24936 
24971 
25014 
25013 
24991 
24990 
25024 
25050 
25080 
25108 
25118 
25146 
25191 
25228 
25264 
25290 
25305 
25321 
25324 
25350 
25362 
25374 
25411 
25434 
25454 
25485 
25520 
25549 
25589 
25615 
25646 
25669 
25671 
25675 
25690 
25701 
25754 
25803 
25798 
25799 
25818 
25849 
25857 
25864 
25884 
25898 
25896 
25903 
25922 
25928 
25937 
25951 
25960 
25980 
26030 
26053 
26075 
26100 
26111 
26117 
26109 
26100 
26125 
26155 
26171 
26181 
26192 
26213 
26249 
26284 
26301 
26328 
26336 
26348 
26344 
26333 
26332 
26361 
26405 
26426 
26429 
26423 
26442 
26465 
26467 
26466 
26458 
26478 
26469 
26465 
26479 
26484 
26493 
26492 
26490 
26529 
26542 
26549 
26549 
26554 
26569 
26566 
26559 
26579 
26611 
26611 
26590 
26562 
26550 
26542 
26548 
26548 
26547 
26530 
26538 
26549 
26543 
26552 
26565 
26549 
26547 
26537 
26549 
26569 
26586 
26592 
26578 
26576 
26569 
26556 
26542 
26545 
26551 
26559 
26577 
26573 
26565 
26566 
26565 
26563 
26563 
26555 
26546 
26539 
26555 
26543 
26538 
26531 
26524 
26519 
26512 
26502 
26486 
26498 
26508 
26505 
26490 
26480 
26481 
26484 
26481 
26484 
26502 
26479 
26451 
26449 
26445 
26438 
26418 
26379 
26324 
26272 
26229 
26207 
26142 
26073 
26028 
25965 
25882 
25798 
25710 
25618 
25548 
25483 
25414 
25334 
25278 
25230 
25192 
25167 
25131 
25095 
25066 
25051 
25038 
25021 
24996 
24984 
24981 
24986 
24974 
24972 
24989 
25015 
25017 
25021 
25030 
25064 
25100 
25107 
25115 
25139 
25169 
25194 
25202 
25212 
25249 
25271 
25293 
25301 
25316 
25343 
25346 
25342 
25366 
25413 
25442 
25449 
25477 
25504 
25529 
25562 
25583 
25601 
25636 
25661 
25668 
25695 
25729 
25751 
25755 
25767 
25790 
25832 
25844 
25823 
25821 
25845 
25865 
25859 
25879 
25911 
25954 
25956 
25963 
25973 
25982 
25985 
25983 
25987 
25985 
26000 
26033 
26034 
26029 
26026 
26034 
26034 
26036 
26042 
26063 
26109 
26126 
26134 
26138 
26143 
26154 
26160 
26186 
26223 
26256 
26271 
26288 
26306 
26327 
26340 
26360 
26382 
26401 
26400 
26393 
26409 
26420 
26419 
26416 
26432 
26452 
26472 
26477 
26485 
26490 
26498 
26507 
26518 
26532 
26551 
26567 
26553 
26536 
26517 
26495 
26500 
26519 
26523 
26520 
26527 
26551 
26557 
26535 
26520 
26527 
26537 
26535 
26533 
26529 
26531 
26530 
26527 
26538 
26541 
26535 
26533 
26525 
26510 
26501 
26518 
26527 
26517 
26497 
26483 
26479 
26468 
26453 
26447 
26450 
26447 
26462 
26443 
26438 
26447 
26439 
26426 
26431 
26443 
26441 
26431 
26434 
26461 
26461 
26455 
26451 
26429 
26410 
26411 
26439 
26436 
26431 
26436 
26433 
26436 
26431 
26423 
26409 
26418 
26454 
26456 
26437 
26415 
26399 
26395 
26390 
26373 
26349 
26323 
26305 
26294 
26245 
26209 
26172 
26108 
26033 
25953 
25886 
25835 
25774 
25693 
25627 
25568 
25500 
25430 
25392 
25356 
25296 
25246 
25193 
25147 
25108 
25080 
25062 
25034 
25002 
24998 
25025 
25027 
25021 
25020 
25030 
25046 
25046 
25050 
25083 
25091 
25094 
25111 
25140 
25163 
25171 
25173 
25207 
25251 
25276 
25295 
25315 
25331 
25349 
25374 
25413 
25429 
25447 
25458 
25486 
25529 
25566 
25587 
25621 
25655 
25678 
25706 
25726 
25722 
25733 
25739 
25758 
25782 
25781 
25791 
25795 
25816 
25831 
25832 
25837 
25857 
25882 
25892 
25898 
25899 
25907 
25909 
25913 
25941 
25954 
25959 
25937 
25924 
25926 
25935 
25939 
25951 
25997 
25995 
25993 
26007 
26018 
26033 
26049 
26072 
26105 
26145 
26171 
26188 
26207 
26231 
26233 
26228 
26242 
26267 
26299 
26300 
26309 
26323 
26319 
26327 
26324 
26333 
26347 
26365 
26391 
26392 
26406 
26394 
26405 
26424 
26436 
26443 
26458 
26454 
26434 
26419 
26435 
26444 
26436 
26438 
26434 
26425 
26444 
26448 
26457 
26460 
26458 
26444 
26431 
26435 
26457 
26451 
26437 
26441 
26438 
26429 
26411 
26402 
26413 
26412 
26419 
26429 
26442 
26464 
26467 
26467 
26456 
26438 
26417 
26422 
26430 
26427 
26431 
26418 
26421 
26422 
26409 
26401 
26411 
26432 
26426 
26410 
26399 
26390 
26375 
26377 
26372 
26353 
26344 
26367 
26397 
26411 
26407 
26388 
26366 
26348 
26335 
26318 
26287 
26259 
26234 
26229 
26189 
26140 
26097 
26040 
25965 
25901 
25828 
25760 
25688 
25618 
25545 
25480 
25417 
25380 
25337 
25293 
25268 
25234 
25200 
25178 
25158 
25122 
25093 
25079 
25084 
25089 
25091 
25100 
25126 
25133 
25142 
25150 
25142 
25150 
25189 
25192 
25206 
25231 
25248 
25247 
25245 
25279 
25348 
25380 
25391 
25399 
25421 
25430 
25436 
25466 
25508 
25568 
25582 
25590 
25631 
25666 
25682 
25701 
25734 
25748 
25757 
25762 
25774 
25796 
25810 
25827 
25845 
25853 
25865 
25855 
25856 
25871 
25904 
25913 
25935 
25968 
25974 
25962 
25961 
25968 
25987 
25994 
26002 
26016 
26034 
26010 
25996 
25990 
26008 
26026 
26011 
26008 
26039 
26094 
26124 
26132 
26135 
26141 
26140 
26136 
26142 
26163 
26181 
26214 
26240 
26260 
26268 
26274 
26287 
26289 
26282 
26286 
26301 
26322 
26344 
26354 
26352 
26357 
26377 
26408 
26433 
26439 
26430 
26438 
26442 
26437 
26428 
26434 
26472 
26469 
26464 
26467 
26476 
26500 
26489 
26468 
26456 
26452 
26473 
26491 
26485 
26472 
26463 
26450 
26439 
26437 
26426 
26423 
26445 
26472 
26464 
26445 
26438 
26455 
26452 
26445 
26448 
26439 
26450 
26458 
26461 
26458 
26455 
26440 
26423 
26412 
26402 
26393 
26431 
26440 
26426 
26418 
26402 
26392 
26386 
26379 
26389 
26395 
26405 
26405 
26389 
26393 
26396 
26392 
26397 
26394 
26382 
26366 
26363 
26368 
26372 
26386 
26372 
26372 
26349 
26320 
26302 
26289 
26294 
26277 
26231 
26175 
26109 
26049 
25980 
25900 
25838 
25796 
25739 
25661 
25581 
25504 
25447 
25412 
25357 
25315 
25273 
25222 
25169 
25117 
25089 
25080 
25063 
25033 
25014 
25029 
25034 
25014 
25011 
25014 
25009 
25006 
25010 
25022 
25043 
25089 
25120 
25126 
25136 
25144 
25158 
25178 
25191 
25215 
25245 
25251 
25261 
25274 
25276 
25291 
25318 
25334 
25373 
25405 
25432 
25449 
25473 
25494 
25526 
25573 
25585 
25589 
25605 
25638 
25653 
25654 
25677 
25732 
25763 
25752 
25740 
25754 
25774 
25771 
25774 
25789 
25822 
25823 
25804 
25807 
25811 
25811 
25818 
25817 
25814 
25830 
25824 
25833 
25848 
25864 
25875 
25882 
25899 
25928 
25985 
26014 
26015 
26014 
26002 
25993 
26003 
26014 
26013 
26028 
26084 
26116 
26116 
26125 
26146 
26159 
26169 
26172 
26201 
26241 
26245 
26253 
26271 
26290 
26298 
26302 
26299 
26308 
26344 
26355 
26347 
26351 
26357 
26351 
26353 
26355 
26376 
26389 
26403 
26403 
26399 
26407 
26409 
26409 
26416 
26455 
26494 
26492 
26506 
26502 
26490 
26461 
26450 
26449 
26456 
26499 
26513 
26513 
26493 
26465 
26452 
26471 
26472 
26463 
26453 
26470 
26480 
26488 
26501 
26502 
26482 
26459 
26453 
26444 
26448 
26472 
26479 
26472 
26459 
26446 
26432 
26431 
26424 
26422 
26446 
26448 
26423 
26405 
26401 
26391 
26394 
26415 
26436 
26435 
26441 
26436 
26429 
26426 
26419 
26399 
26389 
26403 
26405 
26428 
26419 
26393 
26379 
26364 
26330 
26297 
26259 
26217 
26187 
26156 
26131 
26103 
26050 
25993 
25927 
25849 
25777 
25699 
25631 
25572 
25503 
25431 
25362 
25317 
25273 
25217 
25176 
25161 
25122 
25098 
25063 
25028 
25012 
25007 
25022 
25021 
25022 
25035 
25049 
25039 
25056 
25068 
25081 
25108 
25139 
25139 
25170 
25206 
25216 
25223 
25236 
25247 
25271 
25290 
25285 
25318 
25374 
25380 
25401 
25423 
25451 
25466 
25495 
25532 
25559 
25600 
25627 
25630 
25638 
25668 
25707 
25744 
25742 
25749 
25774 
25791 
25797 
25803 
25809 
25820 
25832 
25820 
25834 
25839 
25846 
25864 
25884 
25882 
25900 
25893 
25895 
25912 
25923 
25922 
25924 
25922 
25942 
25983 
25983 
25958 
25948 
25950 
25956 
25989 
26017 
26056 
26076 
26081 
26091 
26123 
26154 
26168 
26162 
26169 
26198 
26190 
26193 
26214 
26235 
26234 
26256 
26308 
26344 
26367 
26384 
26389 
26400 
26399 
26403 
26409 
26435 
26466 
26451 
26448 
26468 
26482 
26484 
26467 
26468 
26497 
26503 
26500 
26499 
26508 
26505 
26496 
26497 
26506 
26506 
26529 
26528 
26520 
26507 
26517 
26531 
26528 
26526 
26514 
26506 
26519 
26505 
26479 
26481 
26480 
26475 
26478 
26472 
26467 
26474 
26502 
26491 
26477 
26471 
26466 
26466 
26459 
26453 
26446 
26458 
26482 
26486 
26464 
26455 
26431 
26411 
26406 
26397 
26428 
26461 
26443 
26437 
26437 
26429 
26424 
26425 
26427 
26430 
26450 
26449 
26436 
26444 
26450 
26444 
26450 
26445 
26453 
26483 
26456 
26418 
26378 
26336 
26287 
26239 
26201 
26157 
26105 
26036 
25976 
25918 
25847 
25773 
25718 
25650 
25592 
25547 
25491 
25412 
25347 
25272 
25215 
25165 
25109 
25067 
25039 
25037 
25044 
25017 
25004 
25005 
25014 
25020 
25020 
25035 
25048 
25066 
25108 
25121 
25151 
25179 
25175 
25183 
25207 
25252 
25267 
25283 
25288 
25304 
25340 
25364 
25385 
25431 
25467 
25495 
25515 
25542 
25570 
25582 
25610 
25654 
25682 
25694 
25700 
25723 
25753 
25778 
25815 
25846 
25866 
25868 
25868 
25868 
25882 
25885 
25881 
25884 
25890 
25908 
25901 
25908 
25919 
25938 
25943 
25931 
25923 
25927 
25946 
25977 
25965 
25960 
25963 
25965 
25968 
25984 
25998 
26008 
26035 
26086 
26077 
26081 
26080 
26078 
26095 
26134 
26167 
26195 
26240 
26260 
26268 
26269 
26267 
26265 
26274 
26272 
26281 
26322 
26375 
26398 
26413 
26414 
26408 
26408 
26429 
26461 
26493 
26500 
26505 
26501 
26498 
26507 
26513 
26501 
26494 
26510 
26511 
26527 
26528 
26541 
26554 
26561 
26558 
26550 
26559 
26558 
26550 
26559 
26558 
26552 
26538 
26520 
26520 
26515 
26527 
26552 
26548 
26545 
26528 
26533 
26538 
26536 
26520 
26529 
26561 
26562 
26548 
26540 
26541 
26545 
26532 
26532 
26541 
26533 
26539 
26539 
26539 
26532 
26526 
26520 
26510 
26504 
26534 
26563 
26556 
26542 
26527 
26527 
26520 
26523 
26524 
26528 
26551 
26534 
26501 
26476 
26431 
26380 
26335 
26293 
26240 
26156 
26087 
26011 
25932 
25850 
25760 
25704 
25640 
25565 
25494 
25414 
25334 
25260 
25197 
25140 
25081 
25030 
24989 
24967 
24955 
24945 
24953 
24936 
24931 
24934 
24929 
24933 
24938 
24957 
25002 
25037 
25051 
25061 
25093 
25115 
25141 
25160 
25168 
25211 
25235 
25261 
25295 
25313 
25344 
25383 
25423 
25468 
25496 
25509 
25531 
25553 
25577 
25595 
25646 
25691 
25709 
25727 
25761 
25784 
25804 
25847 
25883 
25890 
25898 
25910 
25927 
25937 
25938 
25950 
26001 
26033 
26030 
26024 
26025 
26037 
26042 
26034 
26053 
26087 
26100 
26112 
26117 
26131 
26133 
26152 
26174 
26186 
26218 
26227 
26246 
26275 
26293 
26295 
26285 
26277 
26297 
26340 
26364 
26378 
26405 
26434 
26454 
26474 
26483 
26493 
26536 
26562 
26578 
26604 
26612 
26620 
26629 
26659 
26708 
26710 
26706 
26720 
26731 
26744 
26757 
26767 
26798 
26833 
26813 
26800 
26815 
26829 
26809 
26806 
26813 
26822 
26856 
26879 
26870 
26845 
26834 
26821 
26819 
26815 
26826 
26834 
26863 
26856 
26842 
26834 
26820 
26796 
26785 
26792 
26802 
26829 
26848 
26832 
26815 
26802 
26791 
26787 
26789 
26786 
26810 
26821 
26808 
26803 
26784 
26786 
26799 
26804 
26800 
26815 
26838 
26831 
26821 
26809 
26788 
26764 
26758 
26765 
26753 
26771 
26773 
26781 
26794 
26793 
26771 
26738 
26713 
26684 
26654 
26632 
26567 
26494 
26410 
26318 
26227 
26151 
26077 
25987 
25875 
25754 
25655 
25545 
25433 
25342 
25246 
25165 
25099 
25034 
24974 
24947 
24925 
24886 
24854 
24834 
24835 
24813 
24792 
24797 
24807 
24820 
24837 
24869 
24881 
24908 
24918 
24922 
24923 
24940 
24959 
25015 
25038 
25060 
25093 
25121 
25164 
25174 
25163 
25179 
25241 
25266 
25275 
25295 
25311 
25336 
25368 
25383 
25408 
25453 
25474 
25510 
25538 
25574 
25609 
25651 
25703 
25757 
25791 
25804 
25798 
25829 
25859 
25880 
25898 
25940 
25975 
25983 
25988 
25989 
26002 
26019 
26036 
26072 
26097 
26105 
26109 
26106 
26127 
26145 
26162 
26160 
26170 
26211 
26239 
26259 
26272 
26284 
26294 
26314 
26355 
26417 
26430 
26461 
26500 
26526 
26539 
26557 
26583 
26632 
26677 
26693 
26697 
26718 
26744 
26774 
26824 
26830 
26812 
26812 
26833 
26866 
26890 
26900 
26912 
26931 
26950 
26945 
26949 
26962 
26980 
27004 
27010 
27028 
27056 
27057 
27048 
27047 
27047 
27059 
27064 
27067 
27072 
27088 
27082 
27083 
27085 
27082 
27083 
27102 
27093 
27089 
27109 
27120 
27126 
27122 
27113 
27105 
27091 
27084 
27069 
27055 
27066 
27057 
27043 
27027 
27025 
27042 
27037 
27008 
26983 
26995 
26995 
26986 
26986 
26981 
26976 
26970 
26975 
26980 
27002 
27012 
26997 
26992 
26975 
26943 
26933 
26935 
26934 
26910 
26907 
26945 
26939 
26937 
26922 
26895 
26872 
26840 
26797 
26750 
26714 
26680 
26644 
26569 
26460 
26363 
26277 
26167 
26060 
25961 
25855 
25748 
25642 
25551 
25465 
25369 
25275 
25191 
25124 
25068 
25007 
24954 
24903 
24878 
24849 
24822 
24801 
24798 
24805 
24803 
24805 
24812 
24826 
24875 
24913 
24934 
24955 
24984 
25010 
25026 
25066 
25100 
25158 
25172 
25183 
25192 
25192 
25219 
25246 
25271 
25334 
25409 
25448 
25472 
25494 
25529 
25567 
25610 
25648 
25704 
25720 
25724 
25764 
25798 
25836 
25852 
25880 
25933 
25970 
25993 
25997 
26000 
25999 
25999 
26017 
26049 
26069 
26065 
26074 
26080 
26076 
26097 
26106 
26113 
26161 
26174 
26178 
26180 
26183 
26198 
26215 
26245 
26310 
26328 
26341 
26357 
26366 
26384 
26409 
26444 
26490 
26518 
26537 
26546 
26570 
26585 
26610 
26637 
26659 
26705 
26699 
26704 
26720 
26737 
26760 
26792 
26826 
26852 
26878 
26871 
26875 
26895 
26913 
26925 
26932 
26932 
26957 
26967 
26963 
26962 
26963 
26957 
26949 
26948 
26962 
26989 
27027 
27016 
27013 
27009 
26999 
26983 
26980 
26986 
27000 
27024 
27011 
26997 
26997 
27008 
27028 
27039 
27036 
27027 
27055 
27058 
27048 
27054 
27041 
27031 
27004 
26984 
26969 
26966 
26991 
26984 
26983 
26970 
26936 
26938 
26936 
26923 
26918 
26917 
26939 
26935 
26934 
26908 
26904 
26915 
26909 
26907 
26929 
26942 
26927 
26916 
26916 
26922 
26924 
26919 
26935 
26938 
26930 
26938 
26926 
26909 
26905 
26892 
26855 
26816 
26775 
26755 
26706 
26662 
26610 
26546 
26469 
26376 
26268 
26165 
26061 
25958 
25856 
25753 
25657 
25552 
25439 
25353 
25316 
25228 
25136 
25068 
25010 
24954 
24918 
24899 
24866 
24853 
24850 
24836 
24848 
24858 
24850 
24870 
24892 
24907 
24924 
24962 
25005 
25074 
25118 
25154 
25184 
25198 
25221 
25238 
25279 
25349 
25383 
25400 
25428 
25451 
25496 
25530 
25545 
25590 
25628 
25643 
25666 
25679 
25710 
25733 
25747 
25794 
25850 
25902 
25943 
25951 
25955 
25964 
25976 
26021 
26026 
26033 
26028 
26031 
26039 
26035 
26013 
26017 
26043 
26047 
26057 
26078 
26089 
26091 
26096 
26116 
26144 
26156 
26170 
26186 
26195 
26203 
26239 
26273 
26313 
26331 
26348 
26365 
26377 
26404 
26440 
26475 
26520 
26553 
26585 
26613 
26658 
26699 
26718 
26745 
26794 
26816 
26844 
26871 
26879 
26898 
26921 
26940 
26939 
26935 
26932 
26949 
26978 
26995 
27005 
27039 
27056 
27039 
27031 
27022 
27051 
27069 
27075 
27099 
27146 
27162 
27174 
27182 
27201 
27209 
27192 
27166 
27147 
27138 
27151 
27164 
27169 
27169 
27164 
27146 
27123 
27107 
27100 
27075 
27059 
27094 
27092 
27086 
27089 
27080 
27065 
27066 
27069 
27053 
27052 
27065 
27048 
27029 
27022 
27013 
27003 
26982 
26960 
26956 
26945 
26934 
26957 
26966 
26967 
26950 
26934 
26933 
26915 
26924 
26921 
26920 
26911 
26894 
26888 
26908 
26922 
26911 
26888 
26862 
26870 
26883 
26882 
26901 
26893 
26862 
26854 
26833 
26816 
26796 
26736 
26663 
26594 
26515 
26425 
26331 
26225 
26117 
26015 
25920 
25817 
25708 
25610 
25499 
25396 
25316 
25252 
25195 
25133 
25068 
25019 
24984 
24945 
24918 
24895 
24883 
24876 
24862 
24846 
24830 
24845 
24880 
24886 
24912 
24947 
24978 
25006 
25031 
25080 
25145 
25182 
25218 
25259 
25301 
25319 
25349 
25403 
25463 
25503 
25516 
25515 
25544 
25610 
25653 
25706 
25741 
25762 
25787 
25827 
25882 
25924 
25956 
25962 
25955 
25972 
25991 
26034 
26091 
26107 
26106 
26108 
26114 
26109 
26109 
26113 
26123 
26125 
26124 
26122 
26120 
26122 
26135 
26142 
26153 
26155 
26133 
26146 
26174 
26188 
26201 
26190 
26195 
26218 
26236 
26264 
26303 
26316 
26347 
26342 
26343 
26352 
26354 
26370 
26405 
26453 
26489 
26513 
26538 
26555 
26582 
26610 
26639 
26695 
26717 
26723 
26748 
26753 
26765 
26795 
26807 
26797 
26807 
26845 
26874 
26899 
26910 
26920 
26924 
26932 
26935 
26952 
26992 
27006 
27010 
27000 
26993 
26988 
26998 
27012 
27022 
27016 
27030 
27030 
27017 
27019 
27015 
27015 
27017 
27030 
27050 
27048 
27041 
27040 
27040 
27028 
27033 
27027 
27012 
27013 
26999 
26977 
26976 
26971 
26961 
26939 
26914 
26888 
26902 
26936 
26920 
26898 
26883 
26870 
26883 
26910 
26909 
26913 
26906 
26868 
26860 
26888 
26917 
26912 
26902 
26897 
26888 
26885 
26905 
26899 
26900 
26906 
26907 
26906 
26889 
26855 
26829 
26848 
26836 
26806 
26805 
26806 
26757 
26690 
26635 
26581 
26513 
26434 
26352 
26263 
26190 
26090 
25975 
25852 
25732 
25640 
25546 
25454 
25373 
25280 
25190 
25104 
25032 
24992 
24955 
24910 
24885 
24854 
24825 
24828 
24829 
24847 
24845 
24861 
24897 
24922 
24955 
25003 
25078 
25123 
25174 
25213 
25254 
25290 
25303 
25336 
25390 
25426 
25458 
25470 
25496 
25536 
25581 
25664 
25709 
25750 
25803 
25818 
25843 
25875 
25927 
25982 
26017 
26048 
26082 
26109 
26112 
26125 
26160 
26173 
26194 
26207 
26208 
26194 
26174 
26167 
26171 
26195 
26195 
26188 
26200 
26219 
26218 
26225 
26227 
26223 
26254 
26265 
26270 
26279 
26295 
26319 
26321 
26341 
26378 
26398 
26412 
26424 
26452 
26464 
26449 
26463 
26487 
26526 
26590 
26620 
26647 
26672 
26677 
26675 
26675 
26679 
26696 
26736 
26768 
26796 
26802 
26817 
26846 
26877 
26891 
26889 
26907 
26914 
26899 
26927 
26961 
26985 
27009 
27030 
27066 
27096 
27073 
27075 
27077 
27064 
27063 
27085 
27125 
27138 
27125 
27107 
27093 
27095 
27102 
27097 
27079 
27084 
27115 
27122 
27135 
27135 
27128 
27118 
27111 
27096 
27086 
27087 
27113 
27115 
27110 
27090 
27063 
27053 
27036 
27029 
27043 
27082 
27090 
27086 
27067 
27056 
27046 
27028 
27013 
26988 
26956 
26952 
26990 
26996 
26996 
26989 
26969 
26964 
26970 
26984 
26991 
26978 
26972 
26970 
26966 
26969 
26950 
26931 
26919 
26902 
26912 
26926 
26917 
26899 
26891 
26878 
26816 
26737 
26671 
26604 
26527 
26453 
26378 
26300 
26224 
26145 
26037 
25931 
25818 
25712 
25603 
25524 
25434 
25356 
25293 
25214 
25151 
25090 
25033 
25004 
24983 
24954 
24955 
24953 
24961 
24961 
24947 
24954 
24955 
24952 
24988 
25033 
25097 
25136 
25186 
25229 
25264 
25290 
25344 
25417 
25443 
25456 
25486 
25511 
25551 
25597 
25642 
25703 
25744 
25765 
25802 
25836 
25893 
25930 
25947 
26001 
26052 
26068 
26090 
26123 
26139 
26120 
26119 
26153 
26168 
26191 
26223 
26219 
26228 
26245 
26241 
26245 
26250 
26248 
26264 
26268 
26241 
26222 
26215 
26210 
26196 
26183 
26184 
26182 
26197 
26199 
26209 
26209 
26203 
26212 
26215 
26220 
26240 
26301 
26339 
26352 
26379 
26427 
26458 
26459 
26465 
26509 
26524 
26523 
26537 
26560 
26588 
26588 
26597 
26648 
26680 
26686 
26696 
26710 
26707 
26730 
26758 
26778 
26795 
26826 
26836 
26843 
26860 
26875 
26907 
26917 
26901 
26901 
26909 
26915 
26912 
26907 
26912 
26905 
26897 
26910 
26934 
26911 
26919 
26937 
26947 
26943 
26920 
26899 
26909 
26916 
26918 
26926 
26908 
26919 
26932 
26919 
26907 
26899 
26872 
26869 
26886 
26877 
26864 
26863 
26852 
26852 
26863 
26858 
26846 
26877 
26867 
26852 
26844 
26832 
26835 
26837 
26840 
26828 
26795 
26787 
26787 
26776 
26753 
26743 
26734 
26735 
26722 
26720 
26706 
26694 
26725 
26734 
26735 
26727 
26703 
26672 
26648 
26615 
26576 
26526 
26467 
26403 
26350 
26278 
26210 
26130 
26031 
25906 
25816 
25742 
25663 
25559 
25463 
25391 
25304 
25234 
25163 
25100 
25047 
24983 
24953 
24954 
24953 
24945 
24939 
24930 
24925 
24919 
24919 
24920 
24955 
25017 
25068 
25106 
25151 
25203 
25246 
25271 
25289 
25324 
25344 
25379 
25416 
25470 
25508 
25532 
25583 
25646 
25675 
25716 
25757 
25794 
25820 
25842 
25871 
25911 
25943 
25991 
26024 
26052 
26086 
26105 
26127 
26163 
26175 
26175 
26166 
26153 
26157 
26154 
26129 
26134 
26132 
26165 
26178 
26168 
26141 
26113 
26110 
26094 
26097 
26092 
26099 
26118 
26112 
26107 
26111 
26112 
26110 
26117 
26128 
26165 
26224 
26246 
26240 
26240 
26255 
26272 
26290 
26308 
26340 
26394 
26459 
26495 
26524 
26550 
26566 
26562 
26590 
26650 
26660 
26679 
26699 
26700 
26713 
26732 
26732 
26754 
26799 
26832 
26865 
26893 
26905 
26906 
26906 
26914 
26944 
26942 
26924 
26925 
26935 
26933 
26926 
26925 
26936 
26957 
26948 
26929 
26930 
26927 
26911 
26899 
26913 
26913 
26895 
26918 
26931 
26937 
26927 
26921 
26919 
26919 
26896 
26884 
26884 
26890 
26904 
26885 
26874 
26851 
26845 
26851 
26866 
26862 
26875 
26892 
26893 
26874 
26847 
26850 
26855 
26843 
26827 
26805 
26775 
26765 
26744 
26716 
26664 
26597 
26535 
26467 
26395 
26330 
26258 
26170 
26086 
25991 
25905 
25811 
25727 
25652 
25554 
25476 
25404 
25329 
25254 
25178 
25114 
25082 
25056 
25047 
25025 
25018 
25023 
25030 
25039 
25021 
25031 
25055 
25083 
25139 
25191 
25242 
25292 
25326 
25353 
25395 
25435 
25491 
25530 
25560 
25587 
25625 
25667 
25709 
25754 
25782 
25788 
25812 
25838 
25869 
25912 
25950 
25988 
26043 
26083 
26115 
26131 
26138 
26150 
26173 
26181 
26200 
26245 
26262 
26251 
26244 
26237 
26208 
26196 
26188 
26183 
26192 
26223 
26221 
26214 
26200 
26193 
26201 
26217 
26215 
26197 
26170 
26175 
26172 
26171 
26188 
26225 
26264 
26298 
26318 
26319 
26337 
26335 
26343 
26356 
26394 
26431 
26460 
26492 
26535 
26531 
26530 
26551 
26579 
26613 
26629 
26642 
26670 
26717 
26738 
26751 
26754 
26756 
26764 
26788 
26812 
26819 
26862 
26889 
26906 
26918 
26912 
26919 
26923 
26932 
26924 
26951 
26970 
26951 
26934 
26931 
26934 
26951 
26956 
26950 
26967 
27003 
26999 
26990 
26982 
26972 
26955 
26948 
26949 
26949 
26951 
26952 
26943 
26954 
26939 
26912 
26894 
26882 
26882 
26886 
26888 
26921 
26958 
26936 
26911 
26899 
26888 
26843 
26828 
26831 
26816 
26828 
26857 
26850 
26826 
26810 
26791 
26768 
26733 
26682 
26616 
26544 
26452 
26367 
26269 
26184 
26101 
25986 
25871 
25772 
25671 
25579 
25466 
25366 
25294 
25206 
25111 
25014 
24928 
24873 
24814 
24751 
24706 
24669 
24654 
24675 
24688 
24671 
24660 
24662 
24678 
24706 
24727 
24752 
24808 
24863 
24883 
24915 
24947 
24987 
25022 
25057 
25100 
25158 
25196 
25230 
25255 
25291 
25340 
25381 
25449 
25492 
25528 
25568 
25600 
25634 
25680 
25717 
25759 
25809 
25841 
25871 
25899 
25897 
25885 
25909 
25955 
26011 
26061 
26081 
26095 
26099 
26103 
26117 
26132 
26116 
26101 
26093 
26127 
26148 
26152 
26171 
26191 
26189 
26205 
26233 
26271 
26308 
26309 
26307 
26297 
26293 
26302 
26318 
26356 
26381 
26411 
26458 
26476 
26514 
26539 
26553 
26579 
26610 
26616 
26618 
26658 
26714 
26743 
26765 
26791 
26805 
26838 
26863 
26875 
26893 
26936 
26969 
26999 
27003 
26997 
26984 
27000 
27041 
27071 
27102 
27119 
27111 
27099 
27123 
27147 
27155 
27157 
27159 
27154 
27185 
27192 
27169 
27153 
27161 
27169 
27172 
27161 
27135 
27124 
27126 
27169 
27172 
27172 
27171 
27161 
27145 
27132 
27116 
27121 
27148 
27137 
27140 
27139 
27141 
27128 
27137 
27147 
27178 
27179 
27157 
27149 
27147 
27138 
27139 
27141 
27121 
27105 
27099 
27108 
27094 
27095 
27070 
27044 
27043 
27034 
27017 
27008 
26998 
26959 
26919 
26858 
26799 
26733 
26655 
26568 
26445 
26326 
26219 
26106 
26008 
25914 
25808 
25684 
25553 
25428 
25331 
25267 
25197 
25129 
25056 
24976 
24925 
24892 
24863 
24845 
24814 
24802 
24825 
24826 
24836 
24850 
24843 
24842 
24846 
24855 
24928 
25000 
25037 
25076 
25102 
25149 
25171 
25198 
25244 
25286 
25302 
25315 
25339 
25363 
25386 
25419 
25458 
25511 
25547 
25572 
25604 
25660 
25708 
25733 
25770 
25805 
25850 
25900 
25942 
25952 
25945 
25954 
26014 
26065 
26092 
26100 
26124 
26145 
26162 
26198 
26220 
26223 
26230 
26228 
26216 
26220 
26227 
26229 
26248 
26293 
26311 
26321 
26310 
26297 
26287 
26290 
26304 
26332 
26378 
26408 
26441 
26474 
26486 
26518 
26545 
26586 
26600 
26598 
26602 
26632 
26661 
26683 
26702 
26752 
26799 
26819 
26845 
26855 
26866 
26895 
26933 
26967 
26968 
26968 
26986 
27005 
27038 
27051 
27049 
27071 
27076 
27080 
27121 
27149 
27158 
27150 
27150 
27154 
27163 
27191 
27190 
27189 
27189 
27184 
27167 
27191 
27225 
27211 
27214 
27223 
27213 
27210 
27184 
27162 
27174 
27192 
27224 
27215 
27186 
27166 
27159 
27141 
27136 
27135 
27124 
27146 
27157 
27155 
27147 
27133 
27108 
27095 
27079 
27069 
27050 
27068 
27082 
27070 
27074 
27072 
27073 
27087 
27100 
27102 
27130 
27139 
27123 
27108 
27087 
27050 
27017 
26999 
26985 
26967 
26928 
26918 
26904 
26823 
26726 
26631 
26545 
26446 
26317 
26217 
26108 
26013 
25926 
25835 
25719 
25591 
25483 
25405 
25325 
25220 
25120 
25041 
24985 
24926 
24892 
24882 
24842 
24809 
24776 
24758 
24763 
24777 
24770 
24760 
24786 
24832 
24846 
24874 
24905 
24928 
24959 
24975 
24993 
25045 
25112 
25136 
25158 
25175 
25209 
25257 
25285 
25326 
25386 
25401 
25441 
25480 
25512 
25557 
25648 
25704 
25732 
25751 
25787 
25814 
25816 
25833 
25880 
25955 
25994 
26005 
26023 
26033 
26038 
26077 
26105 
26114 
26130 
26151 
26146 
26152 
26146 
26126 
26113 
26109 
26126 
26163 
26217 
26234 
26248 
26242 
26219 
26217 
26234 
26238 
26260 
26329 
26378 
26393 
26420 
26451 
26497 
26536 
26554 
26605 
26616 
26640 
26654 
26658 
26679 
26713 
26745 
26785 
26809 
26820 
26831 
26863 
26884 
26913 
26947 
26985 
26992 
26985 
27001 
27009 
27032 
27041 
27048 
27062 
27099 
27123 
27157 
27172 
27166 
27181 
27200 
27200 
27199 
27228 
27255 
27264 
27239 
27226 
27258 
27275 
27254 
27202 
27161 
27159 
27171 
27162 
27172 
27171 
27165 
27163 
27161 
27164 
27183 
27200 
27189 
27168 
27152 
27172 
27177 
27163 
27149 
27168 
27170 
27164 
27178 
27171 
27151 
27148 
27157 
27169 
27180 
27176 
27158 
27135 
27108 
27095 
27066 
27032 
27002 
26975 
26955 
26883 
26804 
26712 
26618 
26511 
26410 
26301 
26186 
26086 
25989 
25865 
25760 
25651 
25538 
25421 
25329 
25259 
25178 
25095 
25023 
24961 
24907 
24875 
24840 
24795 
24782 
24797 
24795 
24785 
24796 
24793 
24802 
24838 
24849 
24867 
24889 
24908 
24915 
24946 
24971 
25018 
25055 
25087 
25126 
25150 
25173 
25203 
25221 
25233 
25284 
25311 
25341 
25393 
25428 
25468 
25530 
25604 
25664 
25722 
25756 
25800 
25856 
25897 
25952 
25990 
26024 
26060 
26072 
26064 
26078 
26110 
26139 
26167 
26187 
26197 
26212 
26226 
26247 
26277 
26300 
26308 
26321 
26324 
26317 
26315 
26329 
26360 
26385 
26423 
26474 
26510 
26525 
26538 
26579 
26624 
26640 
26655 
26685 
26726 
26757 
26798 
26830 
26837 
26855 
26875 
26896 
26914 
26930 
26983 
27021 
27047 
27073 
27088 
27098 
27132 
27165 
27190 
27203 
27232 
27233 
27243 
27272 
27297 
27318 
27379 
27393 
27389 
27399 
27402 
27400 
27394 
27387 
27396 
27437 
27433 
27455 
27487 
27496 
27491 
27499 
27496 
27508 
27542 
27531 
27538 
27517 
27493 
27481 
27445 
27430 
27429 
27451 
27464 
27454 
27440 
27445 
27451 
27452 
27436 
27425 
27405 
27407 
27392 
27380 
27375 
27376 
27367 
27365 
27346 
27339 
27362 
27379 
27375 
27342 
27338 
27345 
27325 
27317 
27318 
27317 
27295 
27282 
27277 
27262 
27248 
27244 
27248 
27256 
27260 
27235 
27205 
27200 
27186 
27158 
27121 
27043 
26990 
26952 
26864 
26783 
26678 
26576 
26469 
26346 
26201 
26077 
25966 
25843 
25711 
25576 
25462 
25349 
25238 
25142 
25065 
24990 
24939 
24892 
24829 
24764 
24729 
24700 
24681 
24660 
24648 
24648 
24644 
24644 
24649 
24654 
24673 
24690 
24706 
24750 
24776 
24806 
24821 
24844 
24883 
24951 
24991 
25034 
25068 
25082 
25110 
25133 
25184 
25209 
25210 
25234 
25286 
25326 
25346 
25383 
25464 
25496 
25528 
25563 
25604 
25660 
25680 
25706 
25746 
25781 
25807 
25819 
25831 
25840 
25865 
25884 
25940 
25972 
25970 
25978 
25991 
26003 
26003 
26009 
26033 
26064 
26097 
26111 
26112 
26134 
26152 
26177 
26220 
26276 
26302 
26316 
26334 
26369 
26394 
26410 
26440 
26494 
26540 
26556 
26581 
26620 
26642 
26682 
26735 
26785 
26835 
26881 
26892 
26890 
26892 
26908 
26947 
26985 
27029 
27095 
27126 
27128 
27161 
27187 
27203 
27202 
27200 
27242 
27289 
27320 
27354 
27379 
27390 
27393 
27384 
27391 
27409 
27425 
27437 
27447 
27445 
27437 
27439 
27446 
27459 
27462 
27466 
27460 
27466 
27468 
27453 
27433 
27411 
27410 
27429 
27463 
27453 
27450 
27426 
27397 
27386 
27382 
27378 
27358 
27367 
27393 
27400 
27396 
27389 
27384 
27372 
27352 
27320 
27330 
27327 
27315 
27320 
27330 
27324 
27314 
27311 
27321 
27349 
27329 
27309 
27306 
27291 
27275 
27257 
27231 
27212 
27188 
27181 
27225 
27241 
27219 
27179 
27138 
27127 
27119 
27062 
27004 
26938 
26871 
26788 
26688 
26576 
26484 
26396 
26270 
26137 
26018 
25897 
25785 
25670 
25553 
25437 
25344 
25269 
25195 
25115 
25048 
24990 
24944 
24891 
24829 
24779 
24795 
24810 
24799 
24795 
24809 
24816 
24823 
24842 
24860 
24909 
24974 
24999 
25008 
24999 
25012 
25025 
25060 
25098 
25146 
25198 
25210 
25235 
25258 
25273 
25304 
25342 
25388 
25440 
25478 
25512 
25558 
25603 
25630 
25668 
25714 
25757 
25803 
25850 
25900 
25936 
25975 
25995 
26001 
26017 
26027 
26050 
26069 
26086 
26120 
26153 
26167 
26172 
26163 
26168 
26194 
26205 
26214 
26253 
26278 
26290 
26293 
26299 
26327 
26354 
26380 
26413 
26457 
26484 
26512 
26522 
26528 
26527 
26548 
26612 
26659 
26674 
26696 
26713 
26731 
26767 
26806 
26828 
26875 
26929 
26954 
26978 
27000 
27024 
27023 
27025 
27031 
27080 
27126 
27121 
27111 
27122 
27147 
27168 
27165 
27168 
27203 
27230 
27218 
27215 
27237 
27251 
27259 
27235 
27226 
27257 
27278 
27256 
27242 
27238 
27253 
27266 
27270 
27273 
27270 
27292 
27296 
27276 
27250 
27242 
27232 
27222 
27205 
27212 
27235 
27236 
27255 
27286 
27287 
27265 
27226 
27209 
27176 
27175 
27193 
27186 
27170 
27169 
27165 
27153 
27144 
27126 
27114 
27115 
27106 
27089 
27101 
27129 
27108 
27083 
27074 
27104 
27125 
27126 
27110 
27088 
27094 
27092 
27072 
27084 
27095 
27082 
27093 
27088 
27073 
27052 
27042 
27044 
27041 
27037 
27045 
27004 
26964 
26928 
26879 
26838 
26807 
26757 
26661 
26536 
26419 
26312 
26187 
26061 
25930 
25804 
25697 
25593 
25474 
25371 
25271 
25150 
25049 
24980 
24889 
24815 
24768 
24729 
24710 
24705 
24660 
24616 
24599 
24571 
24558 
24581 
24595 
24607 
24620 
24624 
24645 
24663 
24698 
24726 
24745 
24778 
24809 
24845 
24875 
24900 
24932 
24954 
24980 
25022 
25053 
25086 
25118 
25141 
25161 
25181 
25222 
25312 
25359 
25393 
25438 
25482 
25501 
25545 
25585 
25630 
25653 
25684 
25732 
25779 
25810 
25830 
25869 
25894 
25915 
25934 
25967 
25997 
26014 
26020 
26036 
26055 
26080 
26083 
26096 
26122 
26140 
26190 
26211 
26206 
26235 
26275 
26290 
26302 
26328 
26354 
26413 
26458 
26477 
26503 
26523 
26525 
26534 
26571 
26629 
26663 
26707 
26737 
26756 
26775 
26812 
26852 
26873 
26917 
26951 
26941 
26962 
27010 
27055 
27071 
27083 
27123 
27171 
27193 
27200 
27216 
27240 
27258 
27269 
27296 
27326 
27374 
27383 
27375 
27371 
27359 
27346 
27348 
27352 
27352 
27351 
27389 
27405 
27399 
27404 
27422 
27430 
27435 
27440 
27423 
27447 
27458 
27419 
27391 
27397 
27410 
27415 
27411 
27377 
27357 
27356 
27365 
27375 
27363 
27367 
27348 
27315 
27301 
27285 
27289 
27293 
27273 
27258 
27235 
27231 
27221 
27200 
27210 
27210 
27190 
27179 
27207 
27218 
27207 
27183 
27170 
27155 
27128 
27102 
27087 
27101 
27114 
27123 
27130 
27120 
27096 
27099 
27095 
27080 
27072 
27054 
27054 
27079 
27063 
27054 
27042 
27025 
27006 
26984 
26972 
26959 
26932 
26929 
26924 
26907 
26880 
26827 
26761 
26714 
26670 
26611 
26532 
26435 
26322 
26208 
26096 
25954 
25815 
25692 
25566 
25453 
25352 
25268 
25152 
25059 
24995 
24921 
24830 
24759 
24701 
24653 
24602 
24574 
24545 
24509 
24506 
24518 
24526 
24520 
24529 
24525 
24538 
24558 
24584 
24630 
24679 
24695 
24716 
24740 
24754 
24777 
24788 
24822 
24896 
24927 
24962 
25013 
25026 
25041 
25074 
25137 
25183 
25237 
25276 
25310 
25335 
25358 
25414 
25474 
25490 
25518 
25552 
25568 
25586 
25588 
25622 
25709 
25753 
25763 
25780 
25788 
25807 
25843 
25876 
25904 
25911 
25930 
25961 
25983 
26002 
26009 
25999 
25998 
26047 
26071 
26079 
26110 
26131 
26138 
26157 
26158 
26181 
26238 
26287 
26319 
26343 
26349 
26336 
26367 
26429 
26481 
26531 
26556 
26576 
26618 
26659 
26705 
26742 
26798 
26846 
26855 
26854 
26859 
26889 
26929 
26948 
26987 
27018 
27040 
27056 
27071 
27113 
27139 
27153 
27161 
27168 
27175 
27193 
27205 
27223 
27242 
27237 
27222 
27217 
27219 
27222 
27237 
27231 
27257 
27290 
27283 
27286 
27274 
27260 
27249 
27244 
27242 
27251 
27287 
27307 
27289 
27272 
27258 
27235 
27228 
27232 
27257 
27267 
27280 
27293 
27292 
27277 
27257 
27239 
27231 
27215 
27197 
27184 
27196 
27206 
27190 
27152 
27128 
27134 
27130 
27129 
27131 
27114 
27098 
27092 
27093 
27109 
27115 
27094 
27063 
27039 
27023 
27031 
27066 
27083 
27077 
27044 
27021 
27021 
27025 
27001 
26974 
26972 
26997 
27008 
26987 
26982 
26984 
26975 
26956 
26950 
26939 
26918 
26933 
26930 
26916 
26911 
26912 
26894 
26870 
26860 
26836 
26790 
26745 
26675 
26592 
26525 
26453 
26352 
26233 
26137 
26025 
25884 
25754 
25642 
25544 
25433 
25339 
25232 
25125 
24997 
24890 
24823 
24746 
24673 
24607 
24578 
24563 
24538 
24526 
24515 
24511 
24517 
24536 
24550 
24562 
24591 
24611 
24632 
24661 
24673 
24685 
24701 
24735 
24765 
24804 
24835 
24858 
24877 
24897 
24946 
24973 
24984 
25044 
25093 
25157 
25206 
25240 
25272 
25323 
25404 
25444 
25478 
25504 
25524 
25574 
25600 
25633 
25674 
25757 
25787 
25825 
25872 
25878 
25883 
25893 
25908 
25948 
25982 
25982 
25986 
26000 
26021 
26053 
26071 
26084 
26112 
26134 
26129 
26121 
26124 
26141 
26154 
26162 
26174 
26203 
26236 
26255 
26267 
26254 
26279 
26325 
26351 
26379 
26397 
26421 
26441 
26491 
26541 
26578 
26627 
26650 
26673 
26731 
26774 
26801 
26803 
26804 
26816 
26834 
26841 
26843 
26882 
26941 
26976 
27003 
26992 
26992 
26998 
27019 
27073 
27112 
27132 
27151 
27168 
27173 
27183 
27211 
27248 
27229 
27210 
27188 
27177 
27166 
27178 
27185 
27178 
27189 
27204 
27201 
27216 
27211 
27181 
27168 
27160 
27146 
27137 
27159 
27202 
27198 
27182 
27165 
27154 
27164 
27164 
27147 
27152 
27173 
27184 
27173 
27154 
27126 
27109 
27120 
27114 
27108 
27095 
27088 
27070 
27041 
27050 
27041 
27019 
27002 
26996 
26987 
26997 
27015 
27011 
27001 
26999 
27012 
27015 
27001 
26956 
26932 
26934 
26950 
26944 
26949 
26945 
26919 
26894 
26880 
26867 
26860 
26863 
26874 
26862 
26834 
26825 
26834 
26823 
26826 
26828 
26836 
26859 
26869 
26854 
26849 
26850 
26849 
26829 
26787 
26761 
26728 
26678 
26633 
26573 
26522 
26455 
26373 
26274 
26177 
26073 
25979 
25868 
25754 
25645 
25532 
25441 
25358 
25263 
25169 
25064 
24971 
24911 
24885 
24831 
24771 
24716 
24671 
24648 
24640 
24623 
24606 
24588 
24583 
24614 
24666 
24689 
24697 
24706 
24730 
24765 
24818 
24868 
24932 
24956 
25006 
25058 
25069 
25093 
25128 
25181 
25230 
25257 
25280 
25293 
25325 
25360 
25392 
25412 
25464 
25490 
25515 
25547 
25572 
25599 
25647 
25723 
25767 
25781 
25805 
25839 
25853 
25862 
25864 
25870 
25904 
25911 
25914 
25914 
25919 
25927 
25937 
25921 
25927 
25949 
25951 
25953 
25971 
25970 
25960 
25981 
25996 
26040 
26088 
26097 
26114 
26132 
26156 
26159 
26173 
26188 
26218 
26272 
26289 
26306 
26344 
26379 
26391 
26403 
26436 
26475 
26531 
26568 
26574 
26588 
26614 
26657 
26682 
26708 
26765 
26786 
26803 
26817 
26809 
26825 
26848 
26853 
26857 
26888 
26921 
26943 
26959 
26971 
26991 
27001 
26999 
27008 
27006 
27006 
26988 
26981 
26982 
26982 
27005 
27002 
26984 
26958 
26935 
26935 
26934 
26931 
26918 
26936 
26931 
26938 
26944 
26942 
26926 
26916 
26927 
26946 
26942 
26919 
26911 
26903 
26878 
26862 
26847 
26855 
26880 
26905 
26933 
26936 
26919 
26908 
26895 
26873 
26874 
26872 
26854 
26859 
26879 
26861 
26840 
26820 
26819 
26824 
26810 
26793 
26762 
26741 
26746 
26749 
26766 
26745 
26726 
26720 
26730 
26736 
26726 
26692 
26671 
26655 
26666 
26661 
26649 
26647 
26635 
26629 
26612 
26575 
26523 
26479 
26440 
26377 
26301 
26245 
26171 
26089 
25981 
25877 
25782 
25666 
25566 
25473 
25386 
25301 
25215 
25137 
25062 
25000 
24953 
24894 
24844 
24793 
24750 
24698 
24646 
24619 
24623 
24630 
24630 
24634 
24669 
24687 
24691 
24690 
24703 
24736 
24784 
24832 
24861 
24904 
24947 
24981 
25020 
25047 
25077 
25095 
25128 
25171 
25252 
25301 
25344 
25380 
25428 
25456 
25477 
25511 
25594 
25631 
25653 
25668 
25692 
25703 
25740 
25765 
25803 
25864 
25903 
25923 
25930 
25948 
25965 
25977 
25991 
26014 
26031 
26034 
26030 
26027 
26030 
26050 
26044 
26041 
26070 
26082 
26091 
26113 
26143 
26149 
26144 
26154 
26179 
26218 
26237 
26246 
26263 
26284 
26312 
26352 
26392 
26422 
26445 
26458 
26464 
26485 
26514 
26552 
26594 
26610 
26626 
26651 
26665 
26669 
26685 
26703 
26736 
26758 
26745 
26727 
26760 
26807 
26801 
26786 
26789 
26823 
26824 
26813 
26824 
26844 
26858 
26862 
26885 
26893 
26871 
26836 
26820 
26819 
26818 
26806 
26809 
26816 
26856 
26883 
26858 
26855 
26856 
26862 
26860 
26860 
26831 
26810 
26820 
26832 
26820 
26824 
26819 
26797 
26796 
26811 
26811 
26814 
26854 
26847 
26836 
26833 
26832 
26842 
26818 
26804 
26805 
26786 
26774 
26802 
26805 
26793 
26801 
26802 
26799 
26805 
26813 
26849 
26868 
26857 
26860 
26874 
26863 
26836 
26846 
26854 
26837 
26829 
26854 
26864 
26868 
26867 
26888 
26898 
26874 
26859 
26849 
26887 
26902 
26882 
26854 
26823 
26819 
26832 
26841 
26843 
26853 
26870 
26870 
26875 
26878 
26867 
26848 
26821 
26817 
26816 
26831 
26817 
26792 
26752 
26725 
26697 
26650 
26565 
26509 
26446 
26374 
26280 
26174 
26074 
25973 
25858 
25753 
25670 
25600 
25507 
25431 
25338 
25227 
25128 
25040 
24979 
24927 
24863 
24805 
24739 
24672 
24629 
24611 
24578 
24596 
24587 
24577 
24556 
24518 
24488 
24488 
24485 
24488 
24500 
24521 
24518 
24505 
24485 
24480 
24489 
24486 
24484 
24512 
24549 
24591 
24609 
24610 
24615 
24639 
24664 
24686 
24711 
24738 
24741 
24759 
24769 
24786 
24805 
24843 
24879 
24887 
24932 
24975 
25014 
25079 
25118 
25150 
25172 
25211 
25268 
25306 
25335 
25349 
25361 
25403 
25457 
25511 
25560 
25582 
25614 
25652 
25719 
25771 
25823 
25874 
25902 
25928 
25973 
26005 
26021 
26059 
26099 
26132 
26165 
26184 
26209 
26230 
26250 
26301 
26342 
26361 
26387 
26416 
26436 
26451 
26481 
26537 
26610 
26643 
26662 
26676 
26678 
26685 
26707 
26741 
26795 
26821 
26844 
26873 
26893 
26890 
26898 
26907 
26924 
26947 
26971 
26981 
26983 
26964 
26968 
26946 
26916 
26897 
26894 
26921 
26920 
26896 
26878 
26855 
26833 
26794 
26760 
26747 
26719 
26678 
26663 
26650 
26611 
26572 
26544 
26529 
26527 
26504 
26480 
26454 
26444 
26450 
26440 
26392 
26355 
26336 
26313 
26292 
26281 
26273 
26253 
26252 
26270 
26288 
26302 
26294 
26281 
26258 
26243 
26244 
26254 
26276 
26286 
26296 
26287 
26267 
26235 
26243 
26283 
26314 
26350 
26384 
26396 
26390 
26366 
26362 
26391 
26412 
26428 
26450 
26458 
26464 
26487 
26508 
26526 
26553 
26582 
26635 
26657 
26679 
26701 
26726 
26732 
26723 
26742 
26811 
26862 
26873 
26888 
26916 
26928 
26947 
26958 
26968 
27020 
27045 
27078 
27093 
27091 
27111 
27144 
27156 
27154 
27181 
27215 
27229 
27254 
27281 
27281 
27299 
27324 
27368 
27393 
27422 
27446 
27450 
27439 
27441 
27438 
27422 
27418 
27447 
27468 
27466 
27473 
27484 
27489 
27500 
27511 
27512 
27491 
27497 
27520 
27502 
27497 
27502 
27519 
27513 
27484 
27471 
27476 
27484 
27475 
27483 
27494 
27491 
27495 
27483 
27463 
27486 
27501 
27495 
27494 
27501 
27471 
27443 
27429 
27413 
27403 
27430 
27454 
27438 
27419 
27410 
27399 
27390 
27389 
27365 
27338 
27359 
27366 
27353 
27365 
27365 
27369 
27368 
27358 
27333 
27343 
27361 
27343 
27332 
27298 
27290 
27291 
27300 
27296 
27282 
27278 
27255 
27287 
27309 
27275 
27240 
27217 
27185 
27177 
27180 
27180 
27172 
27145 
27133 
27159 
27183 
27167 
27132 
27091 
27069 
27040 
27020 
27012 
26994 
26999 
27029 
27021 
27007 
26988 
26971 
26952 
26927 
26939 
26966 
26958 
26932 
26944 
26942 
26919 
26885 
26885 
26880 
26867 
26902 
26905 
26873 
26875 
26878 
26874 
26853 
26834 
26836 
26821 
26813 
26805 
26783 
26763 
26758 
26762 
26761 
26748 
26734 
26717 
26723 
26704 
26690 
26688 
26671 
26651 
26641 
26637 
26639 
26647 
26658 
26648 
26629 
26626 
26616 
26598 
26593 
26592 
26599 
26625 
26646 
26617 
26594 
26597 
26602 
26606 
26609 
26582 
26560 
26567 
26578 
26599 
26583 
26560 
26550 
26548 
26554 
26554 
26532 
26517 
26518 
26503 
26496 
26483 
26474 
26490 
26481 
26464 
26448 
26451 
26429 
26419 
26427 
26417 
26406 
26412 
26409 
26399 
26424 
26431 
26439 
26447 
26446 
26441 
26417 
26399 
26389 
26391 
26388 
26392 
26404 
26406 
26406 
26399 
26384 
26371 
26399 
26410 
26411 
26412 
26416 
26416 
26406 
26379 
26372 
26394 
26399 
26403 
26399 
26390 
26377 
26364 
26362 
26368 
26374 
26366 
26372 
26386 
26378 
26363 
26356 
26359 
26353 
26342 
26354 
26359 
26361 
26346 
26328 
26322 
26318 
26332 
26363 
26344 
26348 
26357 
26349 
26339 
26302 
26267 
26251 
26231 
26255 
26278 
26277 
26269 
26266 
26272 
26260 
26243 
26244 
26259 
26271 
26255 
26233 
26227 
26231 
26228 
26228 
26233 
26214 
26190 
26204 
26216 
26202 
26180 
26174 
26162 
26160 
26165 
26198 
26237 
26236 
26209 
26187 
26158 
26130 
26123 
26124 
26129 
26148 
26202 
26216 
26213 
26203 
26202 
26193 
26189 
26189 
26176 
26167 
26175 
26178 
26186 
26184 
26182 
26190 
26181 
26176 
26193 
26200 
26176 
26183 
26175 
26160 
26172 
26190 
26191 
26179 
26170 
26167 
26177 
26182 
26185 
26162 
26146 
26141 
26121 
26125 
26154 
26210 
26204 
26187 
26184 
26195 
26180 
26186 
26168 
26198 
26232 
26211 
26187 
26173 
26191 
26188 
26171 
26169 
26177 
26220 
26251 
26235 
26213 
26211 
26183 
26161 
26171 
26194 
26206 
26228 
26233 
26207 
26214 
26213 
26211 
26213 
26213 
26204 
26190 
26171 
26193 
26197 
26189 
26181 
26174 
26184 
26209 
26208 
26192 
26187 
26205 
26203 
26194 
26195 
26205 
26211 
26189 
26174 
26161 
26152 
26165 
26171 
26176 
26171 
26169 
26166 
26154 
26167 
26182 
26201 
26212 
26213 
26192 
26177 
26177 
26176 
26171 
26177 
26191 
26206 
26211 
26185 
26154 
26151 
26149 
26160 
26151 
26137 
26139 
26146 
26157 
26170 
26159 
26146 
26127 
26120 
26120 
26114 
26095 
26075 
26092 
26109 
26122 
26135 
26120 
26111 
26103 
26086 
26099 
26128 
26120 
26111 
26102 
26093 
26095 
26104 
26098 
26086 
26087 
26080 
26087 
26101 
26108 
26122 
26122 
26113 
26115 
26108 
26109 
26107 
26120 
26129 
26136 
26120 
26110 
26119 
26115 
26108 
26114 
26128 
26118 
26109 
26106 
26113 
26114 
26105 
26107 
26112 
26127 
26135 
26140 
26131 
26105 
26088 
26090 
26093 
26082 
26076 
26109 
26124 
26120 
26115 
26116 
26121 
26122 
26110 
26110 
26124 
26123 
26132 
26146 
26151 
26129 
26135 
26143 
26123 
26096 
26104 
26122 
26119 
26137 
26151 
26143 
26122 
26111 
26136 
26160 
26149 
26139 
26134 
26119 
26095 
26109 
26131 
26136 
26122 
26115 
26117 
26103 
26096 
26101 
26100 
26098 
26118 
26133 
26126 
26126 
26123 
26111 
26107 
26106 
26099 
26080 
26088 
26114 
26114 
26105 
26101 
26101 
26098 
26102 
26102 
26088 
26070 
26103 
26128 
26137 
26129 
26114 
26124 
26122 
26115 
26121 
26151 
26172 
26175 
26175 
26169 
26157 
26150 
26148 
26159 
26175 
26183 
26177 
26156 
26141 
26157 
26151 
26129 
26125 
26108 
26112 
26140 
26135 
26129 
26114 
26120 
26137 
26125 
26106 
26100 
26110 
26131 
26132 
26137 
26128 
26114 
26108 
26098 
26100 
26116 
26129 
26111 
26092 
26093 
26093 
26077 
26064 
26064 
26069 
26079 
26113 
26130 
26121 
26104 
26108 
26116 
26104 
26078 
26066 
26103 
26099 
26083 
26084 
26107 
26110 
26098 
26098 
26103 
26121 
26123 
26119 
26110 
26093 
26081 
26055 
26033 
26042 
26074 
26095 
26105 
26115 
26110 
26103 
26093 
26078 
26071 
26084 
26095 
26118 
26106 
26097 
26110 
26124 
26131 
26127 
26111 
26089 
26072 
26092 
26129 
26134 
26129 
26109 
26094 
26099 
26086 
26074 
26062 
26070 
26103 
26094 
26081 
26077 
26062 
26069 
26064 
26075 
26067 
26047 
26056 
26057 
26066 
26075 
26077 
26084 
26075 
26057 
26082 
26111 
26102 
26108 
26101 
26082 
26079 
26079 
26073 
26090 
26111 
26102 
26094 
26092 
26096 
26103 
26104 
26100 
26092 
26108 
26132 
26131 
26126 
26101 
26086 
26074 
26064 
26060 
26051 
26071 
26082 
26084 
26081 
26071 
26080 
26088 
26080 
26077 
26095 
26090 
26071 
26051 
26037 
26052 
26067 
26076 
26074 
26091 
26098 
26083 
26085 
26084 
26084 
26083 
26077 
26068 
26063 
26053 
26076 
26079 
26069 
26065 
26054 
26070 
26092 
26065 
26029 
26033 
26065 
26080 
26076 
26082 
26084 
26079 
26083 
26092 
26112 
26112 
26109 
26098 
26099 
26100 
26076 
26065 
26061 
26060 
26073 
26084 
26080 
26069 
26067 
26078 
26075 
26063 
26070 
26092 
26100 
26101 
26075 
26064 
26066 
26062 
26064 
26043 
26051 
26065 
26060 
26075 
26086 
26080 
26078 
26048 
26031 
26038 
26044 
26060 
26050 
26051 
26050 
26044 
26038 
26031 
26044 
26064 
26067 
26054 
26028 
26026 
26050 
26050 
26053 
26059 
26074 
26074 
26080 
26071 
26086 
26089 
26075 
26069 
26054 
26063 
26075 
26075 
26074 
26089 
26092 
26093 
26077 
26061 
26070 
26100 
26112 
26100 
26084 
26074 
26054 
26042 
26042 
26069 
26064 
26058 
26055 
26055 
26033 
26003 
26001 
26015 
26038 
26045 
26032 
26009 
25994 
25996 
26006 
26000 
25994 
26002 
26031 
26034 
26018 
26006 
25992 
25991 
25988 
25992 
25982 
25999 
26027 
26017 
25998 
25981 
25981 
25978 
25978 
25981 
25991 
26021 
26038 
26048 
26045 
26028 
26027 
26023 
26020 
26030 
26031 
26023 
26002 
25989 
26001 
26005 
26003 
25987 
25999 
26017 
26009 
26016 
26019 
26009 
26003 
25989 
25981 
25993 
26021 
26023 
26022 
26012 
26003 
25987 
25974 
25972 
25987 
25998 
25984 
25978 
25981 
25987 
25991 
25991 
25977 
25970 
25989 
26006 
26006 
26009 
25989 
25962 
25952 
25936 
25935 
25956 
25967 
25961 
25966 
25976 
25975 
25962 
25965 
25960 
25946 
25967 
25978 
25979 
25977 
25977 
25969 
25977 
25991 
25994 
25997 
25996 
26013 
26015 
26006 
25994 
25981 
25978 
25993 
26004 
26009 
26029 
26021 
26020 
26014 
25990 
25969 
25974 
26000 
25999 
25999 
25997 
25983 
25996 
25988 
25989 
25997 
26023 
26026 
26006 
25993 
25992 
25985 
25979 
25984 
25991 
26018 
26028 
26021 
26014 
26011 
26014 
26010 
25996 
25986 
26001 
26005 
26002 
25983 
25981 
25992 
25984 
25981 
25975 
25995 
25998 
25975 
25954 
25959 
25968 
25974 
25975 
25977 
25993 
26013 
26015 
26007 
25994 
26004 
26004 
26003 
25974 
25946 
25948 
25964 
25956 
25947 
25955 
25959 
25961 
25955 
25961 
25985 
25966 
25970 
25968 
25966 
25971 
25965 
25964 
25951 
25945 
25974 
25986 
25977 
25970 
25956 
25949 
25944 
25942 
25945 
25957 
25942 
25938 
25940 
25943 
25961 
25972 
25973 
25955 
25944 
25965 
25977 
25974 
25978 
25975 
25951 
25942 
25931 
25926 
25953 
25984 
25989 
25971 
25959 
25951 
25941 
25942 
25936 
25920 
25941 
25948 
25940 
25945 
25966 
25975 
25960 
25945 
25931 
25926 
25940 
25972 
25966 
25963 
25966 
25947 
25924 
25919 
25925 
25951 
25971 
25982 
25974 
25954 
25938 
25945 
25938 
25937 
25953 
25959 
25958 
25961 
25959 
25952 
25940 
25936 
25925 
25939 
25965 
25955 
25963 
25967 
25961 
25956 
25959 
25951 
25956 
25983 
25988 
25986 
25988 
25983 
25967 
25960 
25962 
25968 
25969 
25981 
25977 
25970 
25968 
25970 
25958 
25950 
25954 
25950 
25958 
25945 
25935 
25944 
25939 
25943 
25951 
25946 
25936 
25937 
25953 
25942 
25933 
25927 
25923 
25937 
25946 
25936 
25934 
25929 
25929 
25925 
25914 
25922 
25939 
25937 
25936 
25940 
25955 
25961 
25961 
25957 
25957 
25944 
25935 
25945 
25947 
25954 
25978 
25981 
25975 
25954 
25932 
25922 
25916 
25913 
25908 
25920 
25940 
25952 
25954 
25943 
25951 
25946 
25937 
25941 
25958 
25948 
25949 
25953 
25945 
25945 
25938 
25927 
25928 
25955 
25955 
25945 
25952 
25956 
25928 
25910 
25915 
25922 
25922 
25923 
25932 
25938 
25943 
25936 
25923 
25902 
25898 
25905 
25915 
25926 
25942 
25944 
25942 
25935 
25920 
25915 
25915 
25928 
25944 
25942 
25942 
25938 
25931 
25923 
25933 
25940 
25926 
25933 
25930 
25930 
25930 
25925 
25908 
25904 
25901 
25896 
25904 
25918 
25923 
25924 
25919 
25925 
25927 
25912 
25899 
25911 
25935 
25945 
25942 
25934 
25925 
25915 
25906 
25900 
25917 
25942 
25937 
25934 
25939 
25935 
25929 
25933 
25923 
25913 
25919 
25917 
25893 
25874 
25867 
25872 
25868 
25872 
25877 
25887 
25897 
25894 
25891 
25908 
25906 
25901 
25898 
25902 
25911 
25930 
25922 
25929 
25942 
25940 
25930 
25927 
25915 
25912 
25907 
25924 
25925 
25922 
25914 
25898 
25893 
25887 
25884 
25886 
25893 
25898 
25890 
25895 
25900 
25893 
25901 
25904 
25910 
25904 
25920 
25923 
25924 
25912 
25899 
25896 
25896 
25900 
25908 
25919 
25928 
25926 
25922 
25922 
25909 
25901 
25891 
25878 
25878 
25899 
25904 
25897 
25893 
25905 
25900 
25890 
25876 
25887 
25914 
25909 
25913 
25912 
25907 
25902 
25875 
25875 
25884 
25881 
25903 
25916 
25905 
25897 
25898 
25899 
25909 
25895 
25908 
25941 
25929 
25919 
25923 
25929 
25930 
25928 
25907 
25862 
25842 
25856 
25874 
25876 
25879 
25889 
25891 
25887 
25883 
25879 
25891 
25919 
25918 
25904 
25898 
25903 
25896 
25890 
25891 
25881 
25881 
25891 
25870 
25855 
25863 
25877 
25901 
25906 
25888 
25877 
25875 
25906 
25900 
25888 
25879 
25867 
25844 
25833 
25837 
25836 
25852 
25870 
25864 
25846 
25835 
25839 
25838 
25835 
25836 
25834 
25836 
25856 
25850 
25835 
25833 
25840 
25849 
25863 
25873 
25889 
25893 
25879 
25871 
25860 
25852 
25848 
25839 
25849 
25854 
25856 
25863 
25854 
25842 
25850 
25848 
25848 
25839 
25846 
25856 
25852 
25866 
25863 
25849 
25844 
25822 
25798 
25805 
25807 
25791 
25788 
25788 
25797 
25791 
25768 
25757 
25751 
25774 
25779 
25764 
25760 
25742 
25730 
25718 
25717 
25718 
25711 
25729 
25728 
25724 
25711 
25705 
25701 
25680 
25669 
25674 
25685 
25695 
25692 
25685 
25689 
25687 
25690 
25698 
25714 
25709 
25701 
25698 
25689 
25674 
25666 
25673 
25678 
25694 
25696 
25703 
25706 
25705 
25706 
25708 
25715 
25707 
25729 
25722 
25700 
25692 
25704 
25720 
25730 
25729 
25708 
25697 
25741 
25771 
25777 
25772 
25763 
25753 
25739 
25744 
25760 
25779 
25777 
25787 
25784 
25781 
25770 
25753 
25739 
25742 
25758 
25767 
25765 
25769 
25773 
25791 
25804 
25797 
25789 
25766 
25772 
25792 
25806 
25820 
25815 
25817 
25808 
25805 
25808 
25820 
25831 
25827 
25830 
25819 
25806 
25803 
25801 
25805 
25835 
25852 
25866 
25856 
25843 
25844 
25854 
25866 
25852 
25852 
25871 
25864 
25864 
25870 
25867 
25851 
25862 
25873 
25892 
25902 
25889 
25895 
25903 
25881 
25874 
25881 
25875 
25878 
25908 
25926 
25916 
25912 
25927 
25932 
25918 
25918 
25911 
25888 
25905 
25926 
25927 
25926 
25910 
25909 
25908 
25913 
25930 
25943 
25938 
25937 
25932 
25929 
25925 
25921 
25940 
25948 
25957 
25959 
25963 
25959 
25961 
25950 
25942 
25944 
25949 
25972 
25957 
25945 
25939 
25946 
25952 
25945 
25940 
25938 
25952 
25976 
25977 
25980 
25979 
25970 
25961 
25957 
25959 
25954 
25968 
25980 
25982 
25974 
25965 
25951 
25940 
25937 
25929 
25916 
25931 
25931 
25928 
25927 
25920 
25913 
25917 
25904 
25889 
25879 
25888 
25911 
25906 
25882 
25866 
25866 
25854 
25834 
25829 
25813 
25807 
25826 
25822 
25795 
25769 
25766 
25759 
25751 
25729 
25702 
25717 
25719 
25717 
25696 
25665 
25660 
25649 
25622 
25617 
25616 
25621 
25643 
25637 
25628 
25616 
25605 
25595 
25597 
25605 
25620 
25641 
25642 
25633 
25641 
25650 
25660 
25660 
25668 
25693 
25717 
25714 
25700 
25708 
25710 
25700 
25700 
25694 
25695 
25706 
25714 
25718 
25728 
25732 
25741 
25743 
25740 
25740 
25738 
25763 
25762 
25765 
25769 
25767 
25773 
25766 
25749 
25740 
25750 
25780 
25780 
25791 
25792 
25787 
25783 
25781 
25778 
25800 
25817 
25831 
25836 
25827 
25829 
25831 
25823 
25827 
25846 
25856 
25867 
25875 
25878 
25879 
25875 
25874 
25896 
25915 
25916 
25905 
25903 
25899 
25898 
25897 
25904 
25897 
25918 
25934 
25933 
25928 
25928 
25930 
25938 
25935 
25927 
25951 
25968 
25970 
25981 
25992 
25989 
25983 
25970 
25970 
25997 
26002 
26006 
25993 
25991 
25983 
25984 
25997 
25989 
26006 
26029 
26019 
26011 
26017 
26007 
26001 
25999 
26001 
26026 
26031 
26027 
26021 
25995 
25975 
25980 
25987 
25990 
25993 
26011 
26040 
26044 
26038 
26037 
26033 
26026 
26014 
26034 
26053 
26067 
26086 
26077 
26069 
26070 
26064 
26056 
26053 
26046 
26030 
26039 
26070 
26083 
26076 
26061 
26047 
26033 
26029 
26034 
26037 
26047 
26074 
26050 
26032 
26040 
26044 
26045 
26042 
26028 
26015 
26012 
26033 
26036 
26016 
25997 
25970 
25948 
25927 
25900 
25875 
25870 
25888 
25874 
25847 
25814 
25782 
25753 
25739 
25733 
25710 
25681 
25657 
25669 
25666 
25638 
25610 
25585 
25571 
25554 
25523 
25505 
25506 
25484 
25497 
25488 
25466 
25445 
25424 
25414 
25402 
25383 
25375 
25357 
25349 
25358 
25347 
25349 
25349 
25340 
25324 
25322 
25318 
25334 
25348 
25355 
25358 
25351 
25344 
25346 
25353 
25363 
25373 
25387 
25398 
25393 
25396 
25391 
25380 
25373 
25370 
25405 
25441 
25454 
25476 
25477 
25489 
25501 
25491 
25489 
25507 
25519 
25517 
25527 
25529 
25532 
25542 
25569 
25585 
25615 
25621 
25624 
25633 
25660 
25670 
25675 
25705 
25754 
25741 
25724 
25745 
25761 
25778 
25787 
25790 
25796 
25809 
25839 
25848 
25847 
25853 
25862 
25855 
25859 
25874 
25910 
25938 
25921 
25924 
25938 
25952 
25957 
25955 
25960 
25985 
26025 
26059 
26049 
26049 
26063 
26067 
26053 
26048 
26063 
26085 
26117 
26122 
26131 
26128 
26127 
26135 
26147 
26154 
26178 
26187 
26189 
26189 
26196 
26206 
26201 
26198 
26210 
26238 
26238 
26238 
26240 
26242 
26246 
26245 
26246 
26257 
26290 
26309 
26300 
26290 
26284 
26290 
26285 
26283 
26288 
26296 
26311 
26360 
26361 
26358 
26360 
26344 
26333 
26332 
26338 
26338 
26348 
26400 
26408 
26375 
26354 
26348 
26336 
26359 
26357 
26346 
26361 
26367 
26360 
26357 
26357 
26365 
26360 
26344 
26336 
26364 
26374 
26360 
26345 
26338 
26338 
26329 
26320 
26317 
26310 
26325 
26346 
26340 
26336 
26324 
26334 
26337 
26328 
26308 
26293 
26294 
26307 
26299 
26282 
26265 
26236 
26204 
26178 
26155 
26115 
26070 
26028 
25983 
25979 
25947 
25906 
25848 
25797 
25755 
25710 
25680 
25637 
25609 
25571 
25541 
25551 
25519 
25488 
25464 
25439 
25404 
25382 
25374 
25344 
25310 
25289 
25290 
25280 
25248 
25227 
25218 
25213 
25219 
25218 
25202 
25189 
25193 
25217 
25224 
25214 
25211 
25211 
25207 
25217 
25221 
25237 
25256 
25253 
25268 
25274 
25272 
25268 
25273 
25294 
25324 
25339 
25332 
25335 
25341 
25354 
25367 
25376 
25401 
25433 
25439 
25445 
25442 
25453 
25466 
25467 
25464 
25481 
25523 
25528 
25522 
25530 
25555 
25579 
25593 
25603 
25641 
25662 
25667 
25665 
25683 
25687 
25696 
25728 
25748 
25734 
25774 
25818 
25854 
25878 
25886 
25882 
25877 
25879 
25904 
25959 
25971 
25975 
25985 
25979 
25961 
25971 
25992 
26019 
26076 
26104 
26123 
26136 
26141 
26158 
26178 
26200 
26235 
26242 
26262 
26269 
26263 
26273 
26283 
26283 
26303 
26336 
26339 
26348 
26349 
26334 
26343 
26348 
26346 
26358 
26390 
26402 
26397 
26394 
26426 
26436 
26439 
26433 
26434 
26438 
26464 
26494 
26520 
26524 
26505 
26504 
26518 
26526 
26558 
26581 
26587 
26590 
26558 
26545 
26576 
26596 
26577 
26574 
26601 
26608 
26605 
26609 
26595 
26588 
26584 
26582 
26604 
26638 
26639 
26636 
26628 
26631 
26635 
26649 
26637 
26639 
26653 
26649 
26651 
26660 
26688 
26707 
26707 
26706 
26701 
26692 
26696 
26686 
26664 
26664 
26664 
26678 
26708 
26708 
26688 
26717 
26739 
26722 
26709 
26715 
26726 
26708 
26692 
26686 
26684 
26683 
26672 
26616 
26574 
26535 
26484 
26448 
26391 
26350 
26315 
26268 
26210 
26155 
26119 
26073 
26013 
25954 
25915 
25893 
25855 
25795 
25739 
25711 
25693 
25668 
25658 
25636 
25620 
25611 
25610 
25594 
25571 
25549 
25531 
25528 
25537 
25518 
25513 
25508 
25504 
25506 
25531 
25548 
25572 
25570 
25573 
25580 
25576 
25595 
25624 
25627 
25631 
25668 
25687 
25698 
25711 
25710 
25709 
25715 
25715 
25732 
25783 
25800 
25797 
25820 
25852 
25886 
25890 
25889 
25925 
25966 
25978 
25984 
26003 
26012 
26029 
26046 
26049 
26070 
26095 
26102 
26119 
26130 
26125 
26148 
26187 
26228 
26264 
26283 
26274 
26287 
26318 
26323 
26339 
26362 
26416 
26424 
26415 
26441 
26455 
26458 
26486 
26505 
26566 
26597 
26586 
26571 
26576 
26590 
26599 
26618 
26670 
26697 
26682 
26695 
26703 
26704 
26721 
26730 
26756 
26812 
26874 
26888 
26892 
26912 
26915 
26890 
26874 
26872 
26874 
26909 
26944 
26953 
26949 
26935 
26942 
26952 
26978 
26986 
27011 
27010 
27010 
27012 
27034 
27054 
27052 
27049 
27068 
27108 
27103 
27082 
27056 
27064 
27056 
27073 
27074 
27079 
27089 
27099 
27080 
27081 
27097 
27098 
27079 
27087 
27089 
27096 
27104 
27131 
27130 
27134 
27136 
27112 
27093 
27100 
27109 
27116 
27122 
27118 
27094 
27092 
27105 
27090 
27067 
27061 
27059 
27064 
27087 
27097 
27085 
27056 
27037 
27026 
27016 
27025 
27033 
27018 
27015 
27035 
27048 
27059 
27067 
27066 
27060 
27028 
26965 
26943 
26948 
26912 
26844 
26790 
26746 
26668 
26580 
26502 
26430 
26340 
26261 
26185 
26114 
26031 
25938 
25899 
25895 
25848 
25780 
25712 
25645 
25590 
25538 
25497 
25465 
25455 
25430 
25397 
25361 
25359 
25326 
25302 
25291 
25272 
25277 
25288 
25280 
25272 
25272 
25290 
25306 
25298 
25291 
25302 
25334 
25346 
25331 
25388 
25475 
25530 
25551 
25584 
25626 
25657 
25702 
25721 
25760 
25798 
25826 
25852 
25874 
25903 
25955 
25986 
26040 
26105 
26112 
26121 
26120 
26146 
26183 
26222 
26273 
26305 
26304 
26308 
26316 
26354 
26381 
26388 
26400 
26438 
26450 
26451 
26468 
26483 
26506 
26522 
26533 
26558 
26602 
26625 
26667 
26697 
26728 
26760 
26792 
26817 
26852 
26867 
26899 
26923 
26946 
26955 
26981 
26956 
26953 
27026 
27046 
27042 
27046 
27046 
27050 
27072 
27105 
27127 
27193 
27216 
27226 
27233 
27213 
27216 
27214 
27220 
27246 
27296 
27323 
27340 
27370 
27385 
27389 
27405 
27409 
27411 
27434 
27462 
27449 
27417 
27407 
27408 
27407 
27411 
27445 
27492 
27505 
27540 
27541 
27535 
27530 
27535 
27537 
27521 
27522 
27542 
27544 
27534 
27535 
27538 
27540 
27520 
27520 
27553 
27564 
27559 
27552 
27547 
27518 
27498 
27468 
27464 
27502 
27535 
27541 
27507 
27497 
27485 
27473 
27470 
27447 
27448 
27445 
27449 
27464 
27453 
27446 
27439 
27422 
27389 
27367 
27355 
27352 
27379 
27411 
27437 
27429 
27410 
27420 
27426 
27421 
27372 
27354 
27365 
27387 
27384 
27389 
27393 
27382 
27361 
27359 
27367 
27378 
27347 
27333 
27335 
27290 
27230 
27146 
27042 
26950 
26855 
26770 
26662 
26531 
26421 
26301 
26184 
26058 
25928 
25838 
25768 
25691 
25591 
25479 
25389 
25324 
25260 
25215 
25150 
25101 
25063 
25051 
25021 
25003 
24961 
24921 
24904 
24905 
24927 
24928 
24949 
24959 
24950 
24968 
24991 
24995 
24975 
25019 
25059 
25102 
25138 
25180 
25219 
25259 
25326 
25409 
25474 
25526 
25578 
25627 
25681 
25779 
25828 
25857 
25900 
25974 
26026 
26049 
26105 
26168 
26210 
26222 
26249 
26295 
26307 
26324 
26366 
26395 
26412 
26443 
26485 
26513 
26515 
26512 
26509 
26502 
26517 
26526 
26553 
26572 
26608 
26655 
26685 
26722 
26773 
26826 
26874 
26888 
26887 
26906 
26886 
26924 
26965 
26994 
27043 
27101 
27134 
27173 
27187 
27213 
27260 
27321 
27350 
27370 
27397 
27439 
27469 
27489 
27516 
27565 
27560 
27566 
27596 
27615 
27616 
27640 
27669 
27697 
27716 
27730 
27750 
27761 
27771 
27777 
27789 
27815 
27852 
27864 
27892 
27892 
27872 
27889 
27895 
27886 
27912 
27961 
27962 
27950 
27917 
27904 
27921 
27956 
27944 
27899 
27917 
27938 
27912 
27900 
27913 
27923 
27926 
27949 
27941 
27901 
27901 
27914 
27910 
27913 
27966 
27968 
27957 
27941 
27944 
27955 
27970 
27989 
27970 
27922 
27903 
27917 
27909 
27885 
27905 
27944 
27925 
27912 
27917 
27946 
27950 
27924 
27892 
27918 
27938 
27950 
27969 
27953 
27969 
27967 
27958 
27942 
27928 
27908 
27879 
27876 
27850 
27822 
27834 
27851 
27854 
27879 
27871 
27846 
27835 
27837 
27835 
27807 
27739 
27677 
27610 
27544 
27482 
27382 
27293 
27187 
27073 
26968 
26855 
26709 
26549 
26400 
26249 
26085 
25960 
25857 
25714 
25547 
25442 
25349 
25260 
25161 
25078 
25034 
25003 
24968 
24944 
24914 
24830 
24786 
24782 
24784 
24796 
24822 
24833 
24823 
24840 
24913 
24947 
24965 
24956 
24928 
24936 
24972 
25004 
25023 
25085 
25118 
25138 
25175 
25206 
25273 
25362 
25459 
25507 
25575 
25667 
25748 
25794 
25822 
25889 
25949 
25994 
26048 
26099 
26165 
26222 
26236 
26265 
26316 
26366 
26425 
26465 
26449 
26443 
26462 
26465 
26479 
26550 
26612 
26623 
26647 
26663 
26652 
26653 
26671 
26701 
26753 
26793 
26847 
26869 
26898 
26926 
26967 
26997 
27024 
27073 
27097 
27143 
27202 
27232 
27259 
27285 
27371 
27447 
27504 
27535 
27583 
27607 
27612 
27671 
27790 
27826 
27812 
27805 
27814 
27856 
27896 
27891 
27896 
27935 
27947 
27997 
28076 
28134 
28137 
28146 
28173 
28159 
28159 
28177 
28172 
28188 
28205 
28215 
28246 
28267 
28274 
28289 
28292 
28308 
28352 
28367 
28385 
28400 
28414 
28432 
28429 
28409 
28372 
28352 
28351 
28369 
28419 
28449 
28471 
28459 
28431 
28409 
28427 
28422 
28407 
28406 
28416 
28379 
28363 
28382 
28392 
28382 
28392 
28404 
28400 
28400 
28411 
28405 
28403 
28404 
28397 
28396 
28411 
28429 
28448 
28482 
28495 
28491 
28457 
28450 
28415 
28361 
28327 
28356 
28364 
28360 
28393 
28407 
28413 
28400 
28353 
28306 
28284 
28249 
28212 
28154 
28066 
27955 
27850 
27746 
27608 
27473 
27334 
27152 
26985 
26837 
26642 
26471 
26324 
26163 
25966 
25780 
25629 
25492 
25417 
25340 
25241 
25134 
25019 
24932 
24860 
24820 
24799 
24793 
24764 
24768 
24773 
24789 
24798 
24820 
24865 
24904 
24923 
24987 
25054 
25102 
25138 
25163 
25189 
25231 
25313 
25397 
25446 
25472 
25499 
25551 
25614 
25687 
25817 
25895 
25968 
26053 
26114 
26160 
26221 
26282 
26318 
26360 
26417 
26483 
26510 
26537 
26594 
26611 
26655 
26718 
26761 
26735 
26740 
26784 
26836 
26841 
26865 
26886 
26883 
26875 
26894 
26956 
27003 
27017 
27014 
27012 
27029 
27074 
27078 
27100 
27174 
27249 
27272 
27287 
27300 
27316 
27374 
27433 
27509 
27547 
27594 
27646 
27701 
27751 
27814 
27914 
27957 
28031 
28099 
28137 
28161 
28178 
28230 
28293 
28306 
28315 
28331 
28350 
28386 
28427 
28451 
28497 
28533 
28546 
28551 
28552 
28529 
28522 
28547 
28595 
28659 
28650 
28666 
28669 
28668 
28710 
28749 
28772 
28775 
28769 
28767 
28735 
28710 
28706 
28714 
28726 
28742 
28786 
28838 
28841 
28832 
28849 
28872 
28892 
28870 
28846 
28867 
28901 
28876 
28889 
28893 
28873 
28867 
28877 
28886 
28868 
28865 
28858 
28879 
28886 
28876 
28845 
28824 
28802 
28784 
28811 
28835 
28825 
28806 
28795 
28781 
28755 
28724 
28717 
28721 
28768 
28774 
28771 
28777 
28783 
28752 
28717 
28712 
28701 
28673 
28651 
28696 
28732 
28694 
28665 
28647 
28623 
28630 
28608 
28565 
28547 
28514 
28496 
28425 
28326 
28235 
28128 
28006 
27883 
27695 
27501 
27323 
27174 
27014 
26808 
26569 
26331 
26112 
25876 
25672 
25481 
25334 
25186 
25022 
24904 
24799 
24692 
24582 
24473 
24325 
24252 
24210 
24150 
24123 
24145 
24169 
24139 
24148 
24188 
24216 
24214 
24233 
24286 
24367 
24423 
24478 
24547 
24608 
24627 
24641 
24667 
24676 
24694 
24739 
24739 
24817 
24898 
24940 
25005 
25077 
25130 
25185 
25289 
25373 
25439 
25492 
25531 
25596 
25686 
25831 
25951 
26021 
26076 
26142 
26218 
26295 
26375 
26471 
26535 
26572 
26652 
26732 
26824 
26867 
26845 
26893 
26941 
26985 
27042 
27100 
27164 
27181 
27202 
27232 
27266 
27321 
27392 
27491 
27559 
27616 
27654 
27661 
27693 
27740 
27792 
27898 
27995 
28073 
28163 
28244 
28307 
28376 
28533 
28622 
28680 
28704 
28759 
28768 
28794 
28833 
28921 
28972 
29025 
29078 
29104 
29149 
29237 
29327 
29384 
29390 
29411 
29456 
29498 
29512 
29504 
29462 
29430 
29481 
29504 
29523 
29535 
29557 
29591 
29613 
29631 
29653 
29654 
29641 
29633 
29629 
29619 
29622 
29655 
29698 
29698 
29706 
29728 
29736 
29714 
29651 
29669 
29680 
29678 
29675 
29659 
29655 
29636 
29636 
29680 
29710 
29715 
29701 
29691 
29681 
29696 
29720 
29716 
29796 
29838 
29816 
29817 
29777 
29743 
29735 
29750 
29766 
29760 
29769 
29792 
29811 
29821 
29812 
29774 
29772 
29767 
29763 
29813 
29879 
29920 
29930 
29920 
29899 
29891 
29898 
29867 
29832 
29839 
29831 
29816 
29874 
29903 
29906 
29935 
29934 
29911 
29902 
29892 
29851 
29844 
29847 
29807 
29697 
29598 
29492 
29382 
29229 
29012 
28793 
28571 
28360 
28138 
27888 
27633 
27356 
27094 
26857 
26640 
26398 
26169 
25929 
25717 
25532 
25389 
25212 
25056 
24950 
24870 
24754 
24645 
24576 
24526 
24466 
24431 
24444 
24421 
24401 
24444 
24491 
24509 
24543 
24563 
24609 
24662 
24749 
24770 
24804 
24846 
24893 
24979 
25021 
25058 
25159 
25264 
25352 
25437 
25507 
25572 
25673 
25802 
25896 
25988 
26122 
26220 
26304 
26411 
26499 
26613 
26713 
26788 
26870 
26960 
27011 
27030 
27042 
27084 
27133 
27172 
27238 
27313 
27328 
27353 
27371 
27371 
27418 
27473 
27509 
27551 
27566 
27598 
27649 
27667 
27712 
27739 
27747 
27815 
27884 
27958 
27985 
28046 
28126 
28201 
28282 
28332 
28415 
28484 
28563 
28631 
28701 
28797 
28909 
28989 
29046 
29133 
29223 
29308 
29361 
29406 
29505 
29575 
29637 
29693 
29711 
29764 
29848 
29894 
29924 
29988 
30046 
30130 
30175 
30224 
30247 
30246 
30283 
30330 
30373 
30390 
30363 
30351 
30381 
30405 
30394 
30391 
30376 
30371 
30366 
30368 
30369 
30360 
30363 
30329 
30298 
30300 
30307 
30324 
30257 
30240 
30259 
30243 
30216 
30183 
30178 
30152 
30096 
30107 
30087 
30058 
30054 
30040 
30018 
30003 
29966 
29948 
29951 
29922 
29910 
29884 
29848 
29822 
29808 
29752 
29712 
29707 
29683 
29672 
29710 
29731 
29705 
29700 
29720 
29730 
29713 
29732 
29739 
29711 
29682 
29661 
29625 
29613 
29589 
29548 
29517 
29518 
29528 
29528 
29476 
29441 
29458 
29412 
29368 
29289 
29184 
29069 
28943 
28823 
28682 
28500 
28321 
28136 
27960 
27743 
27522 
27285 
27017 
26782 
26569 
26354 
26132 
25895 
25705 
25511 
25338 
25171 
25005 
24851 
24717 
24591 
24500 
24426 
24354 
24284 
24248 
24216 
24219 
24224 
24226 
24221 
24230 
24247 
24266 
24311 
24380 
24403 
24434 
24445 
24475 
24520 
24534 
24568 
24644 
24687 
24741 
24840 
24928 
24986 
25044 
25138 
25221 
25282 
25366 
25459 
25563 
25676 
25800 
25912 
25998 
26068 
26134 
26225 
26292 
26376 
26429 
26460 
26496 
26485 
26497 
26540 
26571 
26604 
26657 
26667 
26648 
26696 
26736 
26762 
26808 
26837 
26864 
26894 
26961 
26976 
27032 
27046 
27069 
27109 
27162 
27226 
27266 
27309 
27366 
27437 
27511 
27594 
27673 
27721 
27773 
27827 
27890 
27995 
28078 
28106 
28148 
28221 
28305 
28356 
28399 
28457 
28515 
28564 
28624 
28649 
28713 
28760 
28785 
28792 
28837 
28865 
28902 
28924 
28904 
28908 
28915 
28897 
28904 
28941 
28976 
28977 
28993 
29043 
29057 
29046 
29047 
29044 
29041 
29047 
29043 
29020 
29029 
29007 
28981 
28990 
29016 
29024 
29032 
29049 
29041 
29028 
29014 
28984 
28962 
29001 
28998 
28968 
28970 
28938 
28881 
28866 
28881 
28871 
28822 
28776 
28766 
28766 
28781 
28755 
28717 
28697 
28692 
28672 
28661 
28657 
28657 
28640 
28618 
28588 
28581 
28562 
28523 
28507 
28502 
28519 
28490 
28498 
28482 
28457 
28429 
28411 
28375 
28357 
28340 
28315 
28297 
28280 
28319 
28338 
28310 
28282 
28294 
28311 
28279 
28226 
28168 
28132 
28088 
28030 
27959 
27841 
27727 
27586 
27414 
27245 
27084 
26887 
26683 
26462 
26238 
25995 
25787 
25582 
25375 
25162 
24966 
24765 
24590 
24431 
24266 
24126 
24015 
23914 
23776 
23673 
23581 
23522 
23453 
23422 
23392 
23371 
23375 
23366 
23364 
23368 
23379 
23388 
23407 
23462 
23514 
23546 
23616 
23674 
23697 
23724 
23760 
23777 
23831 
23891 
23956 
24030 
24082 
24159 
24227 
24303 
24419 
24508 
24576 
24671 
24781 
24882 
24988 
25057 
25126 
25234 
25341 
25449 
25587 
25682 
25752 
25818 
25886 
25915 
25982 
26096 
26162 
26180 
26201 
26226 
26283 
26327 
26375 
26421 
26457 
26497 
26546 
26584 
26638 
26720 
26761 
26794 
26840 
26902 
26965 
27018 
27091 
27178 
27237 
27284 
27310 
27336 
27390 
27497 
27582 
27601 
27638 
27695 
27755 
27793 
27876 
27991 
28066 
28116 
28183 
28258 
28316 
28374 
28461 
28502 
28547 
28589 
28604 
28618 
28681 
28757 
28804 
28849 
28875 
28895 
28930 
28962 
29006 
29064 
29092 
29141 
29195 
29214 
29210 
29237 
29254 
29256 
29260 
29248 
29232 
29220 
29244 
29260 
29249 
29251 
29281 
29268 
29271 
29282 
29274 
29240 
29210 
29200 
29211 
29204 
29163 
29146 
29129 
29086 
29061 
29058 
29049 
29041 
29011 
28987 
28980 
28965 
28943 
28923 
28887 
28860 
28847 
28836 
28814 
28792 
28794 
28835 
28846 
28812 
28762 
28749 
28725 
28718 
28675 
28614 
28585 
28626 
28633 
28590 
28566 
28577 
28551 
28535 
28488 
28422 
28419 
28410 
28392 
28381 
28363 
28357 
28329 
28308 
28271 
28246 
28226 
28178 
28149 
28160 
28136 
28100 
28059 
28033 
28038 
28022 
27989 
27954 
27886 
27768 
27655 
27571 
27450 
27312 
27155 
27011 
26847 
26666 
26476 
26282 
26090 
25913 
25719 
25489 
25280 
25105 
24909 
24711 
24532 
24393 
24281 
24153 
24040 
23928 
23822 
23737 
23686 
23654 
23622 
23594 
23554 
23543 
23551 
23590 
23631 
23680 
23719 
23743 
23779 
23810 
23838 
23861 
23922 
23979 
24023 
24061 
24094 
24120 
24147 
24184 
24239 
24326 
24417 
24495 
24569 
24642 
24678 
24751 
24858 
24959 
25032 
25105 
25184 
25242 
25318 
25412 
25494 
25545 
25612 
25686 
25763 
25857 
25905 
25945 
26013 
26048 
26099 
26150 
26228 
26270 
26273 
26293 
26329 
26372 
26371 
26382 
26457 
26539 
26562 
26583 
26598 
26621 
26657 
26677 
26704 
26778 
26821 
26872 
26923 
26982 
27043 
27099 
27154 
27197 
27217 
27262 
27326 
27391 
27479 
27523 
27564 
27605 
27651 
27699 
27728 
27766 
27799 
27821 
27864 
27895 
27921 
27950 
27932 
27951 
27994 
28033 
28060 
28095 
28113 
28110 
28098 
28119 
28149 
28181 
28218 
28239 
28231 
28212 
28194 
28187 
28191 
28206 
28225 
28233 
28232 
28199 
28196 
28205 
28203 
28172 
28159 
28160 
28134 
28119 
28107 
28101 
28119 
28128 
28131 
28141 
28138 
28118 
28106 
28086 
28063 
28036 
28022 
28020 
28033 
28032 
28037 
28025 
28013 
27986 
27946 
27900 
27872 
27896 
27929 
27906 
27877 
27833 
27783 
27771 
27751 
27730 
27698 
27694 
27708 
27704 
27696 
27653 
27595 
27550 
27536 
27514 
27478 
27468 
27451 
27459 
27453 
27441 
27420 
27375 
27326 
27302 
27283 
27272 
27235 
27197 
27157 
27134 
27085 
27035 
26979 
26916 
26816 
26706 
26589 
26446 
26292 
26157 
26017 
25872 
25700 
25531 
25381 
25227 
25068 
24952 
24851 
24717 
24575 
24438 
24308 
24194 
24112 
24011 
23924 
23812 
23727 
23668 
23636 
23641 
23640 
23634 
23667 
23702 
23713 
23712 
23733 
23807 
23879 
23910 
23957 
23996 
24045 
24085 
24125 
24203 
24258 
24306 
24342 
24420 
24473 
24495 
24557 
24661 
24732 
24821 
24911 
24995 
25074 
25196 
25275 
25317 
25370 
25428 
25468 
25522 
25580 
25653 
25693 
25718 
25748 
25759 
25812 
25845 
25876 
25920 
25937 
25935 
25943 
25953 
25960 
25990 
26027 
26083 
26122 
26140 
26152 
26192 
26214 
26239 
26250 
26264 
26320 
26366 
26425 
26486 
26525 
26565 
26589 
26639 
26689 
26713 
26766 
26835 
26867 
26883 
26908 
26960 
27044 
27089 
27121 
27152 
27169 
27191 
27226 
27273 
27335 
27357 
27368 
27388 
27389 
27406 
27425 
27435 
27435 
27442 
27470 
27473 
27465 
27445 
27444 
27440 
27434 
27419 
27409 
27422 
27440 
27450 
27440 
27429 
27410 
27401 
27407 
27405 
27418 
27440 
27453 
27456 
27474 
27485 
27451 
27431 
27442 
27473 
27493 
27493 
27462 
27433 
27425 
27454 
27464 
27443 
27421 
27391 
27402 
27463 
27484 
27478 
27465 
27449 
27450 
27439 
27420 
27397 
27430 
27454 
27463 
27461 
27455 
27467 
27467 
27454 
27433 
27417 
27393 
27441 
27476 
27487 
27503 
27498 
27497 
27486 
27456 
27434 
27452 
27484 
27473 
27453 
27442 
27424 
27426 
27420 
27405 
27377 
27390 
27404 
27381 
27330 
27279 
27226 
27150 
27053 
26957 
26847 
26715 
26549 
26417 
26321 
26203 
26057 
25903 
25751 
25617 
25478 
25319 
25158 
25016 
24889 
24776 
24669 
24544 
24454 
24393 
24350 
24332 
24294 
24231 
24196 
24189 
24178 
24196 
24217 
24233 
24274 
24328 
24372 
24393 
24419 
24443 
24478 
24502 
24500 
24536 
24591 
24645 
24685 
24703 
24735 
24788 
24879 
24953 
25010 
25087 
25156 
25231 
25316 
25426 
25498 
25561 
25621 
25671 
25727 
25796 
25867 
25920 
25944 
25980 
26048 
26104 
26128 
26147 
26200 
26266 
26273 
26284 
26304 
26340 
26365 
26391 
26408 
26432 
26484 
26511 
26515 
26534 
26551 
26574 
26579 
26597 
26632 
26686 
26702 
26708 
26722 
26750 
26792 
26844 
26867 
26927 
26978 
27002 
27053 
27097 
27135 
27188 
27243 
27297 
27342 
27393 
27432 
27472 
27527 
27586 
27669 
27723 
27757 
27783 
27807 
27849 
27902 
27972 
28026 
28077 
28104 
28126 
28141 
28157 
28182 
28228 
28266 
28259 
28261 
28268 
28287 
28329 
28348 
28340 
28358 
28366 
28372 
28355 
28340 
28338 
28347 
28352 
28345 
28358 
28348 
28326 
28282 
28259 
28235 
28201 
28194 
28179 
28162 
28216 
28205 
28160 
28124 
28121 
28122 
28085 
28048 
28008 
27962 
27933 
27953 
27971 
27952 
27906 
27869 
27849 
27843 
27825 
27794 
27766 
27763 
27737 
27697 
27673 
27676 
27689 
27672 
27653 
27638 
27629 
27606 
27577 
27574 
27580 
27557 
27518 
27513 
27501 
27463 
27430 
27409 
27433 
27468 
27458 
27437 
27422 
27415 
27407 
27382 
27359 
27352 
27368 
27384 
27395 
27371 
27340 
27302 
27258 
27207 
27161 
27131 
27088 
27017 
26936 
26862 
26792 
26730 
26650 
26538 
26403 
26262 
26127 
25963 
25824 
25704 
25574 
25399 
25257 
25138 
24967 
24802 
24689 
24598 
24512 
24415 
24305 
24227 
24175 
24136 
24084 
24054 
24024 
24003 
23985 
23983 
23984 
24011 
24018 
24027 
24050 
24103 
24165 
24207 
24227 
24246 
24296 
24350 
24423 
24482 
24526 
24566 
24605 
24665 
24715 
24749 
24803 
24880 
24934 
24999 
25077 
25125 
25161 
25242 
25320 
25396 
25461 
25540 
25627 
25702 
25732 
25790 
25883 
25945 
26020 
26090 
26142 
26172 
26184 
26233 
26275 
26318 
26372 
26414 
26424 
26425 
26435 
26480 
26487 
26501 
26517 
26511 
26523 
26532 
26524 
26542 
26609 
26653 
26664 
26682 
26706 
26761 
26774 
26770 
26790 
26821 
26848 
26889 
26915 
26947 
26990 
27016 
27056 
27088 
27097 
27127 
27145 
27181 
27224 
27259 
27323 
27370 
27402 
27420 
27433 
27441 
27441 
27454 
27517 
27580 
27608 
27594 
27619 
27666 
27687 
27715 
27764 
27792 
27782 
27770 
27775 
27777 
27769 
27782 
27755 
27719 
27696 
27679 
27691 
27664 
27611 
27562 
27505 
27475 
27448 
27426 
27393 
27351 
27322 
27301 
27256 
27210 
27158 
27109 
27077 
27037 
27016 
26997 
26945 
26908 
26884 
26840 
26792 
26764 
26718 
26676 
26662 
26650 
26646 
26607 
26572 
26563 
26565 
26539 
26512 
26506 
26507 
26516 
26501 
26488 
26480 
26474 
26469 
26475 
26462 
26443 
26436 
26443 
26457 
26455 
26451 
26470 
26510 
26547 
26555 
26564 
26572 
26600 
26618 
26623 
26648 
26680 
26697 
26697 
26730 
26744 
26752 
26782 
26807 
26810 
26817 
26866 
26879 
26867 
26869 
26870 
26892 
26940 
26943 
26914 
26935 
26959 
26965 
26942 
26910 
26856 
26786 
26729 
26662 
26597 
26531 
26457 
26371 
26301 
26235 
26132 
26027 
25958 
25890 
25812 
25757 
25719 
25676 
25619 
25573 
25551 
25522 
25484 
25476 
25461 
25432 
25405 
25384 
25367 
25353 
25346 
25365 
25369 
25349 
25389 
25413 
25420 
25442 
25485 
25501 
25528 
25583 
25654 
25716 
25748 
25783 
25847 
25902 
25960 
26041 
26105 
26150 
26193 
26262 
26334 
26391 
26427 
26430 
26434 
26461 
26461 
26441 
26444 
26451 
26449 
26475 
26497 
26516 
26512 
26501 
26487 
26473 
26459 
26465 
26454 
26433 
26428 
26437 
26448 
26421 
26389 
26390 
26421 
26401 
26395 
26395 
26382 
26372 
26351 
26351 
26373 
26381 
26416 
26421 
26420 
26429 
26456 
26468 
26492 
26516 
26550 
26631 
26670 
26698 
26715 
26748 
26791 
26791 
26802 
26827 
26880 
26924 
26977 
27013 
27022 
27065 
27131 
27198 
27233 
27230 
27229 
27241 
27277 
27314 
27316 
27335 
27359 
27379 
27393 
27415 
27447 
27476 
27477 
27503 
27558 
27583 
27592 
27620 
27636 
27626 
27625 
27632 
27646 
27644 
27648 
27677 
27701 
27711 
27730 
27738 
27760 
27785 
27781 
27784 
27778 
27800 
27833 
27854 
27845 
27855 
27867 
27854 
27862 
27889 
27869 
27856 
27881 
27891 
27864 
27827 
27804 
27798 
27804 
27817 
27814 
27799 
27795 
27783 
27786 
27814 
27792 
27757 
27755 
27741 
27727 
27672 
27603 
27564 
27570 
27564 
27560 
27556 
27534 
27536 
27517 
27467 
27441 
27422 
27387 
27315 
27233 
27131 
27026 
26914 
26768 
26662 
26604 
26513 
26387 
26278 
26188 
26073 
25962 
25853 
25729 
25626 
25537 
25437 
25335 
25265 
25184 
25132 
25080 
25031 
24963 
24920 
24891 
24853 
24832 
24817 
24790 
24767 
24729 
24705 
24690 
24672 
24687 
24688 
24690 
24685 
24710 
24758 
24770 
24790 
24859 
24919 
24985 
25044 
25090 
25110 
25160 
25225 
25281 
25334 
25396 
25470 
25538 
25588 
25655 
25743 
25798 
25827 
25882 
25940 
26026 
26110 
26162 
26226 
26271 
26307 
26339 
26370 
26436 
26482 
26501 
26502 
26510 
26511 
26540 
26610 
26679 
26691 
26707 
26738 
26763 
26797 
26822 
26851 
26895 
26937 
26971 
26990 
27011 
27042 
27077 
27124 
27147 
27151 
27159 
27178 
27182 
27183 
27187 
27192 
27245 
27275 
27288 
27301 
27325 
27336 
27355 
27372 
27422 
27430 
27401 
27413 
27424 
27411 
27405 
27396 
27417 
27476 
27505 
27489 
27492 
27488 
27469 
27447 
27441 
27447 
27474 
27517 
27535 
27567 
27565 
27563 
27567 
27566 
27549 
27538 
27555 
27570 
27546 
27524 
27504 
27498 
27469 
27441 
27425 
27405 
27394 
27395 
27393 
27371 
27365 
27341 
27318 
27328 
27342 
27338 
27327 
27315 
27314 
27345 
27339 
27317 
27308 
27294 
27277 
27262 
27258 
27240 
27228 
27227 
27217 
27232 
27229 
27213 
27205 
27205 
27195 
27154 
27126 
27163 
27160 
27156 
27136 
27125 
27092 
27069 
27083 
27062 
27060 
27075 
27091 
27081 
27079 
27063 
27041 
27036 
27035 
27042 
27011 
26988 
26972 
26943 
26910 
26863 
26797 
26741 
26673 
26604 
26517 
26413 
26315 
26224 
26132 
26003 
25878 
25765 
25642 
25515 
25407 
25315 
25222 
25126 
25044 
24966 
24902 
24858 
24790 
24741 
24689 
24616 
24577 
24561 
24543 
24520 
24486 
24464 
24447 
24420 
24403 
24390 
24405 
24421 
24426 
24443 
24461 
24484 
24498 
24527 
24547 
24606 
24660 
24727 
24816 
24878 
24917 
24989 
25075 
25151 
25225 
25297 
25350 
25398 
25469 
25557 
25628 
25673 
25746 
25817 
25868 
25924 
25987 
26045 
26091 
26129 
26168 
26193 
26217 
26263 
26340 
26354 
26385 
26426 
26441 
26470 
26502 
26511 
26566 
26615 
26651 
26687 
26721 
26751 
26782 
26802 
26858 
26911 
26940 
26966 
26978 
26989 
27004 
27038 
27080 
27133 
27151 
27204 
27249 
27249 
27257 
27256 
27257 
27289 
27347 
27373 
27362 
27378 
27410 
27438 
27460 
27465 
27450 
27462 
27483 
27484 
27475 
27465 
27460 
27446 
27421 
27378 
27342 
27286 
27263 
27244 
27212 
27180 
27144 
27140 
27105 
27043 
26968 
26918 
26862 
26837 
26838 
26788 
26717 
26673 
26628 
26552 
26517 
26496 
26456 
26426 
26413 
26380 
26343 
26334 
26322 
26315 
26296 
26263 
26248 
26251 
26252 
26255 
26267 
26297 
26316 
26334 
26338 
26308 
26295 
26309 
26318 
26295 
26302 
26320 
26329 
26346 
26384 
26398 
26386 
26395 
26404 
26424 
26427 
26429 
26438 
26438 
26465 
26495 
26532 
26581 
26611 
26587 
26584 
26592 
26606 
26617 
26643 
26655 
26665 
26687 
26688 
26674 
26666 
26695 
26710 
26713 
26714 
26743 
26778 
26758 
26726 
26722 
26738 
26758 
26799 
26816 
26797 
26815 
26835 
26831 
26822 
26784 
26761 
26736 
26697 
26681 
26636 
26625 
26666 
26651 
26601 
26562 
26504 
26441 
26409 
26390 
26342 
26297 
26272 
26243 
26221 
26205 
26215 
26211 
26186 
26186 
26187 
26164 
26150 
26150 
26170 
26167 
26172 
26169 
26132 
26112 
26093 
26103 
26112 
26148 
26196 
26201 
26191 
26179 
26154 
26139 
26141 
26128 
26142 
26159 
26197 
26234 
26252 
26246 
26265 
26245 
26205 
26173 
26159 
26148 
26136 
26134 
26134 
26110 
26078 
26054 
26039 
26015 
25961 
25906 
25895 
25901 
25879 
25843 
25822 
25778 
25724 
25668 
25622 
25574 
25546 
25523 
25507 
25510 
25519 
25513 
25531 
25540 
25556 
25568 
25576 
25613 
25605 
25605 
25635 
25668 
25682 
25697 
25749 
25774 
25809 
25883 
25914 
25929 
25919 
25903 
25920 
25940 
25971 
26037 
26099 
26132 
26188 
26213 
26243 
26256 
26280 
26313 
26339 
26371 
26420 
26441 
26494 
26533 
26577 
26661 
26694 
26704 
26752 
26796 
26827 
26869 
26909 
26925 
26980 
27018 
27046 
27077 
27104 
27114 
27153 
27221 
27255 
27294 
27319 
27336 
27361 
27397 
27440 
27505 
27556 
27579 
27599 
27624 
27637 
27639 
27635 
27651 
27711 
27775 
27824 
27858 
27897 
27917 
27913 
27932 
28006 
28030 
28021 
28005 
28003 
27996 
28023 
28035 
28034 
28041 
28057 
28050 
28047 
28038 
28048 
28070 
28058 
28060 
28059 
28086 
28090 
28099 
28111 
28099 
28108 
28098 
28105 
28130 
28167 
28186 
28188 
28215 
28251 
28254 
28253 
28256 
28262 
28258 
28268 
28240 
28209 
28224 
28252 
28253 
28252 
28265 
28299 
28294 
28287 
28275 
28294 
28314 
28318 
28312 
28323 
28352 
28337 
28309 
28318 
28327 
28328 
28340 
28310 
28283 
28304 
28316 
28302 
28289 
28239 
28233 
28226 
28223 
28247 
28277 
28263 
28214 
28197 
28206 
28205 
28180 
28164 
28131 
28092 
28058 
28039 
28060 
28034 
27996 
27942 
27892 
27882 
27847 
27826 
27834 
27836 
27868 
27873 
27868 
27840 
27791 
27769 
27782 
27791 
27752 
27703 
27673 
27644 
27640 
27630 
27621 
27597 
27579 
27568 
27554 
27538 
27560 
27572 
27554 
27552 
27547 
27487 
27450 
27445 
27428 
27414 
27423 
27406 
27366 
27355 
27348 
27342 
27345 
27332 
27306 
27317 
27320 
27283 
27273 
27265 
27231 
27210 
27207 
27192 
27188 
27179 
27191 
27180 
27169 
27175 
27173 
27157 
27127 
27098 
27076 
27060 
27066 
27100 
27092 
27078 
27062 
27033 
27026 
27014 
27007 
26990 
26970 
26987 
27004 
27007 
27007 
26987 
26975 
26958 
26945 
26938 
26920 
26910 
26912 
26907 
26895 
26891 
26879 
26882 
26887 
26875 
26879 
26877 
26845 
26816 
26823 
26815 
26802 
26798 
26804 
26787 
26804 
26795 
26787 
26775 
26784 
26785 
26761 
26743 
26735 
26736 
26768 
26799 
26820 
26803 
26767 
26759 
26763 
26760 
26745 
26707 
26676 
26684 
26712 
26727 
26702 
26688 
26710 
26712 
26695 
26698 
26716 
26711 
26700 
26689 
26684 
26674 
26649 
26645 
26651 
26624 
26608 
26639 
26622 
26617 
26658 
26695 
26669 
26644 
26623 
26624 
26642 
26648 
26655 
26671 
26672 
26657 
26638 
26630 
26602 
26586 
26597 
26641 
26661 
26637 
26615 
26582 
26556 
26536 
26532 
26534 
26526 
26516 
26538 
26572 
26582 
26571 
26546 
26519 
26494 
26494 
26514 
26509 
26527 
26543 
26544 
26536 
26533 
26548 
26552 
26571 
26567 
26575 
26606 
26614 
26600 
26578 
26556 
26555 
26561 
26548 
26524 
26537 
26558 
26540 
26552 
26578 
26571 
26548 
26542 
26550 
26555 
26541 
26571 
26567 
26566 
26568 
26581 
26569 
26558 
26568 
26562 
26555 
26599 
26606 
26578 
26550 
26542 
26531 
26517 
26519 
26531 
26545 
26563 
26581 
26568 
26554 
26545 
26546 
26523 
26514 
26511 
26513 
26525 
26539 
26534 
26537 
26530 
26534 
26543 
26567 
26585 
26566 
26531 
26543 
26537 
26511 
26505 
26518 
26549 
26556 
26547 
26533 
26554 
26552 
26552 
26547 
26549 
26541 
26549 
26539 
26512 
26517 
26541 
26521 
26508 
26493 
26495 
26505 
26488 
26479 
26464 
26464 
26512 
26542 
26521 
26469 
26478 
26483 
26469 
26447 
26446 
26452 
26445 
26467 
26486 
26477 
26445 
26441 
26459 
26469 
26451 
26429 
26463 
26484 
26495 
26496 
26489 
26473 
26459 
26439 
26429 
26449 
26462 
26462 
26463 
26473 
26485 
26478 
26468 
26451 
26426 
26413 
26435 
26462 
26481 
26486 
26456 
26438 
26446 
26442 
26441 
26470 
26483 
26479 
26461 
26448 
26447 
26434 
26434 
26452 
26468 
26459 
26465 
26462 
26455 
26467 
26478 
26484 
26476 
26477 
26475 
26459 
26472 
26469 
26460 
26442 
26408 
26406 
26415 
26419 
26439 
26448 
26418 
26399 
26429 
26442 
26422 
26415 
26415 
26422 
26476 
26513 
26528 
26537 
26526 
26503 
26512 
26510 
26490 
26488 
26495 
26498 
26490 
26488 
26498 
26496 
26483 
26483 
26495 
26502 
26498 
26480 
26460 
26458 
26450 
26448 
26448 
26459 
26478 
26464 
26464 
26475 
26473 
26466 
26464 
26456 
26432 
26444 
26469 
26491 
26498 
26469 
26445 
26464 
26496 
26521 
26530 
26511 
26520 
26509 
26481 
26464 
26470 
26462 
26463 
26492 
26505 
26490 
26488 
26496 
26507 
26491 
26481 
26479 
26480 
26516 
26523 
26525 
26538 
26522 
26515 
26496 
26475 
26456 
26471 
26525 
26508 
26483 
26482 
26490 
26485 
26452 
26441 
26438 
26418 
26441 
26453 
26464 
26470 
26493 
26497 
26472 
26468 
26477 
26505 
26523 
26522 
26510 
26497 
26501 
26490 
26459 
26438 
26422 
26444 
26463 
26453 
26445 
26449 
26467 
26472 
26482 
26477 
26461 
26482 
26495 
26489 
26501 
26492 
26457 
26435 
26427 
26429 
26439 
26459 
26457 
26456 
26449 
26446 
26467 
26473 
26446 
26449 
26492 
26501 
26485 
26472 
26442 
26420 
26395 
26393 
26391 
26387 
26381 
26431 
26455 
26458 
26445 
26441 
26418 
26417 
26415 
26429 
26451 
26469 
26461 
26447 
26423 
26410 
26423 
26431 
26428 
26412 
26404 
26438 
26447 
26429 
26427 
26455 
26456 
26467 
26464 
26443 
26434 
26429 
26416 
26406 
26386 
26412 
26447 
26457 
26458 
26466 
26490 
26485 
26471 
26441 
26424 
26415 
26417 
26421 
26414 
26425 
26439 
26436 
26422 
26416 
26424 
26438 
26438 
26432 
26440 
26436 
26421 
26417 
26433 
26439 
26447 
26422 
26414 
26418 
26419 
26428 
26448 
26432 
26406 
26387 
26382 
26374 
26402 
26399 
26382 
26358 
26349 
26352 
26355 
26370 
26377 
26364 
26392 
26411 
26383 
26366 
26371 
26389 
26381 
26347 
26325 
26345 
26373 
26389 
26397 
26410 
26412 
26392 
26369 
26362 
26378 
26388 
26383 
26379 
26371 
26357 
26361 
26375 
26398 
26423 
26427 
26415 
26411 
26402 
26404 
26401 
26402 
26407 
26397 
26404 
26401 
26398 
26395 
26405 
26404 
26399 
26385 
26394 
26417 
26406 
26386 
26391 
26372 
26379 
26386 
26398 
26391 
26373 
26385 
26412 
26413 
26397 
26388 
26383 
26371 
26382 
26372 
26369 
26379 
26374 
26380 
26395 
26388 
26352 
26344 
26356 
26347 
26369 
26378 
26374 
26360 
26351 
26352 
26356 
26367 
26372 
26387 
26376 
26373 
26381 
26368 
26347 
26327 
26323 
26325 
26360 
26377 
26366 
26355 
26351 
26325 
26307 
26327 
26337 
26317 
26301 
26307 
26343 
26355 
26347 
26343 
26338 
26340 
26331 
26321 
26342 
26358 
26348 
26332 
26333 
26319 
26311 
26322 
26321 
26314 
26324 
26303 
26287 
26293 
26315 
26329 
26331 
26320 
26359 
26391 
26359 
26339 
26333 
26334 
26331 
26336 
26350 
26366 
26384 
26359 
26327 
26309 
26300 
26291 
26293 
26295 
26286 
26273 
26296 
26346 
26346 
26320 
26287 
26272 
26268 
26272 
26263 
26248 
26260 
26275 
26293 
26316 
26320 
26314 
26303 
26294 
26280 
26287 
26302 
26317 
26323 
26333 
26321 
26307 
26303 
26305 
26302 
26297 
26313 
26325 
26314 
26307 
26293 
26292 
26286 
26279 
26266 
26251 
26245 
26275 
26278 
26278 
26283 
26290 
26293 
26297 
26291 
26299 
26344 
26344 
26334 
26330 
26325 
26324 
26309 
26284 
26271 
26282 
26334 
26377 
26367 
26367 
26361 
26352 
26346 
26355 
26347 
26340 
26366 
26367 
26355 
26352 
26348 
26337 
26328 
26304 
26292 
26306 
26326 
26307 
26305 
26320 
26317 
26321 
26314 
26303 
26321 
26314 
26293 
26281 
26269 
26247 
26257 
26278 
26262 
26233 
26224 
26240 
26255 
26252 
26236 
26217 
26192 
26182 
26172 
26162 
26172 
26199 
26197 
26176 
26162 
26153 
26148 
26156 
26143 
26131 
26160 
26169 
26159 
26140 
26118 
26101 
26090 
26092 
26098 
26095 
26114 
26125 
26108 
26096 
26108 
26106 
26090 
26078 
26085 
26103 
26120 
26124 
26138 
26155 
26169 
26170 
26165 
26152 
26146 
26153 
26182 
26177 
26160 
26149 
26148 
26153 
26149 
26135 
26165 
26180 
26182 
26180 
26180 
26181 
26190 
26164 
26145 
26170 
26222 
26218 
26196 
26200 
26207 
26209 
26209 
26229 
26242 
26241 
26233 
26222 
26205 
26222 
26233 
26232 
26226 
26226 
26217 
26203 
26199 
26208 
26215 
26212 
26201 
26201 
26218 
26250 
26231 
26231 
26231 
26234 
26250 
26264 
26269 
26266 
26252 
26256 
26278 
26287 
26288 
26298 
26309 
26303 
26323 
26329 
26323 
26311 
26308 
26291 
26306 
26324 
26310 
26317 
26352 
26350 
26343 
26336 
26316 
26303 
26288 
26286 
26303 
26332 
26363 
26376 
26386 
26386 
26373 
26354 
26336 
26338 
26344 
26360 
26353 
26359 
26362 
26358 
26363 
26357 
26351 
26350 
26338 
26346 
26348 
26351 
26340 
26320 
26317 
26315 
26320 
26318 
26326 
26343 
26350 
26347 
26343 
26349 
26345 
26341 
26362 
26375 
26374 
26383 
26390 
26377 
26349 
26327 
26323 
26330 
26327 
26317 
26351 
26377 
26373 
26368 
26344 
26343 
26349 
26356 
26351 
26352 
26360 
26343 
26337 
26325 
26323 
26308 
26269 
26261 
26289 
26305 
26298 
26277 
26261 
26255 
26253 
26236 
26220 
26184 
26148 
26142 
26143 
26106 
26070 
26091 
26083 
26037 
26015 
25985 
25970 
25969 
25973 
25999 
25990 
25974 
25961 
25960 
25964 
25956 
25934 
25913 
25904 
25902 
25873 
25872 
25904 
25898 
25870 
25859 
25857 
25876 
25877 
25869 
25867 
25852 
25836 
25829 
25828 
25842 
25874 
25895 
25903 
25902 
25907 
25903 
25902 
25902 
25909 
25929 
25932 
25930 
25929 
25918 
25930 
25922 
25896 
25894 
25934 
25970 
25991 
25995 
25993 
26000 
25991 
25980 
25997 
26021 
26043 
26045 
26061 
26051 
26040 
26032 
26039 
26048 
26062 
26080 
26085 
26083 
26077 
26066 
26087 
26098 
26127 
26184 
26203 
26205 
26219 
26231 
26234 
26232 
26209 
26206 
26219 
26216 
26241 
26253 
26259 
26257 
26261 
26248 
26248 
26263 
26282 
26298 
26299 
26292 
26279 
26278 
26282 
26285 
26301 
26336 
26336 
26330 
26329 
26336 
26335 
26334 
26331 
26341 
26364 
26382 
26385 
26392 
26388 
26380 
26375 
26371 
26355 
26377 
26387 
26398 
26408 
26393 
26389 
26384 
26379 
26372 
26366 
26384 
26380 
26361 
26365 
26370 
26357 
26360 
26365 
26383 
26415 
26425 
26428 
26419 
26415 
26422 
26431 
26438 
26432 
26451 
26464 
26461 
26465 
26456 
26463 
26459 
26433 
26413 
26414 
26421 
26402 
26387 
26384 
26389 
26394 
26395 
26386 
26392 
26418 
26433 
26421 
26407 
26397 
26404 
26401 
26401 
26395 
26391 
26406 
26414 
26396 
26389 
26389 
26380 
26371 
26393 
26426 
26417 
26419 
26421 
26408 
26395 
26375 
26359 
26356 
26355 
26367 
26381 
26377 
26360 
26348 
26320 
26288 
26282 
26287 
26281 
26290 
26288 
26279 
26243 
26191 
26159 
26139 
26125 
26108 
26102 
26104 
26093 
26087 
26088 
26079 
26049 
26037 
26033 
26024 
26036 
26048 
26045 
26027 
26019 
26002 
25972 
25967 
25951 
25932 
25928 
25946 
25945 
25941 
25940 
25934 
25931 
25914 
25905 
25907 
25949 
25946 
25918 
25908 
25937 
25953 
25952 
25940 
25943 
25945 
25961 
25960 
25968 
25966 
25970 
25972 
25975 
25969 
25981 
26015 
26030 
26024 
26030 
26034 
26031 
26031 
26029 
26040 
26043 
26068 
26076 
26090 
26091 
26097 
26085 
26071 
26086 
26104 
26135 
26139 
26115 
26121 
26138 
26144 
26161 
26168 
26184 
26183 
26174 
26162 
26165 
26174 
26186 
26221 
26272 
26289 
26277 
26263 
26248 
26236 
26248 
26251 
26235 
26240 
26275 
26293 
26301 
26317 
26322 
26306 
26309 
26319 
26309 
26310 
26338 
26330 
26336 
26355 
26363 
26367 
26375 
26388 
26408 
26432 
26439 
26430 
26426 
26417 
26399 
26406 
26418 
26404 
26418 
26448 
26463 
26474 
26471 
26450 
26449 
26462 
26461 
26464 
26498 
26490 
26466 
26458 
26459 
26453 
26443 
26449 
26444 
26434 
26452 
26471 
26469 
26479 
26478 
26479 
26469 
26451 
26446 
26461 
26485 
26491 
26488 
26476 
26488 
26483 
26474 
26457 
26457 
26476 
26485 
26501 
26519 
26518 
26503 
26485 
26476 
26464 
26494 
26513 
26505 
26478 
26477 
26466 
26459 
26484 
26497 
26516 
26499 
26482 
26465 
26459 
26463 
26466 
26443 
26414 
26409 
26421 
26408 
26391 
26377 
26370 
26331 
26283 
26265 
26232 
26180 
26142 
26114 
26100 
26067 
26033 
26022 
25986 
25964 
25932 
25889 
25862 
25842 
25853 
25838 
25807 
25802 
25789 
25754 
25727 
25718 
25722 
25743 
25728 
25683 
25668 
25669 
25649 
25634 
25608 
25596 
25603 
25596 
25617 
25639 
25622 
25618 
25607 
25589 
25591 
25592 
25585 
25582 
25576 
25596 
25580 
25608 
25640 
25658 
25663 
25669 
25666 
25667 
25708 
25724 
25714 
25732 
25751 
25750 
25767 
25781 
25792 
25828 
25855 
25869 
25891 
25904 
25903 
25908 
25942 
25964 
25994 
26020 
26048 
26040 
26035 
26040 
26065 
26072 
26084 
26105 
26130 
26142 
26155 
26169 
26168 
26179 
26219 
26239 
26241 
26237 
26221 
26227 
26236 
26260 
26287 
26306 
26359 
26371 
26375 
26377 
26388 
26399 
26402 
26414 
26431 
26467 
26492 
26494 
26501 
26534 
26550 
26549 
26545 
26540 
26542 
26528 
26507 
26501 
26527 
26542 
26540 
26552 
26547 
26566 
26617 
26617 
26616 
26606 
26598 
26591 
26609 
26637 
26663 
26691 
26685 
26668 
26643 
26629 
26638 
26654 
26656 
26652 
26651 
26657 
26675 
26680 
26663 
26645 
26642 
26638 
26643 
26674 
26685 
26667 
26666 
26654 
26652 
26677 
26717 
26729 
26709 
26708 
26701 
26696 
26704 
26714 
26726 
26747 
26755 
26743 
26731 
26717 
26707 
26712 
26725 
26730 
26730 
26744 
26731 
26721 
26700 
26676 
26677 
26672 
26685 
26713 
26724 
26730 
26718 
26716 
26701 
26711 
26725 
26731 
26724 
26693 
26678 
26665 
26652 
26617 
26584 
26551 
26507 
26467 
26411 
26346 
26301 
26242 
26211 
26177 
26118 
26053 
26022 
25998 
25954 
25917 
25903 
25871 
25811 
25747 
25689 
25637 
25579 
25551 
25517 
25504 
25494 
25466 
25430 
25413 
25414 
25394 
25379 
25348 
25307 
25275 
25270 
25277 
25284 
25300 
25289 
25277 
25269 
25270 
25273 
25259 
25254 
25269 
25282 
25307 
25315 
25305 
25316 
25339 
25349 
25373 
25395 
25416 
25460 
25473 
25457 
25465 
25458 
25474 
25495 
25518 
25552 
25601 
25617 
25622 
25643 
25666 
25679 
25686 
25686 
25675 
25698 
25772 
25804 
25809 
25815 
25830 
25848 
25854 
25846 
25871 
25910 
25931 
25971 
25998 
26001 
26019 
26039 
26077 
26118 
26142 
26178 
26164 
26137 
26153 
26178 
26194 
26235 
26284 
26318 
26320 
26325 
26344 
26355 
26361 
26404 
26450 
26468 
26481 
26493 
26482 
26480 
26503 
26516 
26537 
26541 
26554 
26569 
26584 
26606 
26612 
26616 
26624 
26633 
26661 
26686 
26669 
26642 
26638 
26645 
26654 
26700 
26727 
26732 
26728 
26735 
26770 
26792 
26786 
26763 
26775 
26821 
26854 
26855 
26855 
26848 
26850 
26871 
26910 
26940 
26930 
26922 
26923 
26925 
26933 
26945 
26951 
26983 
27004 
26981 
26967 
26978 
26982 
26990 
26997 
27007 
27010 
27042 
27060 
27085 
27099 
27080 
27080 
27085 
27065 
27082 
27116 
27110 
27118 
27122 
27101 
27110 
27128 
27122 
27131 
27144 
27135 
27130 
27110 
27107 
27092 
27077 
27078 
27074 
27069 
27105 
27130 
27144 
27161 
27144 
27153 
27173 
27180 
27188 
27172 
27164 
27145 
27082 
27024 
26989 
26941 
26885 
26820 
26768 
26711 
26656 
26617 
26557 
26495 
26442 
26410 
26378 
26316 
26255 
26175 
26097 
26056 
26021 
26009 
26025 
26009 
26006 
25984 
25923 
25868 
25831 
25813 
25815 
25844 
25878 
25850 
25826 
25803 
25792 
25789 
25788 
25793 
25831 
25878 
25890 
25868 
25860 
25885 
25916 
25924 
25914 
25928 
25963 
26014 
26063 
26072 
26099 
26126 
26149 
26171 
26181 
26228 
26245 
26230 
26237 
26256 
26279 
26311 
26334 
26363 
26379 
26408 
26426 
26418 
26416 
26409 
26451 
26507 
26506 
26509 
26539 
26557 
26583 
26602 
26600 
26624 
26667 
26703 
26724 
26725 
26744 
26749 
26759 
26781 
26839 
26879 
26890 
26874 
26856 
26853 
26882 
26905 
26938 
26946 
26936 
26933 
26957 
26986 
27026 
27064 
27108 
27104 
27089 
27088 
27117 
27150 
27176 
27183 
27190 
27243 
27267 
27263 
27255 
27265 
27268 
27254 
27249 
27250 
27252 
27294 
27308 
27307 
27326 
27345 
27371 
27368 
27393 
27387 
27394 
27388 
27375 
27393 
27400 
27382 
27376 
27354 
27361 
27406 
27449 
27480 
27452 
27418 
27406 
27417 
27439 
27421 
27424 
27465 
27467 
27463 
27457 
27450 
27405 
27376 
27394 
27409 
27424 
27459 
27458 
27447 
27452 
27451 
27445 
27429 
27420 
27378 
27389 
27437 
27439 
27430 
27419 
27443 
27472 
27471 
27490 
27511 
27498 
27494 
27499 
27499 
27487 
27502 
27494 
27451 
27422 
27428 
27422 
27447 
27468 
27444 
27431 
27423 
27412 
27396 
27369 
27323 
27309 
27312 
27298 
27277 
27224 
27147 
27067 
26951 
26864 
26826 
26758 
26663 
26589 
26521 
26457 
26403 
26352 
26264 
26221 
26179 
26132 
26089 
26029 
25954 
25904 
25901 
25881 
25840 
25806 
25809 
25793 
25771 
25754 
25728 
25706 
25689 
25682 
25694 
25727 
25739 
25750 
25775 
25805 
25836 
25861 
25892 
25910 
25924 
25964 
26035 
26111 
26141 
26144 
26177 
26230 
26272 
26305 
26317 
26337 
26359 
26406 
26428 
26457 
26492 
26506 
26514 
26514 
26508 
26553 
26597 
26622 
26624 
26639 
26664 
26679 
26717 
26741 
26777 
26799 
26859 
26919 
26946 
26963 
26956 
27011 
27060 
27060 
27048 
27050 
27102 
27138 
27158 
27203 
27291 
27321 
27331 
27351 
27372 
27380 
27386 
27465 
27546 
27574 
27575 
27568 
27598 
27647 
27653 
27662 
27678 
27665 
27666 
27670 
27698 
27736 
27753 
27799 
27828 
27821 
27837 
27843 
27857 
27872 
27900 
27942 
27961 
27973 
27980 
27969 
27951 
27947 
27936 
27958 
28007 
28063 
28079 
28076 
28070 
28068 
28053 
28068 
28085 
28074 
28059 
28065 
28062 
28040 
28041 
28042 
28055 
28070 
28054 
28039 
28057 
28086 
28105 
28090 
28063 
28048 
28049 
28044 
28040 
28013 
28023 
28036 
28014 
27984 
27979 
27978 
27976 
27987 
27958 
27950 
27963 
27984 
27980 
27990 
27980 
27967 
27958 
27935 
27947 
27934 
27913 
27944 
27927 
27913 
27909 
27897 
27911 
27903 
27902 
27922 
27913 
27888 
27891 
27870 
27857 
27832 
27812 
27805 
27785 
27743 
27704 
27706 
27626 
27567 
27480 
27374 
27313 
27241 
27130 
26999 
26889 
26768 
26646 
26512 
26402 
26312 
26224 
26140 
26023 
25931 
25877 
25788 
25687 
25644 
25595 
25514 
25434 
25395 
25372 
25325 
25301 
25259 
25206 
25167 
25139 
25172 
25161 
25134 
25156 
25168 
25204 
25237 
25275 
25316 
25361 
25377 
25399 
25438 
25503 
25542 
25570 
25622 
25648 
25685 
25752 
25828 
25879 
25949 
26053 
26115 
26194 
26276 
26319 
26371 
26425 
26460 
26479 
26507 
26540 
26628 
26697 
26735 
26754 
26777 
26839 
26869 
26916 
26965 
26982 
27007 
27091 
27139 
27150 
27148 
27157 
27202 
27244 
27292 
27298 
27298 
27329 
27384 
27459 
27516 
27567 
27598 
27637 
27682 
27732 
27759 
27740 
27734 
27749 
27787 
27858 
27910 
28011 
28071 
28069 
28099 
28144 
28147 
28145 
28187 
28230 
28278 
28328 
28304 
28288 
28322 
28380 
28428 
28461 
28503 
28486 
28484 
28495 
28520 
28529 
28517 
28570 
28619 
28642 
28641 
28690 
28744 
28733 
28734 
28734 
28758 
28782 
28790 
28799 
28756 
28717 
28729 
28748 
28770 
28762 
28736 
28757 
28766 
28728 
28718 
28710 
28721 
28752 
28735 
28727 
28747 
28758 
28753 
28770 
28782 
28789 
28770 
28709 
28655 
28648 
28688 
28709 
28715 
28726 
28724 
28739 
28740 
28719 
28700 
28695 
28657 
28596 
28600 
28598 
28547 
28522 
28572 
28576 
28559 
28571 
28567 
28555 
28501 
28454 
28440 
28423 
28408 
28388 
28344 
28342 
28339 
28312 
28337 
28311 
28276 
28256 
28278 
28269 
28221 
28200 
28180 
28163 
28099 
27998 
27899 
27747 
27618 
27477 
27379 
27249 
27078 
26905 
26724 
26615 
26489 
26341 
26200 
26082 
25967 
25840 
25699 
25598 
25526 
25433 
25345 
25272 
25150 
25058 
25034 
24998 
24943 
24910 
24859 
24811 
24781 
24770 
24740 
24780 
24835 
24850 
24894 
24939 
24943 
24966 
25033 
25125 
25168 
25232 
25318 
25409 
25484 
25542 
25602 
25663 
25746 
25853 
25939 
26005 
26116 
26196 
26258 
26340 
26400 
26448 
26499 
26542 
26613 
26665 
26710 
26780 
26864 
26862 
26903 
27001 
27055 
27078 
27099 
27111 
27152 
27183 
27237 
27308 
27355 
27415 
27480 
27545 
27594 
27621 
27674 
27738 
27771 
27806 
27848 
27889 
27951 
28006 
28031 
28036 
28024 
28059 
28152 
28226 
28308 
28364 
28390 
28436 
28489 
28532 
28569 
28594 
28610 
28648 
28686 
28652 
28620 
28667 
28696 
28748 
28759 
28795 
28850 
28897 
28892 
28911 
28953 
29018 
29084 
29100 
29112 
29100 
29115 
29146 
29126 
29168 
29168 
29161 
29156 
29153 
29202 
29240 
29269 
29278 
29292 
29344 
29367 
29377 
29391 
29362 
29399 
29428 
29418 
29397 
29377 
29382 
29349 
29349 
29375 
29386 
29364 
29353 
29388 
29418 
29375 
29330 
29346 
29383 
29399 
29391 
29405 
29396 
29392 
29362 
29343 
29364 
29328 
29278 
29261 
29246 
29244 
29241 
29243 
29239 
29198 
29195 
29167 
29175 
29198 
29172 
29139 
29133 
29138 
29125 
29104 
29088 
29088 
29052 
29005 
29000 
28995 
28947 
28920 
28964 
28989 
28935 
28883 
28886 
28883 
28829 
28772 
28704 
28633 
28504 
28400 
28329 
28198 
28060 
27890 
27657 
27456 
27300 
27118 
26934 
26746 
26568 
26386 
26227 
26116 
25970 
25843 
25773 
25701 
25577 
25438 
25317 
25220 
25143 
25072 
25065 
25019 
24938 
24950 
24956 
24930 
24892 
24862 
24907 
24934 
24962 
24980 
25012 
25024 
25035 
25101 
25192 
25258 
25323 
25404 
25455 
25510 
25573 
25661 
25775 
25924 
26004 
26077 
26162 
26241 
26368 
26445 
26488 
26566 
26662 
26787 
26849 
26889 
26918 
26945 
27022 
27116 
27199 
27241 
27222 
27249 
27333 
27407 
27444 
27468 
27466 
27459 
27522 
27573 
27560 
27614 
27653 
27666 
27722 
27818 
27925 
27971 
28020 
28053 
28090 
28142 
28194 
28249 
28318 
28369 
28400 
28481 
28501 
28485 
28527 
28644 
28795 
28881 
28898 
28938 
28985 
28982 
29043 
29084 
29101 
29158 
29218 
29269 
29290 
29310 
29346 
29366 
29381 
29399 
29419 
29414 
29431 
29494 
29567 
29581 
29611 
29649 
29610 
29615 
29634 
29635 
29677 
29699 
29709 
29705 
29712 
29746 
29788 
29785 
29801 
29812 
29815 
29818 
29831 
29839 
29863 
29869 
29879 
29827 
29817 
29822 
29785 
29747 
29746 
29770 
29749 
29776 
29786 
29764 
29768 
29760 
29761 
29755 
29738 
29718 
29695 
29700 
29738 
29726 
29671 
29622 
29622 
29616 
29579 
29578 
29559 
29530 
29511 
29546 
29532 
29508 
29472 
29447 
29425 
29423 
29405 
29379 
29375 
29376 
29401 
29350 
29254 
29164 
29065 
28950 
28825 
28654 
28434 
28218 
28007 
27766 
27543 
27306 
27043 
26815 
26655 
26483 
26323 
26130 
25958 
25780 
25592 
25414 
25269 
25174 
25098 
25029 
24902 
24818 
24741 
24675 
24606 
24547 
24509 
24497 
24520 
24522 
24525 
24548 
24547 
24558 
24596 
24590 
24602 
24648 
24734 
24854 
24915 
24940 
24992 
25099 
25262 
25366 
25453 
25578 
25695 
25749 
25851 
25959 
26095 
26224 
26315 
26439 
26558 
26626 
26667 
26736 
26799 
26844 
26926 
26972 
27017 
27096 
27144 
27151 
27201 
27261 
27296 
27328 
27378 
27428 
27447 
27467 
27499 
27515 
27573 
27635 
27716 
27810 
27913 
27990 
28057 
28153 
28238 
28282 
28321 
28354 
28469 
28498 
28562 
28637 
28693 
28781 
28854 
28924 
28978 
29050 
29116 
29164 
29226 
29242 
29240 
29280 
29324 
29404 
29431 
29452 
29525 
29645 
29755 
29803 
29816 
29828 
29844 
29885 
29914 
29967 
29997 
30013 
30036 
30058 
30112 
30176 
30160 
30184 
30201 
30239 
30302 
30297 
30314 
30347 
30312 
30237 
30170 
30201 
30205 
30213 
30261 
30289 
30282 
30222 
30197 
30217 
30216 
30235 
30244 
30198 
30190 
30199 
30173 
30179 
30181 
30196 
30196 
30209 
30258 
30237 
30224 
30203 
30211 
30221 
30221 
30220 
30231 
30226 
30190 
30197 
30208 
30198 
30195 
30166 
30148 
30180 
30187 
30236 
30208 
30176 
30167 
30123 
30090 
30070 
30056 
30065 
30060 
30063 
30064 
30032 
29999 
29958 
29945 
29925 
29891 
29830 
29809 
29775 
29671 
29531 
29389 
29239 
29064 
28840 
28630 
28380 
28106 
27901 
27668 
27417 
27129 
26833 
26560 
26321 
26060 
25849 
25654 
25484 
25291 
25137 
24965 
24832 
24693 
24571 
24454 
24325 
24218 
24134 
24032 
23918 
23880 
23890 
23858 
23795 
23764 
23772 
23758 
23777 
23797 
23877 
23915 
23936 
23965 
24016 
24051 
24109 
24259 
24368 
24474 
24545 
24650 
24787 
24933 
25059 
25180 
25286 
25418 
25541 
25646 
25769 
25930 
26104 
26235 
26350 
26503 
26576 
26651 
26728 
26767 
26847 
26924 
27012 
27087 
27180 
27272 
27314 
27333 
27351 
27398 
27440 
27516 
27520 
27575 
27651 
27702 
27784 
27901 
27994 
28063 
28156 
28233 
28304 
28430 
28521 
28632 
28755 
28844 
28930 
29025 
29078 
29173 
29261 
29334 
29433 
29558 
29637 
29692 
29732 
29839 
29953 
30041 
30137 
30232 
30290 
30376 
30442 
30512 
30560 
30610 
30641 
30672 
30711 
30784 
30832 
30864 
30936 
30948 
30980 
30976 
31003 
31027 
31019 
31016 
31097 
31189 
31214 
31230 
31206 
31180 
31178 
31167 
31159 
31208 
31240 
31212 
31179 
31191 
31177 
31154 
31200 
31224 
31237 
31214 
31185 
31163 
31176 
31165 
31143 
31125 
31074 
31063 
31090 
31095 
31055 
31023 
30979 
30950 
30967 
30964 
30958 
30961 
30922 
30866 
30883 
30896 
30887 
30877 
30865 
30858 
30819 
30814 
30837 
30878 
30891 
30874 
30863 
30874 
30848 
30818 
30786 
30755 
30767 
30738 
30730 
30774 
30762 
30757 
30738 
30702 
30662 
30618 
30577 
30504 
30420 
30363 
30235 
30079 
29939 
29811 
29691 
29566 
29364 
29099 
28852 
28605 
28370 
28085 
27749 
27485 
27261 
26980 
26667 
26376 
26108 
25844 
25628 
25445 
25224 
25019 
24866 
24744 
24652 
24592 
24515 
24457 
24392 
24340 
24312 
24310 
24313 
24320 
24303 
24333 
24399 
24422 
24443 
24449 
24488 
24576 
24662 
24694 
24723 
24776 
24794 
24791 
24806 
24894 
24963 
25042 
25175 
25332 
25451 
25531 
25586 
25612 
25680 
25797 
25940 
26028 
26121 
26202 
26240 
26319 
26430 
26502 
26582 
26638 
26693 
26759 
26850 
26932 
27010 
27086 
27100 
27152 
27212 
27287 
27360 
27429 
27466 
27485 
27525 
27627 
27764 
27789 
27855 
27910 
27957 
28100 
28223 
28332 
28408 
28477 
28548 
28675 
28779 
28845 
28947 
29052 
29121 
29195 
29297 
29399 
29477 
29519 
29607 
29687 
29738 
29796 
29883 
29968 
30029 
30076 
30118 
30181 
30221 
30272 
30328 
30389 
30465 
30512 
30580 
30649 
30693 
30735 
30754 
30791 
30808 
30833 
30894 
30951 
30941 
30922 
30963 
30991 
30990 
30997 
31031 
31095 
31132 
31074 
31055 
31101 
31138 
31132 
31112 
31082 
31048 
31001 
31007 
31004 
31021 
31041 
31009 
30990 
30989 
31002 
31053 
31045 
31003 
30991 
30992 
30958 
30938 
30944 
30970 
30976 
31000 
30968 
30913 
30876 
30838 
30857 
30897 
30926 
30944 
30945 
30921 
30947 
30967 
30922 
30847 
30786 
30769 
30732 
30732 
30774 
30771 
30763 
30747 
30714 
30693 
30652 
30637 
30646 
30628 
30607 
30525 
30408 
30287 
30125 
29991 
29837 
29662 
29504 
29319 
29088 
28855 
28635 
28373 
28095 
27834 
27563 
27313 
27079 
26820 
26569 
26312 
26077 
25880 
25690 
25561 
25452 
25359 
25238 
25159 
25087 
25021 
24953 
24901 
24885 
24870 
24815 
24809 
24858 
24911 
24965 
24983 
25045 
25067 
25134 
25217 
25261 
25297 
25280 
25303 
25378 
25442 
25563 
25667 
25735 
25802 
25872 
25951 
26059 
26152 
26271 
26416 
26533 
26613 
26657 
26705 
26795 
26855 
26926 
27005 
27049 
27128 
27222 
27348 
27397 
27404 
27435 
27495 
27590 
27649 
27701 
27765 
27790 
27826 
27880 
27955 
27995 
28006 
28007 
28068 
28090 
28139 
28203 
28306 
28325 
28301 
28338 
28433 
28462 
28511 
28557 
28597 
28658 
28733 
28865 
28952 
28980 
29037 
29089 
29155 
29182 
29234 
29334 
29433 
29513 
29605 
29689 
29792 
29899 
29929 
29955 
30055 
30114 
30110 
30155 
30208 
30229 
30258 
30307 
30371 
30386 
30416 
30450 
30483 
30545 
30588 
30591 
30607 
30652 
30690 
30712 
30717 
30741 
30705 
30681 
30703 
30719 
30739 
30761 
30769 
30775 
30760 
30730 
30707 
30704 
30701 
30666 
30651 
30663 
30672 
30685 
30713 
30719 
30699 
30703 
30724 
30708 
30674 
30661 
30636 
30587 
30570 
30553 
30531 
30483 
30433 
30411 
30441 
30459 
30438 
30441 
30443 
30394 
30394 
30403 
30424 
30427 
30359 
30325 
30329 
30340 
30358 
30335 
30295 
30301 
30332 
30299 
30219 
30202 
30187 
30149 
30095 
30047 
30037 
30035 
30012 
30024 
30047 
30026 
30039 
30029 
30004 
29930 
29885 
29835 
29745 
29679 
29650 
29655 
29599 
29505 
29412 
29329 
29167 
28964 
28760 
28557 
28380 
28217 
28017 
27789 
27567 
27348 
27120 
26904 
26680 
26434 
26203 
25988 
25807 
25686 
25520 
25372 
25311 
25204 
25079 
25016 
24963 
24881 
24844 
24830 
24808 
24774 
24742 
24754 
24763 
24736 
24736 
24754 
24789 
24797 
24828 
24824 
24830 
24877 
24900 
24897 
24943 
25001 
25056 
25145 
25231 
25306 
25346 
25423 
25513 
25626 
25748 
25850 
25927 
26011 
26146 
26271 
26354 
26390 
26424 
26468 
26524 
26669 
26838 
26953 
27005 
27030 
27084 
27123 
27196 
27321 
27376 
27413 
27476 
27546 
27605 
27647 
27706 
27806 
27900 
28007 
28097 
28149 
28225 
28322 
28401 
28496 
28538 
28558 
28620 
28708 
28771 
28867 
28979 
29067 
29140 
29195 
29308 
29431 
29488 
29547 
29584 
29622 
29739 
29774 
29798 
29896 
29979 
30028 
30069 
30102 
30129 
30167 
30203 
30257 
30311 
30383 
30483 
30529 
30583 
30650 
30658 
30656 
30687 
30679 
30669 
30678 
30695 
30705 
30736 
30743 
30751 
30800 
30844 
30885 
30849 
30834 
30850 
30874 
30894 
30909 
30906 
30891 
30855 
30826 
30790 
30776 
30753 
30758 
30769 
30745 
30680 
30641 
30639 
30634 
30586 
30527 
30478 
30388 
30310 
30289 
30327 
30318 
30260 
30232 
30209 
30140 
30079 
30093 
30061 
30062 
30013 
29917 
29880 
29831 
29791 
29752 
29729 
29718 
29689 
29634 
29610 
29594 
29572 
29529 
29453 
29443 
29413 
29392 
29386 
29383 
29351 
29343 
29348 
29368 
29346 
29303 
29288 
29270 
29233 
29173 
29150 
29116 
29061 
29056 
29091 
29073 
29058 
29052 
28999 
28982 
28989 
28937 
28848 
28758 
28657 
28558 
28428 
28298 
28187 
28037 
27901 
27758 
27545 
27324 
27108 
26896 
26696 
26490 
26289 
26105 
25903 
25738 
25581 
25431 
25251 
25091 
24959 
24847 
24762 
24669 
24562 
24506 
24469 
24449 
24438 
24406 
24403 
24375 
24371 
24394 
24399 
24424 
24442 
24475 
24497 
24547 
24574 
24582 
24612 
24650 
24687 
24769 
24795 
24816 
24857 
24913 
24999 
25111 
25180 
25242 
25286 
25349 
25417 
25472 
25562 
25708 
25778 
25792 
25806 
25841 
25903 
25986 
26045 
26133 
26245 
26295 
26340 
26368 
26433 
26473 
26527 
26590 
26642 
26667 
26667 
26676 
26691 
26699 
26671 
26723 
26742 
26743 
26761 
26770 
26781 
26821 
26856 
26898 
26893 
26891 
26917 
26970 
27020 
27044 
27106 
27191 
27270 
27327 
27358 
27405 
27437 
27459 
27522 
27622 
27676 
27689 
27709 
27754 
27791 
27829 
27881 
27936 
27978 
28002 
28013 
27998 
28008 
28023 
28056 
28077 
28076 
28074 
28110 
28121 
28114 
28079 
28067 
28076 
28076 
28057 
28047 
28053 
28034 
28009 
27951 
27895 
27855 
27790 
27743 
27694 
27633 
27562 
27477 
27410 
27397 
27342 
27281 
27226 
27197 
27165 
27130 
27066 
27005 
26997 
27002 
26988 
27013 
26999 
26950 
26927 
26907 
26904 
26886 
26848 
26818 
26803 
26771 
26759 
26757 
26747 
26706 
26690 
26702 
26705 
26720 
26712 
26678 
26667 
26659 
26654 
26665 
26697 
26710 
26723 
26709 
26699 
26709 
26712 
26717 
26733 
26728 
26724 
26734 
26763 
26778 
26783 
26791 
26808 
26762 
26712 
26679 
26663 
26664 
26627 
26563 
26512 
26447 
26358 
26242 
26159 
26066 
25981 
25864 
25732 
25604 
25468 
25324 
25204 
25085 
24943 
24806 
24694 
24583 
24474 
24429 
24390 
24347 
24292 
24236 
24187 
24159 
24180 
24173 
24135 
24111 
24123 
24142 
24141 
24113 
24151 
24183 
24246 
24287 
24320 
24347 
24368 
24378 
24407 
24461 
24490 
24520 
24569 
24586 
24595 
24641 
24744 
24813 
24886 
24990 
25080 
25109 
25118 
25148 
25225 
25291 
25321 
25360 
25416 
25502 
25605 
25703 
25740 
25769 
25839 
25916 
25973 
26023 
26118 
26174 
26212 
26246 
26247 
26272 
26328 
26365 
26399 
26460 
26479 
26499 
26556 
26579 
26580 
26617 
26686 
26766 
26819 
26867 
26922 
26951 
26986 
26997 
27052 
27093 
27121 
27160 
27196 
27228 
27250 
27273 
27345 
27443 
27494 
27531 
27591 
27620 
27607 
27637 
27699 
27746 
27798 
27823 
27845 
27862 
27864 
27907 
27940 
27969 
28001 
28019 
28099 
28141 
28182 
28265 
28319 
28341 
28346 
28361 
28374 
28362 
28375 
28385 
28337 
28307 
28317 
28325 
28339 
28325 
28301 
28284 
28299 
28354 
28380 
28367 
28369 
28356 
28347 
28342 
28349 
28312 
28300 
28267 
28251 
28235 
28253 
28269 
28242 
28255 
28294 
28328 
28342 
28354 
28357 
28364 
28348 
28306 
28264 
28249 
28236 
28242 
28231 
28201 
28163 
28126 
28109 
28107 
28121 
28118 
28113 
28105 
28091 
28075 
28061 
28052 
28056 
28040 
28059 
28087 
28058 
28004 
27968 
27930 
27893 
27870 
27874 
27863 
27845 
27846 
27864 
27871 
27862 
27928 
27939 
27935 
27933 
27886 
27793 
