14017 
14026 
14022 
14053 
14082 
14051 
14033 
14050 
14027 
13979 
13910 
13900 
13893 
13895 
13862 
13826 
13805 
13788 
13751 
13721 
13724 
13715 
13710 
13688 
13684 
13676 
13664 
13628 
13665 
13670 
13658 
13680 
13696 
13671 
13673 
13650 
13655 
13678 
13680 
13657 
13679 
13696 
13695 
13662 
13646 
13661 
13694 
13679 
13647 
13672 
13670 
13655 
13668 
13680 
13671 
13653 
13659 
13663 
13682 
13690 
13678 
13668 
13676 
13676 
13655 
13675 
13696 
13687 
13669 
13666 
13703 
13701 
13698 
13687 
13727 
13760 
13717 
13672 
13696 
13704 
13677 
13673 
13703 
13704 
13673 
13640 
13634 
13672 
13700 
13665 
13665 
13673 
13672 
13659 
13679 
13695 
13690 
13670 
13664 
13691 
13684 
13702 
13733 
13721 
13724 
13698 
13714 
13753 
13768 
13760 
13724 
13725 
13764 
13772 
13752 
13773 
13806 
13824 
13799 
13783 
13777 
13765 
13758 
13757 
13787 
13770 
13754 
13733 
13748 
13715 
13711 
13702 
13704 
13724 
13703 
13641 
13640 
13705 
13736 
13694 
13683 
13722 
13731 
13705 
13699 
13713 
13728 
13699 
13737 
13803 
13857 
13885 
13857 
13832 
13865 
13967 
13952 
13790 
13694 
13705 
13748 
13771 
13787 
13778 
13752 
13773 
13764 
13776 
13792 
13805 
13840 
13860 
13826 
13814 
13801 
13799 
13832 
13839 
13845 
13844 
13837 
13830 
13853 
13854 
13868 
13887 
13898 
13900 
13923 
13947 
13940 
13950 
13978 
13983 
13946 
13984 
14029 
14006 
14000 
14033 
14038 
14044 
14032 
14079 
14127 
14132 
14120 
14151 
14158 
14182 
14195 
14220 
14251 
14263 
14242 
14227 
14229 
14225 
14183 
14146 
14103 
14068 
14067 
14046 
14016 
13964 
13925 
13905 
13904 
13892 
13888 
13866 
13860 
13846 
13841 
13831 
13825 
13828 
13839 
13820 
13795 
13800 
13824 
13829 
13797 
13801 
13774 
13743 
13739 
13759 
13746 
13739 
13744 
13736 
13732 
13739 
13719 
13746 
13757 
13743 
13717 
13695 
13697 
13706 
13683 
13664 
13691 
13688 
13667 
13644 
13626 
13652 
13656 
13639 
13640 
13658 
13640 
13587 
13616 
13637 
13635 
13619 
13597 
13602 
13625 
13618 
13629 
13633 
13630 
13616 
13579 
13595 
13611 
13614 
13626 
13637 
13643 
13646 
13621 
13616 
13632 
13628 
13598 
13618 
13623 
13613 
13586 
13575 
13580 
13596 
13605 
13611 
13631 
13646 
13629 
13597 
13615 
13637 
13615 
13583 
13585 
13601 
13617 
13578 
13582 
13580 
13560 
13557 
13569 
13571 
13583 
13579 
13600 
13610 
13609 
13590 
13568 
13613 
13650 
13640 
13630 
13666 
13729 
13721 
13740 
13831 
13856 
13739 
13706 
13825 
13892 
13771 
13630 
13678 
13736 
13743 
13727 
13740 
13752 
13752 
13740 
13749 
13756 
13739 
13731 
13749 
13745 
13756 
13788 
13769 
13775 
13787 
13764 
13743 
13793 
13801 
13794 
13791 
13798 
13792 
13786 
13784 
13792 
13802 
13804 
13806 
13804 
13825 
13851 
13852 
13854 
13873 
13829 
13771 
13742 
13758 
13754 
13805 
13807 
13835 
13891 
13887 
13881 
13905 
13935 
13921 
13888 
13921 
13956 
13947 
13914 
13892 
13882 
13851 
13809 
13776 
13753 
13727 
13717 
13678 
13644 
13653 
13624 
13595 
13619 
13615 
13605 
13577 
13592 
13578 
13565 
13588 
13612 
13634 
13624 
13596 
13595 
13624 
13640 
13621 
13609 
13627 
13617 
13594 
13608 
13634 
13658 
13629 
13610 
13614 
13651 
13666 
13623 
13624 
13633 
13632 
13601 
13596 
13638 
13640 
13621 
13612 
13631 
13640 
13613 
13606 
13612 
13613 
13612 
13603 
13627 
13628 
13619 
13614 
13595 
13630 
13668 
13619 
13638 
13635 
13622 
13597 
13607 
13636 
13639 
13622 
13624 
13641 
13637 
13610 
13599 
13619 
13646 
13634 
13611 
13628 
13635 
13626 
13646 
13687 
13689 
13673 
13679 
13689 
13695 
13719 
13718 
13742 
13744 
13731 
13700 
13687 
13694 
13693 
13671 
13659 
13664 
13652 
13633 
13639 
13662 
13645 
13620 
13597 
13591 
13603 
13608 
13593 
13613 
13615 
13603 
13582 
13594 
13602 
13592 
13583 
13574 
13604 
13668 
13664 
13685 
13756 
13800 
13711 
13690 
13834 
13902 
13727 
13535 
13581 
13615 
13627 
13642 
13652 
13632 
13638 
13632 
13646 
13672 
13657 
13639 
13649 
13671 
13678 
13659 
13677 
13701 
13692 
13671 
13672 
13679 
13695 
13712 
13691 
13718 
13725 
13713 
13699 
13709 
13737 
13764 
13756 
13759 
13798 
13819 
13834 
13836 
13860 
13883 
13875 
13891 
13909 
13933 
13962 
13962 
13996 
14029 
14034 
14023 
14071 
14098 
14122 
14104 
14101 
14113 
14127 
14082 
14062 
14043 
14017 
13983 
13981 
13958 
13935 
13893 
13856 
13835 
13830 
13826 
13800 
13804 
13794 
13760 
13740 
13748 
13735 
13742 
13723 
13755 
13776 
13760 
13735 
13733 
13729 
13760 
13750 
13740 
13738 
13751 
13737 
13729 
13742 
13730 
13731 
13723 
13736 
13729 
13727 
13733 
13757 
13755 
13758 
13750 
13751 
13757 
13744 
13746 
13746 
13771 
13784 
13766 
13756 
13775 
13780 
13753 
13739 
13781 
13773 
13760 
13752 
13771 
13804 
13822 
13770 
13757 
13765 
13781 
13775 
13777 
13791 
13789 
13783 
13786 
13792 
13807 
13774 
13761 
13786 
13774 
13793 
13814 
13854 
13877 
13868 
13857 
13865 
13848 
13859 
13850 
13866 
13893 
13908 
13890 
13892 
13872 
13869 
13871 
13899 
13926 
13908 
13891 
13869 
13875 
13861 
13841 
13827 
13829 
13824 
13812 
13797 
13806 
13812 
13814 
13785 
13792 
13824 
13820 
13794 
13804 
13808 
13803 
13778 
13820 
13861 
13875 
13913 
13964 
13906 
13852 
13903 
13997 
13977 
13814 
13733 
13771 
13796 
13784 
13792 
13804 
13808 
13822 
13819 
13817 
13836 
13825 
13822 
13817 
13815 
13829 
13826 
13807 
13800 
13815 
13831 
13814 
13812 
13824 
13818 
13810 
13798 
13814 
13818 
13843 
13837 
13830 
13843 
13863 
13849 
13874 
13892 
13896 
13875 
13867 
13888 
13918 
13918 
13914 
13924 
13938 
13932 
13935 
13978 
13995 
13992 
13992 
14019 
14029 
14040 
14021 
14021 
14013 
13968 
13942 
13933 
13909 
13872 
13807 
13793 
13772 
13731 
13698 
13676 
13675 
13679 
13654 
13633 
13617 
13617 
13619 
13599 
13601 
13615 
13633 
13601 
13605 
13613 
13604 
13568 
13573 
13608 
13605 
13591 
13593 
13616 
13652 
13609 
13590 
13614 
13629 
13622 
13628 
13642 
13631 
13621 
13626 
13639 
13642 
13629 
13617 
13617 
13600 
13615 
13604 
13599 
13622 
13611 
13596 
13598 
13599 
13584 
13577 
13586 
13595 
13595 
13570 
13554 
13570 
13584 
13586 
13564 
13564 
13556 
13553 
13539 
13558 
13569 
13586 
13584 
13577 
13592 
13591 
13562 
13575 
13608 
13618 
13619 
13620 
13623 
13640 
13644 
13649 
13675 
13663 
13633 
13610 
13618 
13674 
13673 
13635 
13641 
13658 
13660 
13613 
13604 
13620 
13616 
13597 
13603 
13617 
13618 
13593 
13581 
13604 
13626 
13602 
13567 
13602 
13632 
13627 
13613 
13618 
13659 
13689 
13715 
13781 
13787 
13727 
13684 
13811 
13888 
13743 
13590 
13622 
13692 
13700 
13695 
13671 
13690 
13707 
13694 
13690 
13702 
13698 
13697 
13691 
13717 
13734 
13730 
13718 
13736 
13761 
13785 
13740 
13728 
13781 
13794 
13758 
13766 
13796 
13828 
13831 
13825 
13846 
13848 
13832 
13833 
13873 
13889 
13886 
13881 
13922 
13942 
13946 
13936 
13980 
14004 
14019 
14003 
14039 
14093 
14107 
14100 
14128 
14155 
14165 
14162 
14164 
14164 
14169 
14157 
14111 
14098 
14069 
14029 
13989 
13972 
13952 
13912 
13874 
13859 
13862 
13855 
13824 
13814 
13829 
13815 
13797 
13783 
13776 
13806 
13791 
13780 
13780 
13818 
13803 
13784 
13796 
13789 
13779 
13780 
13795 
13791 
13799 
13793 
13795 
13788 
13792 
13790 
13797 
13790 
13786 
13786 
13762 
13785 
13822 
13788 
13763 
13787 
13788 
13782 
13762 
13810 
13822 
13812 
13768 
13793 
13820 
13825 
13792 
13775 
13804 
13813 
13785 
13769 
13802 
13826 
13800 
13773 
13807 
13822 
13802 
13799 
13802 
13803 
13792 
13777 
13797 
13817 
13795 
13772 
13774 
13804 
13807 
13783 
13783 
13800 
13809 
13797 
13806 
13844 
13836 
13806 
13814 
13830 
13864 
13875 
13868 
13880 
13881 
13894 
13902 
13882 
13868 
13897 
13868 
13879 
13891 
13888 
13860 
13856 
13852 
13834 
13822 
13820 
13810 
13807 
13794 
13777 
13785 
13798 
13821 
13823 
13847 
13843 
13830 
13807 
13822 
13836 
13842 
13834 
13887 
13947 
13992 
14021 
14061 
14037 
13999 
14091 
14187 
14075 
13883 
13869 
13898 
13933 
13919 
13897 
13898 
13929 
13923 
13925 
13921 
13917 
13915 
13928 
13949 
13948 
13961 
13966 
13947 
13964 
13991 
13979 
13953 
13958 
13982 
13999 
13989 
13970 
13991 
14004 
14015 
13987 
14018 
14060 
14053 
14034 
14044 
14101 
14094 
14057 
14073 
14083 
14085 
14099 
14127 
14175 
14176 
14165 
14210 
14250 
14257 
14239 
14248 
14264 
14279 
14289 
14278 
14288 
14261 
14217 
14207 
14219 
14190 
14142 
14094 
14062 
14044 
14034 
14006 
13998 
13997 
13970 
13936 
13942 
13969 
13960 
13945 
13936 
13938 
13931 
13922 
13914 
13934 
13935 
13916 
13897 
13901 
13922 
13931 
13902 
13928 
13912 
13880 
13904 
13935 
13949 
13956 
13917 
13913 
13958 
13939 
13907 
13914 
13966 
13956 
13931 
13948 
13962 
13937 
13920 
13942 
13992 
13968 
13925 
13903 
13923 
13950 
13945 
13924 
13894 
13913 
13933 
13943 
13937 
13945 
13948 
13925 
13933 
13933 
13931 
13922 
13895 
13916 
13924 
13925 
13921 
13923 
13933 
13917 
13891 
13909 
13920 
13898 
13878 
13900 
13909 
13901 
13895 
13914 
13932 
13926 
13917 
13907 
13928 
13949 
13940 
13937 
13938 
13932 
13898 
13872 
13899 
13904 
13904 
13889 
13890 
13916 
13904 
13844 
13834 
13866 
13864 
13828 
13825 
13835 
13841 
13819 
13792 
13823 
13822 
13821 
13819 
13816 
13819 
13816 
13811 
13837 
13879 
13882 
13895 
13972 
13970 
13880 
13859 
13978 
14043 
13895 
13767 
13805 
13844 
13844 
13827 
13815 
13849 
13873 
13838 
13820 
13823 
13843 
13822 
13812 
13853 
13856 
13858 
13820 
13822 
13841 
13839 
13833 
13831 
13853 
13852 
13830 
13849 
13870 
13868 
13852 
13859 
13874 
13871 
13878 
13867 
13898 
13884 
13879 
13887 
13928 
13968 
13970 
13943 
13953 
13985 
13993 
13987 
14005 
14039 
14063 
14055 
14049 
14099 
14108 
14084 
14080 
14090 
14070 
14029 
14006 
14022 
13989 
13945 
13901 
13869 
13855 
13820 
13759 
13777 
13778 
13766 
13709 
13711 
13765 
13761 
13703 
13694 
13709 
13729 
13706 
13693 
13692 
13684 
13681 
13673 
13686 
13690 
13665 
13650 
13702 
13698 
13673 
13672 
13712 
13718 
13698 
13690 
13692 
13710 
13707 
13694 
13683 
13706 
13708 
13699 
13682 
13688 
13717 
13730 
13714 
13715 
13713 
13713 
13686 
13700 
13713 
13692 
13662 
13689 
13697 
13681 
13673 
13672 
13657 
13674 
13657 
13660 
13675 
13695 
13688 
13658 
13667 
13686 
13678 
13666 
13674 
13701 
13723 
13694 
13700 
13716 
13717 
13691 
13699 
13725 
13729 
13718 
13736 
13770 
13785 
13748 
13730 
13745 
13735 
13723 
13760 
13759 
13737 
13739 
13719 
13707 
13712 
13700 
13678 
13703 
13705 
13681 
13680 
13680 
13705 
13698 
13668 
13677 
13706 
13712 
13689 
13691 
13707 
13713 
13713 
13729 
13762 
13826 
13850 
13834 
13780 
13787 
13891 
13937 
13825 
13700 
13696 
13717 
13732 
13737 
13735 
13707 
13710 
13739 
13758 
13731 
13724 
13755 
13753 
13740 
13734 
13745 
13744 
13750 
13726 
13759 
13791 
13774 
13754 
13760 
13796 
13793 
13766 
13787 
13798 
13797 
13782 
13790 
13836 
13856 
13832 
13853 
13891 
13903 
13884 
13872 
13901 
13922 
13929 
13943 
13982 
13996 
13992 
13994 
14046 
14078 
14074 
14056 
14071 
14126 
14119 
14089 
14072 
14091 
14089 
14029 
13980 
13964 
13932 
13885 
13844 
13827 
13807 
13780 
13754 
13774 
13794 
13760 
13710 
13703 
13713 
13732 
13709 
13709 
13732 
13722 
13670 
13673 
13745 
13738 
13694 
13686 
13701 
13699 
13690 
13713 
13719 
13711 
13721 
13709 
13707 
13701 
13723 
13721 
13720 
13747 
13728 
13696 
13733 
13749 
13730 
13713 
13707 
13734 
13737 
13716 
13729 
13735 
13745 
13728 
13717 
13723 
13708 
13718 
13720 
13725 
13727 
13719 
13722 
13743 
13742 
13725 
13699 
13708 
13710 
13710 
13697 
13688 
13714 
13728 
13727 
13729 
13721 
13718 
13703 
13701 
13722 
13716 
13708 
13711 
13758 
13765 
13755 
13759 
13759 
13766 
13785 
13767 
13807 
13844 
13859 
13847 
13806 
13832 
13843 
13829 
13827 
13844 
13834 
13820 
13832 
13838 
13828 
13799 
13785 
13822 
13827 
13828 
13808 
13814 
13803 
13808 
13813 
13848 
13876 
13847 
13810 
13809 
13874 
13894 
13895 
13921 
13971 
14047 
14073 
13996 
13990 
14101 
14134 
13976 
13842 
13854 
13880 
13864 
13878 
13896 
13910 
13911 
13916 
13916 
13926 
13903 
13909 
13938 
13967 
13931 
13925 
13958 
13971 
13958 
13931 
13989 
14015 
13989 
13976 
13999 
14012 
13997 
13974 
14009 
14023 
14028 
14000 
14021 
14076 
14088 
14074 
14078 
14108 
14113 
14105 
14118 
14140 
14152 
14159 
14182 
14224 
14249 
14240 
14236 
14271 
14296 
14298 
14294 
14312 
14329 
14321 
14283 
14274 
14291 
14266 
14217 
14157 
14125 
14102 
14052 
14075 
14067 
14042 
13989 
13958 
13984 
13990 
13965 
13933 
13956 
13972 
13958 
13941 
13970 
13978 
13963 
13929 
13938 
13956 
13960 
13942 
13956 
13958 
13959 
13941 
13945 
13960 
13960 
13948 
13935 
13965 
13974 
13944 
13942 
13989 
13996 
13987 
13990 
14006 
13994 
13992 
13978 
13995 
14001 
13982 
13959 
13965 
13959 
13980 
13985 
13970 
14006 
14002 
13977 
13941 
13959 
13971 
13932 
13935 
13949 
13944 
13951 
13924 
13934 
13948 
13927 
13913 
13921 
13924 
13914 
13902 
13916 
13952 
13936 
13918 
13908 
13933 
13939 
13923 
13930 
13959 
13955 
13947 
13952 
13994 
13966 
13944 
13924 
13929 
13956 
13975 
13935 
13899 
13914 
13934 
13904 
13859 
13883 
13902 
13854 
13865 
13883 
13872 
13859 
13860 
13884 
13871 
13857 
13848 
13867 
13881 
13866 
13826 
13841 
13883 
13916 
13912 
13953 
14056 
14031 
13914 
13912 
14042 
14077 
13891 
13785 
13863 
13911 
13910 
13896 
13911 
13904 
13911 
13892 
13915 
13913 
13913 
13926 
13936 
13937 
13939 
13930 
13940 
13908 
13951 
13944 
13956 
13943 
13934 
13935 
13913 
13932 
13944 
13938 
13924 
13945 
13928 
13880 
13923 
13967 
13948 
13906 
13916 
13962 
13974 
13986 
13961 
13964 
13993 
13992 
13972 
13990 
14004 
14002 
14004 
14010 
14035 
14057 
14023 
14008 
14079 
14050 
13998 
13969 
13973 
13952 
13904 
13871 
13839 
13809 
13770 
13712 
13698 
13671 
13661 
13656 
13647 
13621 
13660 
13658 
13641 
13639 
13639 
13620 
13610 
13658 
13674 
13644 
13617 
13648 
13665 
13653 
13645 
13660 
13663 
13680 
13668 
13649 
13694 
13698 
13668 
13672 
13724 
13720 
13698 
13701 
13729 
13725 
13715 
13687 
13705 
13709 
13716 
13721 
13737 
13738 
13720 
13706 
13741 
13777 
13750 
13703 
13718 
13767 
13759 
13725 
13707 
13765 
13764 
13742 
13739 
13743 
13737 
13729 
13726 
13735 
13732 
13726 
13713 
13712 
13739 
13756 
13747 
13742 
13749 
13740 
13728 
13764 
13789 
13777 
13751 
13760 
13797 
13785 
13782 
13801 
13832 
13828 
13782 
13775 
13823 
13844 
13814 
13783 
13791 
13804 
13811 
13792 
13784 
13777 
13737 
13721 
13749 
13755 
13740 
13723 
13719 
13733 
13718 
13715 
13716 
13743 
13766 
13745 
13735 
13767 
13779 
13807 
13777 
13847 
13941 
13948 
13847 
13849 
13973 
14026 
13844 
13702 
13724 
13780 
13757 
13774 
13775 
13777 
13766 
13767 
13788 
13787 
13792 
13785 
13785 
13814 
13814 
13766 
13808 
13826 
13787 
13772 
13791 
13798 
13845 
13837 
13824 
13826 
13828 
13835 
13846 
13856 
13841 
13842 
13852 
13860 
13892 
13901 
13892 
13898 
13918 
13952 
13931 
13969 
13989 
13996 
14011 
14044 
14077 
14085 
14083 
14113 
14125 
14126 
14116 
14132 
14161 
14179 
14133 
14096 
14116 
14072 
14004 
13981 
13976 
13960 
13912 
13876 
13875 
13853 
13829 
13783 
13766 
13811 
13806 
13776 
13770 
13780 
13773 
13741 
13752 
13767 
13753 
13734 
13756 
13761 
13778 
13764 
13722 
13753 
13769 
13744 
13729 
13754 
13761 
13758 
13737 
13742 
13765 
13774 
13764 
13764 
13774 
13789 
13765 
13757 
13777 
13753 
13746 
13766 
13785 
13772 
13767 
13749 
13770 
13787 
13772 
13759 
13772 
13771 
13767 
13735 
13765 
13771 
13771 
13749 
13750 
13784 
13775 
13746 
13734 
13763 
13805 
13781 
13755 
13791 
13770 
13732 
13740 
13769 
13786 
13765 
13737 
13777 
13778 
13767 
13758 
13759 
13774 
13788 
13768 
13763 
13774 
13776 
13776 
13744 
13761 
13809 
13763 
13759 
13798 
13800 
13795 
13769 
13814 
13832 
13808 
13792 
13809 
13839 
13880 
13838 
13819 
13827 
13869 
13851 
13816 
13836 
13872 
13837 
13834 
13814 
13778 
13754 
13761 
13766 
13743 
13774 
13783 
13777 
13772 
13777 
13760 
13779 
13778 
13759 
13773 
13773 
13776 
13812 
13825 
13847 
13879 
13957 
14021 
13982 
13923 
13983 
14096 
14056 
13868 
13762 
13806 
13800 
13811 
13846 
13857 
13820 
13841 
13847 
13840 
13828 
13806 
13836 
13848 
13836 
13840 
13868 
13865 
13844 
13835 
13872 
13862 
13840 
13886 
13897 
13901 
13894 
13890 
13908 
13918 
13897 
13884 
13902 
13922 
13928 
13930 
13981 
13997 
13987 
13975 
13990 
14027 
14050 
14037 
14033 
14077 
14112 
14094 
14107 
14128 
14136 
14150 
14179 
14190 
14194 
14194 
14167 
14166 
14148 
14132 
14102 
14074 
14069 
14050 
14014 
13969 
13933 
13906 
13850 
13833 
13904 
13907 
13864 
13843 
13861 
13866 
13856 
13832 
13831 
13853 
13846 
13839 
13831 
13848 
13842 
13819 
13833 
13840 
13827 
13795 
13831 
13874 
13867 
13854 
13856 
13865 
13894 
13881 
13835 
13860 
13861 
13837 
13844 
13850 
13865 
13879 
13832 
13814 
13863 
13872 
13844 
13845 
13856 
13857 
13854 
13860 
13884 
13872 
13821 
13819 
13842 
13860 
13838 
13832 
13855 
13862 
13844 
13822 
13873 
13904 
13870 
13872 
13891 
13895 
13879 
13835 
13855 
13889 
13871 
13838 
13855 
13881 
13882 
13850 
13848 
13848 
13843 
13817 
13806 
13842 
13836 
13827 
13798 
13811 
13817 
13817 
13797 
13821 
13831 
13822 
13808 
13822 
13830 
13806 
13815 
13828 
13830 
13849 
13840 
13824 
13856 
13881 
13865 
13850 
13857 
13850 
13839 
13833 
13837 
13836 
13820 
13770 
13779 
13794 
13789 
13760 
13762 
13759 
13737 
13704 
13720 
13727 
13750 
13733 
13732 
13759 
13761 
13759 
13732 
13769 
13812 
13801 
13832 
13921 
13868 
13814 
13842 
13956 
13929 
13732 
13631 
13701 
13770 
13750 
13725 
13745 
13756 
13755 
13736 
13729 
13764 
13783 
13755 
13710 
13719 
13758 
13763 
13734 
13742 
13764 
13760 
13747 
13727 
13750 
13776 
13751 
13767 
13787 
13777 
13751 
13790 
13820 
13831 
13800 
13803 
13865 
13857 
13858 
13859 
13875 
13886 
13877 
13869 
13893 
13935 
13936 
13929 
13959 
13984 
14004 
13993 
14016 
14061 
14074 
14060 
14055 
14053 
14036 
14009 
13989 
13968 
13953 
13941 
13906 
13874 
13851 
13800 
13765 
13789 
13772 
13715 
13710 
13736 
13751 
13720 
13683 
13701 
13720 
13725 
13702 
13711 
13710 
13712 
13697 
13696 
13721 
13734 
13698 
13668 
13718 
13737 
13732 
13699 
13716 
13735 
13736 
13718 
13715 
13745 
13758 
13747 
13748 
13754 
13761 
13758 
13755 
13762 
13757 
13755 
13745 
13731 
13749 
13762 
13743 
13742 
13741 
13742 
13748 
13756 
13753 
13751 
13712 
13725 
13767 
13765 
13754 
13750 
13756 
13745 
13727 
13725 
13743 
13755 
13732 
13723 
13738 
13746 
13727 
13731 
13745 
13737 
13743 
13721 
13721 
13739 
13737 
13733 
13720 
13754 
13756 
13738 
13739 
13743 
13758 
13751 
13760 
13780 
13778 
13769 
13766 
13768 
13770 
13758 
13772 
13792 
13824 
13836 
13849 
13849 
13829 
13821 
13794 
13799 
13815 
13833 
13812 
13814 
13817 
13798 
13745 
13700 
13726 
13747 
13751 
13739 
13742 
13750 
13767 
13720 
13741 
13781 
13745 
13704 
13732 
13753 
13741 
13727 
13766 
13807 
13828 
13838 
13907 
13930 
13853 
13868 
14008 
14016 
13833 
13704 
13729 
13775 
13771 
13765 
13774 
13771 
13774 
13800 
13772 
13787 
13817 
13819 
13786 
13788 
13795 
13795 
13787 
13796 
13817 
13819 
13787 
13800 
13819 
13790 
13787 
13827 
13856 
13847 
13830 
13858 
13874 
13895 
13893 
13887 
13900 
13905 
13909 
13894 
13921 
13937 
13948 
13929 
13941 
13980 
14011 
14011 
14029 
14072 
14082 
14082 
14080 
14134 
14160 
14156 
14131 
14148 
14166 
14135 
14099 
14094 
14056 
14016 
13975 
13952 
13935 
13910 
13888 
13869 
13849 
13835 
13796 
13797 
13809 
13810 
13796 
13790 
13795 
13813 
13806 
13782 
13780 
13788 
13787 
13787 
13779 
13791 
13791 
13797 
13800 
13806 
13793 
13773 
13799 
13813 
13818 
13791 
13787 
13794 
13814 
13827 
13787 
13781 
13826 
13830 
13825 
13833 
13837 
13812 
13805 
13805 
13823 
13846 
13804 
13821 
13842 
13832 
13806 
13810 
13822 
13821 
13829 
13825 
13832 
13847 
13840 
13807 
13802 
13838 
13853 
13830 
13824 
13849 
13860 
13830 
13836 
13855 
13838 
13829 
13836 
13845 
13838 
13839 
13834 
13837 
13851 
13859 
13833 
13839 
13850 
13831 
13812 
13833 
13884 
13869 
13833 
13848 
13867 
13848 
13832 
13847 
13862 
13864 
13829 
13835 
13858 
13863 
13818 
13840 
13882 
13896 
13874 
13846 
13870 
13882 
13903 
13913 
13926 
13952 
13925 
13885 
13912 
13925 
13896 
13862 
13886 
13895 
13892 
13859 
13832 
13850 
13853 
13810 
13799 
13829 
13849 
13841 
13807 
13798 
13809 
13820 
13812 
13849 
13833 
13821 
13785 
13793 
13856 
13914 
13912 
13984 
14069 
14016 
13950 
14031 
14142 
14056 
13848 
13780 
13830 
13868 
13869 
13898 
13894 
13888 
13884 
13841 
13855 
13881 
13869 
13859 
13889 
13910 
13911 
13891 
13888 
13910 
13920 
13920 
13901 
13922 
13942 
13945 
13937 
13949 
13976 
13973 
13957 
13986 
14026 
14016 
13989 
14026 
14063 
14065 
14064 
14081 
14093 
14080 
14080 
14142 
14124 
14152 
14188 
14192 
14214 
14223 
14218 
14225 
14273 
14312 
14298 
14294 
14327 
14320 
14290 
14274 
14257 
14245 
14214 
14146 
14128 
14107 
14052 
14055 
14044 
14023 
13980 
13952 
13936 
13959 
13960 
13914 
13921 
13935 
13927 
13960 
13938 
13924 
13944 
13945 
13916 
13915 
13931 
13940 
13899 
13916 
13941 
13919 
13876 
13881 
13926 
13965 
13929 
13909 
13929 
13907 
13889 
13910 
13928 
13919 
13903 
13891 
13915 
13925 
13895 
13890 
13910 
13905 
13896 
13897 
13925 
13937 
13917 
13900 
13926 
13932 
13944 
13917 
13924 
13955 
13946 
13919 
13907 
13914 
13931 
13919 
13897 
13898 
13913 
13929 
13929 
13937 
13920 
13905 
13901 
13940 
13960 
13932 
13912 
13925 
13945 
13924 
13895 
13918 
13942 
13925 
13906 
13899 
13920 
13912 
13888 
13889 
13918 
13916 
13905 
13881 
13878 
13884 
13900 
13878 
13893 
13911 
13905 
13864 
13880 
13921 
13936 
13908 
13891 
13918 
13936 
13938 
13935 
13955 
13991 
13982 
13974 
13995 
13979 
13969 
13953 
13958 
13972 
13962 
13962 
13975 
13978 
13959 
13926 
13942 
13960 
13982 
13939 
13916 
13938 
13970 
13951 
13918 
13915 
13938 
13967 
13928 
13917 
13929 
13925 
13889 
13930 
13978 
13974 
14013 
14090 
14112 
14026 
14005 
14106 
14154 
13970 
13827 
13854 
13933 
13930 
13894 
13908 
13902 
13904 
13877 
13890 
13932 
13923 
13903 
13883 
13921 
13914 
13904 
13894 
13893 
13906 
13912 
13879 
13900 
13913 
13897 
13891 
13902 
13917 
13931 
13915 
13910 
13910 
13911 
13920 
13926 
13951 
13960 
13941 
13927 
13961 
13974 
13980 
13978 
14000 
14015 
14027 
14018 
14009 
14048 
14094 
14077 
14095 
14114 
14142 
14157 
14118 
14150 
14171 
14125 
14075 
14059 
14063 
14027 
13973 
13958 
13942 
13908 
13859 
13841 
13831 
13819 
13773 
13779 
13796 
13796 
13771 
13769 
13786 
13766 
13738 
13734 
13772 
13779 
13767 
13754 
13761 
13762 
13762 
13733 
13778 
13789 
13764 
13753 
13765 
13789 
13827 
13766 
13736 
13782 
13804 
13780 
13754 
13786 
13793 
13777 
13750 
13743 
13771 
13749 
13721 
13758 
13767 
13756 
13731 
13736 
13747 
13733 
13704 
13707 
13722 
13740 
13718 
13721 
13704 
13725 
13733 
13712 
13729 
13707 
13680 
13678 
13713 
13735 
13699 
13679 
13681 
13707 
13714 
13674 
13655 
13677 
13702 
13680 
13678 
13695 
13709 
13670 
13668 
13688 
13713 
13695 
13700 
13718 
13716 
13700 
13696 
13734 
13744 
13741 
13747 
13770 
13769 
13746 
13736 
13769 
13775 
13780 
13744 
13727 
13746 
13772 
13738 
13711 
13716 
13732 
13726 
13706 
13711 
13722 
13711 
13694 
13700 
13723 
13709 
13671 
13693 
13715 
13742 
13710 
13724 
13761 
13799 
13772 
13812 
13883 
13862 
13783 
13805 
13940 
13959 
13789 
13663 
13719 
13760 
13750 
13738 
13762 
13764 
13745 
13706 
13726 
13760 
13751 
13725 
13737 
13755 
13792 
13790 
13781 
13802 
13806 
13788 
13785 
13785 
13816 
13790 
13788 
13809 
13821 
13821 
13809 
13812 
13837 
13827 
13839 
13875 
13868 
13869 
13862 
13874 
13926 
13946 
13934 
13946 
13977 
13996 
14003 
13989 
14029 
14048 
14046 
14067 
14096 
14117 
14119 
14098 
14121 
14127 
14141 
14088 
14079 
14045 
14013 
13979 
13956 
13941 
13906 
13856 
13842 
13825 
13819 
13795 
13777 
13780 
13766 
13776 
13787 
13786 
13776 
13744 
13719 
13734 
13762 
13778 
13744 
13763 
13775 
13760 
13732 
13744 
13754 
13754 
13743 
13741 
13756 
13766 
13748 
13755 
13789 
13785 
13775 
13764 
13775 
13791 
13795 
13763 
13781 
13801 
13805 
13788 
13775 
13805 
13814 
13803 
13803 
13820 
13815 
13797 
13795 
13800 
13796 
13789 
13783 
13810 
13804 
13795 
13780 
13791 
13814 
13788 
13784 
13791 
13767 
13758 
13759 
13790 
13817 
13812 
13772 
13742 
13769 
13786 
13759 
13771 
13781 
13793 
13780 
13776 
13782 
13780 
13776 
13782 
13803 
13823 
13818 
13795 
13837 
13865 
13857 
13845 
13872 
13931 
13956 
13943 
13944 
13953 
13958 
13945 
13940 
13971 
13995 
13972 
13970 
13986 
13961 
13907 
13901 
13924 
13946 
13936 
13919 
13931 
13936 
13919 
13893 
13909 
13893 
13918 
13896 
13892 
13909 
13927 
13902 
13919 
13974 
14034 
14093 
14129 
14104 
14061 
14137 
14225 
14131 
13935 
13907 
13923 
13947 
13984 
14003 
13968 
13964 
13986 
13968 
13960 
13974 
13990 
13989 
13961 
13981 
13985 
13972 
13988 
13984 
13989 
13979 
13988 
13996 
14017 
14023 
14020 
14007 
14011 
14024 
14061 
14068 
14071 
14077 
14076 
14059 
14066 
14094 
14112 
14101 
14122 
14159 
14152 
14159 
14174 
14238 
14245 
14247 
14248 
14267 
14295 
14328 
14338 
14347 
14335 
14346 
14342 
14333 
14310 
14286 
14245 
14230 
14198 
14151 
14118 
14097 
14063 
14019 
13981 
13966 
13955 
13933 
13894 
13870 
13870 
13869 
13854 
13830 
13806 
13852 
13844 
13787 
13814 
13819 
13810 
13787 
13791 
13813 
13799 
13774 
13769 
13791 
13783 
13783 
13789 
13790 
13783 
13768 
13737 
13795 
13797 
13791 
13777 
13789 
13800 
13782 
13757 
13771 
13786 
13779 
13769 
13768 
13761 
13760 
13761 
13744 
13752 
13755 
13743 
13745 
13754 
13758 
13795 
13766 
13772 
13805 
13789 
13767 
13783 
13805 
13808 
13795 
13796 
13827 
13831 
13813 
13839 
13853 
13853 
13838 
13804 
13817 
13799 
13812 
13820 
13840 
13824 
13805 
13782 
13808 
13852 
13854 
13812 
13804 
13823 
13825 
13808 
13827 
13848 
13823 
13786 
13793 
13847 
13840 
13838 
13844 
13854 
13892 
13854 
13846 
13863 
13862 
13844 
13818 
13823 
13830 
13812 
13792 
13787 
13784 
13761 
13734 
13742 
13761 
13746 
13738 
13747 
13754 
13753 
13749 
13724 
13753 
13787 
13760 
13762 
13775 
13776 
13791 
13805 
13837 
13903 
13946 
13866 
13840 
13942 
14058 
13954 
13771 
13737 
13820 
13851 
13831 
13852 
13857 
13836 
13817 
13826 
13836 
13809 
13784 
13804 
13818 
13825 
13828 
13842 
13837 
13855 
13855 
13853 
13860 
13855 
13836 
13838 
13885 
13888 
13889 
13892 
13906 
13894 
13897 
13899 
13910 
13930 
13932 
13928 
13961 
13985 
13987 
13966 
13994 
14009 
14022 
14017 
14034 
14080 
14097 
14089 
14119 
14125 
14138 
14130 
14142 
14176 
14193 
14168 
14114 
14133 
14118 
14055 
13996 
13992 
13976 
13931 
13898 
13885 
13865 
13855 
13809 
13784 
13781 
13779 
13771 
13755 
13761 
13756 
13733 
13712 
13724 
13735 
13719 
13701 
13709 
13723 
13721 
13705 
13710 
13706 
13710 
13682 
13691 
13709 
13706 
13699 
13705 
13697 
13713 
13708 
13712 
13725 
13722 
13714 
13694 
13704 
13729 
13727 
13710 
13724 
13723 
13703 
13680 
13681 
13694 
13698 
13687 
13694 
13703 
13677 
13655 
13691 
13708 
13684 
13682 
13696 
13701 
13698 
13678 
13672 
13699 
13701 
13703 
13685 
13678 
13687 
13675 
13672 
13690 
13711 
13719 
13705 
13690 
13688 
13685 
13679 
13715 
13725 
13727 
13728 
13737 
13746 
13747 
13742 
13753 
13781 
13784 
13749 
13734 
13775 
13784 
13791 
13769 
13765 
13753 
13747 
13749 
13750 
13734 
13719 
13700 
13690 
13698 
13713 
13708 
13728 
13732 
13722 
13727 
13722 
13713 
13726 
13719 
13676 
13709 
13758 
13780 
13784 
13792 
13834 
13919 
13896 
13831 
13844 
13942 
13965 
13814 
13717 
13762 
13759 
13752 
13792 
13800 
13782 
13763 
13766 
13785 
13777 
13774 
13791 
13796 
13785 
13778 
13786 
13807 
13818 
13808 
13822 
13841 
13841 
13830 
13818 
13850 
13851 
13832 
13825 
13849 
13861 
13879 
13890 
13897 
13904 
13909 
13901 
13934 
13951 
13959 
13958 
13982 
14012 
14029 
14026 
14049 
14069 
14086 
14095 
14116 
14145 
14173 
14162 
14152 
14195 
14212 
14191 
14172 
14192 
14171 
14128 
14095 
14058 
14038 
14003 
13968 
13947 
13928 
13907 
13892 
13880 
13872 
13858 
13844 
13825 
13825 
13827 
13838 
13823 
13833 
13846 
13850 
13827 
13815 
13824 
13836 
13804 
13822 
13838 
13831 
13824 
13853 
13854 
13845 
13813 
13816 
13820 
13829 
13799 
13811 
13855 
13833 
13811 
13812 
13822 
13830 
13823 
13824 
13830 
13822 
13818 
13807 
13813 
13807 
13802 
13792 
13803 
13810 
13816 
13791 
13807 
13828 
13836 
13803 
13795 
13821 
13821 
13786 
13784 
13820 
13845 
13836 
13800 
13818 
13836 
13820 
13787 
13781 
13831 
13830 
13806 
13803 
13821 
13833 
13822 
13810 
13807 
13841 
13822 
13806 
13815 
13804 
13801 
13812 
13823 
13812 
13810 
13802 
13825 
13842 
13858 
13840 
13841 
13851 
13846 
13836 
13868 
13887 
13904 
13902 
13914 
13928 
13914 
13886 
13873 
13882 
13891 
13889 
13860 
13897 
13915 
13891 
13850 
13845 
13842 
13822 
13811 
13827 
13850 
13854 
13842 
13854 
13861 
13846 
13826 
13846 
13867 
13863 
13834 
13851 
13886 
13900 
13927 
13952 
14035 
14105 
14065 
13982 
14083 
14201 
14081 
13853 
13814 
13896 
13899 
13884 
13907 
13921 
13903 
13867 
13882 
13897 
13898 
13894 
13892 
13920 
13903 
13899 
13921 
13948 
13937 
13915 
13917 
13929 
13949 
13935 
13912 
13922 
13924 
13917 
13925 
13957 
13983 
13974 
13964 
13975 
14010 
14020 
14014 
14045 
14079 
14082 
14079 
14067 
14090 
14132 
14137 
14120 
14135 
14184 
14203 
14171 
14188 
14225 
14248 
14237 
14238 
14243 
14240 
14232 
14205 
14181 
14174 
14135 
14071 
14065 
14066 
14024 
13982 
13954 
13949 
13960 
13929 
13919 
13932 
13911 
13908 
13882 
13899 
13916 
13870 
13882 
13949 
13956 
13881 
13856 
13894 
13872 
13856 
13883 
13900 
13895 
13868 
13840 
13862 
13896 
13886 
13875 
13879 
13869 
13868 
13838 
13893 
13913 
13893 
13861 
13847 
13879 
13871 
13835 
13846 
13864 
13884 
13830 
13828 
13861 
13850 
13837 
13848 
13860 
13849 
13836 
13809 
13819 
13837 
13830 
13808 
13817 
13820 
13800 
13814 
13799 
13785 
13823 
13821 
13808 
13827 
13819 
13790 
13800 
13833 
13820 
13762 
13784 
13799 
13810 
13800 
13777 
13778 
13798 
13807 
13791 
13790 
13793 
13784 
13765 
13783 
13779 
13798 
13791 
13782 
13803 
13799 
13800 
13789 
13806 
13849 
13842 
13837 
13875 
13889 
13858 
13807 
13822 
13863 
13846 
13810 
13821 
13819 
13831 
13798 
13773 
13758 
13762 
13734 
13737 
13762 
13757 
13732 
13719 
13739 
13731 
13714 
13718 
13742 
13726 
13718 
13718 
13726 
13717 
13737 
13746 
13789 
13872 
13906 
13797 
13763 
13850 
13938 
13817 
13651 
13670 
13725 
13727 
13710 
13735 
13748 
13702 
13669 
13719 
13737 
13711 
13680 
13693 
13719 
13736 
13701 
13724 
13731 
13717 
13707 
13699 
13700 
13736 
13737 
13732 
13740 
13732 
13735 
13727 
13751 
13774 
13761 
13744 
13785 
13793 
13810 
13821 
13824 
13835 
13870 
13846 
13854 
13892 
13926 
13917 
13944 
13969 
13973 
13959 
13994 
14035 
14048 
14020 
14010 
14087 
14131 
14096 
14057 
14056 
14047 
14000 
13926 
13947 
13944 
13922 
13902 
13859 
13859 
13819 
13778 
13793 
13797 
13800 
13755 
13737 
13780 
13793 
13777 
13760 
13771 
13760 
13777 
13788 
13782 
13767 
13752 
13757 
13747 
13755 
13749 
13724 
13739 
13755 
13752 
13741 
13730 
13743 
13772 
13719 
13692 
13717 
13781 
13752 
13707 
13707 
13724 
13746 
13727 
13730 
13749 
13752 
13689 
13708 
13751 
13745 
13691 
13701 
13745 
13742 
13719 
13693 
13708 
13723 
13705 
13676 
13677 
13673 
13693 
13691 
13717 
13715 
13701 
13685 
13685 
13677 
13704 
13687 
13680 
13713 
13719 
13710 
13702 
13706 
13714 
13684 
13670 
13708 
13726 
13690 
13676 
13734 
13734 
13704 
13699 
13730 
13724 
13699 
13688 
13747 
13756 
13747 
13725 
13719 
13755 
13787 
13773 
13792 
13801 
13777 
13768 
13769 
13781 
13784 
13773 
13754 
13737 
13731 
13741 
13692 
13685 
13694 
13693 
13685 
13684 
13694 
13679 
13656 
13666 
13688 
13679 
13667 
13662 
13645 
13648 
13630 
13662 
13674 
13682 
13710 
13707 
13761 
13850 
13842 
13784 
13849 
13977 
13909 
13708 
13636 
13684 
13694 
13685 
13696 
13714 
13720 
13687 
13691 
13698 
13706 
13683 
13664 
13705 
13717 
13696 
13717 
13733 
13754 
13767 
13757 
13764 
13764 
13782 
13784 
13794 
13807 
13822 
13809 
13831 
13816 
13808 
13826 
13839 
13872 
13876 
13860 
13874 
13904 
13923 
13918 
13900 
13949 
13972 
13981 
13948 
14008 
14049 
14045 
14042 
14049 
14087 
14090 
14086 
14108 
14117 
14102 
14072 
14056 
14054 
14022 
13951 
13927 
13924 
13877 
13819 
13805 
13810 
13802 
13750 
13709 
13709 
13708 
13693 
13679 
13682 
13690 
13671 
13650 
13680 
13689 
13682 
13669 
13657 
13687 
13704 
13682 
13661 
13678 
13689 
13669 
13650 
13678 
13691 
13688 
13689 
13700 
13691 
13668 
13666 
13703 
13736 
13733 
13697 
13712 
13743 
13745 
13729 
13738 
13755 
13749 
13737 
13730 
13754 
13775 
13750 
13739 
13747 
13749 
13769 
13765 
13779 
13804 
13804 
13775 
13777 
13812 
13827 
13812 
13795 
13811 
13855 
13852 
13814 
13834 
13887 
13844 
13829 
13859 
13858 
13856 
13843 
13866 
13884 
13880 
13850 
13860 
13884 
13873 
13857 
13881 
13904 
13901 
13861 
13877 
13915 
13909 
13885 
13890 
13902 
13919 
13908 
13896 
13928 
13930 
13923 
13926 
13948 
13947 
13954 
13935 
13966 
14008 
14031 
14012 
13999 
13997 
13988 
13975 
13984 
13998 
14000 
13975 
13961 
14008 
13996 
13944 
13926 
13957 
13948 
13903 
13918 
13925 
13941 
13943 
13906 
13932 
13955 
13942 
13893 
13891 
13895 
13924 
13923 
13945 
13991 
14014 
14052 
14084 
14066 
14025 
14077 
14151 
14110 
13953 
13902 
13914 
13945 
13954 
13971 
13967 
13970 
13995 
13993 
13987 
13979 
13994 
14009 
13985 
13971 
14003 
14022 
13999 
13987 
14018 
14029 
14023 
14020 
14045 
14076 
14067 
14049 
14032 
14065 
14066 
14065 
14097 
14129 
14115 
14098 
14135 
14153 
14171 
14158 
14149 
14178 
14185 
14190 
14209 
14240 
14259 
14263 
14260 
14301 
14292 
14299 
14334 
14373 
14376 
14377 
14350 
14352 
14356 
14347 
14319 
14302 
14284 
14258 
14232 
14201 
14171 
14145 
14101 
14055 
14057 
14070 
14066 
14053 
14067 
14074 
14072 
14082 
14091 
14077 
14077 
14067 
14035 
14016 
14024 
14009 
14016 
14019 
14025 
13990 
13982 
14018 
14017 
13959 
13973 
14003 
14010 
13998 
13951 
13986 
14000 
13973 
13956 
13947 
13950 
13922 
13952 
13963 
13945 
13913 
13904 
13908 
13926 
13939 
13914 
13903 
13897 
13888 
13869 
13864 
13885 
13885 
13847 
13834 
13865 
13860 
13846 
13835 
13860 
13864 
13840 
13808 
13802 
13809 
13832 
13794 
13799 
13802 
13779 
13753 
13773 
13795 
13801 
13781 
13769 
13764 
13734 
13748 
13788 
13820 
13798 
13781 
13781 
13773 
13795 
13832 
13808 
13813 
13830 
13801 
13770 
13771 
13800 
13811 
13793 
13788 
13805 
13789 
13754 
13731 
13722 
13713 
13702 
13670 
13697 
13743 
13739 
13701 
13695 
13699 
13702 
13678 
13679 
13715 
13719 
13698 
13696 
13713 
13748 
13761 
13786 
13878 
13880 
13778 
13744 
13851 
13937 
13794 
13618 
13652 
13715 
13720 
13682 
13703 
13698 
13679 
13658 
13664 
13694 
13710 
13701 
13710 
13712 
13714 
13697 
13695 
13764 
13777 
13726 
13720 
13774 
13812 
13797 
13787 
13815 
13817 
13794 
13784 
13805 
13802 
13822 
13846 
13847 
13882 
13903 
13908 
13893 
13908 
13947 
13931 
13945 
13994 
14010 
14014 
14019 
14068 
14100 
14088 
14075 
14115 
14150 
14149 
14126 
14135 
14172 
14153 
14127 
14119 
14113 
14085 
14019 
13996 
13986 
13976 
13938 
13905 
13898 
13884 
13883 
13853 
13860 
13848 
13826 
13804 
13840 
13846 
13835 
13818 
13821 
13846 
13842 
13821 
13828 
13837 
13837 
13822 
13815 
13852 
13858 
13832 
13799 
13816 
13819 
13846 
13849 
13862 
13856 
13827 
13845 
13864 
13859 
13873 
13849 
13861 
13873 
13867 
13835 
13829 
13863 
13860 
13873 
13859 
13871 
13873 
13851 
13861 
13869 
13871 
13867 
13837 
13858 
13881 
13883 
13843 
13858 
13870 
13862 
13847 
13838 
13841 
13842 
13853 
13867 
13871 
13864 
13840 
13853 
13860 
13864 
13877 
13859 
13856 
13873 
13860 
13850 
13882 
13900 
13892 
13859 
13861 
13838 
13837 
13874 
13863 
13892 
13888 
13853 
13883 
13886 
13855 
13872 
13924 
13962 
13962 
13930 
13895 
13918 
13934 
13900 
13892 
13905 
13948 
13937 
13867 
13862 
13876 
13856 
13843 
13842 
13847 
13838 
13815 
13830 
13838 
13839 
13825 
13809 
13842 
13855 
13828 
13816 
13825 
13846 
13876 
13871 
13894 
13969 
13997 
13938 
13906 
14003 
14114 
14020 
13830 
13770 
13840 
13831 
13819 
13857 
13857 
13843 
13827 
13859 
13857 
13842 
13841 
13879 
13875 
13833 
13814 
13876 
13905 
13896 
13867 
13871 
13898 
13904 
13881 
13890 
13946 
13943 
13937 
13925 
13948 
13971 
13954 
13945 
13976 
13990 
13983 
13959 
13997 
14047 
14056 
14055 
14074 
14077 
14087 
14098 
14112 
14157 
14176 
14196 
14203 
14217 
14247 
14257 
14249 
14273 
14281 
14249 
14248 
14239 
14207 
14155 
14107 
14074 
14071 
14051 
13988 
13955 
13939 
13938 
13896 
13894 
13921 
13927 
13887 
13874 
13885 
13887 
13873 
13866 
13887 
13903 
13876 
13852 
13879 
13881 
13857 
13840 
13870 
13896 
13884 
13847 
13865 
13887 
13889 
13851 
13852 
13867 
13854 
13823 
13880 
13904 
13874 
13882 
13864 
13880 
13881 
13875 
13866 
13897 
13912 
13889 
13878 
13875 
13892 
13881 
13861 
13880 
13912 
13890 
13868 
13886 
13912 
13901 
13858 
13868 
13899 
13918 
13887 
13882 
13909 
13933 
13930 
13888 
13902 
13932 
13947 
13926 
13936 
13942 
13937 
13913 
13917 
13955 
13956 
13916 
13926 
13939 
13919 
13907 
13916 
13941 
13951 
13922 
13912 
13921 
13917 
13933 
13925 
13948 
13969 
13967 
13942 
13966 
13988 
13991 
13974 
13981 
13984 
14050 
14048 
14013 
14010 
14007 
13976 
13992 
14027 
14011 
13998 
13971 
13981 
13990 
13968 
13912 
13942 
13946 
13913 
13895 
13882 
13912 
13916 
13898 
13895 
13906 
13884 
13874 
13907 
13902 
13898 
13881 
13893 
13947 
13989 
14065 
14106 
14109 
14035 
14046 
14166 
14190 
14015 
13876 
13866 
13925 
13971 
13981 
13932 
13943 
13975 
13959 
13926 
13950 
13976 
13962 
13922 
13941 
13959 
13956 
13926 
13928 
13968 
13992 
13972 
13956 
13969 
14009 
14008 
13992 
14001 
14016 
13995 
13979 
13998 
14024 
14023 
13985 
13997 
14040 
14087 
14084 
14085 
14108 
14122 
14113 
14106 
14149 
14148 
14167 
14189 
14215 
14248 
14253 
14247 
14269 
14288 
14301 
14304 
14309 
14325 
14299 
14258 
14225 
14200 
14164 
14122 
14114 
14080 
14065 
14032 
13992 
14018 
14013 
14022 
13980 
13975 
13962 
13956 
13932 
13946 
13960 
13954 
13939 
13939 
13965 
13955 
13951 
13963 
13985 
13960 
13927 
13915 
13953 
13987 
13942 
13920 
13920 
13931 
13954 
13931 
13962 
13967 
13928 
13933 
13952 
13958 
13934 
13906 
13948 
13965 
13942 
13935 
13939 
13935 
13948 
13929 
13893 
13934 
13940 
13936 
13914 
13913 
13919 
13905 
13888 
13939 
13977 
13942 
13886 
13915 
13927 
13912 
13894 
13916 
13955 
13933 
13911 
13911 
13937 
13930 
13897 
13874 
13945 
13963 
13952 
13930 
13949 
13957 
13952 
13946 
13948 
13977 
13960 
13936 
13950 
13970 
13977 
13940 
13934 
13961 
13972 
13952 
13954 
14005 
13991 
13962 
13946 
13955 
13955 
13924 
13916 
13934 
13941 
13907 
13895 
13892 
13899 
13874 
13832 
13867 
13851 
13853 
13845 
13839 
13846 
13824 
13804 
13805 
13823 
13816 
13813 
13815 
13835 
13845 
13848 
13857 
13874 
13928 
13982 
13914 
13858 
13946 
14067 
13962 
13778 
13749 
13806 
13818 
13812 
13803 
13813 
13809 
13799 
13811 
13806 
13782 
13763 
13814 
13821 
13793 
13765 
13803 
13836 
13820 
13789 
13809 
13814 
13807 
13771 
13773 
13830 
13824 
13809 
13810 
13825 
13853 
13832 
13818 
13866 
13863 
13856 
13858 
13896 
13898 
13914 
13939 
13940 
13950 
13978 
13958 
13992 
14017 
14016 
14017 
14031 
14072 
14084 
14080 
14111 
14127 
14134 
14084 
14080 
14111 
14064 
14002 
13953 
13972 
13945 
13902 
13862 
13849 
13849 
13820 
13749 
13752 
13797 
13787 
13740 
13719 
13746 
13743 
13739 
13756 
13759 
13747 
13727 
13721 
13759 
13772 
13749 
13732 
13761 
13745 
13740 
13767 
13761 
13765 
13760 
13750 
13757 
13763 
13772 
13764 
13774 
13787 
13784 
13777 
13778 
13789 
13786 
13808 
13783 
13798 
13813 
13811 
13782 
13801 
13831 
13816 
13762 
13780 
13814 
13811 
13780 
13781 
13815 
13794 
13782 
13813 
13845 
13827 
13799 
13802 
13796 
13810 
13813 
13802 
13813 
13815 
13806 
13783 
13786 
13805 
13795 
13795 
13827 
13810 
13814 
13798 
13811 
13830 
13829 
13797 
13807 
13833 
13819 
13809 
13836 
13836 
13816 
13793 
13801 
13833 
13868 
13899 
13881 
13889 
13876 
13847 
13825 
13850 
13873 
13852 
13821 
13845 
13846 
13830 
13804 
13799 
13815 
13819 
13779 
13761 
13797 
13793 
13778 
13753 
13784 
13777 
13756 
13737 
13760 
13789 
13769 
13729 
13760 
13801 
13866 
13871 
13900 
13971 
13967 
13878 
13918 
14047 
14032 
13828 
13742 
13805 
13806 
13786 
13771 
13783 
13779 
13781 
13784 
13786 
13809 
13818 
13767 
13755 
13795 
13801 
13786 
13803 
13819 
13827 
13786 
13787 
13817 
13806 
13809 
13814 
13802 
13816 
13817 
13825 
13864 
13862 
13838 
13811 
13857 
13879 
13896 
13868 
13893 
13927 
13904 
13883 
13926 
13972 
14014 
14008 
14005 
14025 
14069 
14098 
14104 
14122 
14145 
14130 
14123 
14159 
14153 
14130 
14101 
14085 
14089 
14049 
13971 
13957 
13950 
13914 
13867 
13826 
13836 
13824 
13813 
13787 
13775 
13768 
13738 
13707 
13744 
13751 
13732 
13701 
13707 
13712 
13705 
13688 
13691 
13701 
13707 
13682 
13698 
13709 
13705 
13679 
13662 
13675 
13689 
13685 
13663 
13679 
13694 
13667 
13658 
13670 
13661 
13647 
13628 
13663 
13680 
13685 
13678 
13676 
13683 
13679 
13660 
13691 
13704 
13701 
13663 
13663 
13690 
13700 
13689 
13677 
13695 
13722 
13731 
13735 
13754 
13755 
13740 
13730 
13762 
13763 
13765 
13751 
13783 
13796 
13790 
13781 
13810 
13820 
13808 
13779 
13803 
13840 
13818 
13821 
13861 
13867 
13831 
13831 
13840 
13890 
13892 
13878 
13853 
13871 
13900 
13881 
13847 
13866 
13892 
13887 
13857 
13867 
13872 
13864 
13827 
13841 
13880 
13862 
13818 
13813 
13878 
13896 
13876 
13833 
13838 
13881 
13907 
13878 
13902 
13926 
13893 
13843 
13859 
13903 
13901 
13877 
13855 
13858 
13860 
13854 
13822 
13804 
13836 
13827 
13833 
13831 
13786 
13768 
13804 
13810 
13833 
13827 
13799 
13795 
13823 
13813 
13765 
13805 
13875 
13894 
13900 
13941 
14022 
14019 
13938 
13950 
14099 
14119 
13920 
13777 
13821 
13862 
13848 
13835 
13857 
13877 
13861 
13841 
13854 
13864 
13870 
13842 
13870 
13897 
13904 
13892 
13875 
13918 
13922 
13892 
13909 
13942 
13930 
13913 
13898 
13929 
13936 
13939 
13939 
13955 
13969 
13959 
13934 
13952 
14002 
14022 
14000 
14013 
14049 
14050 
14055 
14067 
14072 
14074 
14080 
14074 
14103 
14151 
14162 
14169 
14196 
14199 
14211 
14209 
14223 
14236 
14236 
14190 
14178 
14175 
14140 
14070 
14046 
14060 
14050 
13987 
13940 
13946 
13942 
13915 
13877 
13903 
13907 
13887 
13865 
13859 
13857 
13838 
13794 
13817 
13835 
13825 
13805 
13803 
13803 
13802 
13789 
13815 
13832 
13809 
13815 
13814 
13825 
13824 
13798 
13809 
13829 
13815 
13812 
13787 
13817 
13810 
13807 
13786 
13778 
13781 
13793 
13768 
13795 
13791 
13761 
13780 
13778 
13770 
13757 
13734 
13732 
13761 
13752 
13746 
13737 
13745 
13725 
13710 
13702 
13751 
13758 
13712 
13710 
13727 
13739 
13720 
13707 
13706 
13711 
13697 
13680 
13694 
13736 
13731 
13690 
13688 
13711 
13709 
13728 
13700 
13684 
13694 
13696 
13668 
13685 
13700 
13708 
13696 
13714 
13718 
13723 
13695 
13708 
13690 
13718 
13752 
13756 
13765 
13751 
13734 
13725 
13740 
13742 
13745 
13718 
13735 
13730 
13711 
13682 
13677 
13688 
13675 
13642 
13646 
13665 
13673 
13661 
13692 
13675 
13652 
13628 
13634 
13644 
13659 
13655 
13652 
13674 
13684 
13710 
13695 
13785 
13872 
13834 
13718 
13761 
13906 
13917 
13717 
13620 
13663 
13687 
13674 
13689 
13694 
13683 
13672 
13654 
13673 
13690 
13677 
13672 
13686 
13683 
13637 
13649 
13713 
13719 
13708 
13685 
13710 
13721 
13730 
13716 
13731 
13745 
13747 
13731 
13747 
13779 
13771 
13743 
13751 
13790 
13786 
13772 
13798 
13851 
13852 
13848 
13865 
13910 
13926 
13931 
13924 
13954 
13983 
13981 
13968 
14014 
14058 
14075 
14053 
14069 
14093 
14087 
14067 
14049 
14047 
14035 
13974 
13923 
13921 
13904 
13863 
13808 
13832 
13832 
13779 
13725 
13714 
13751 
13746 
13722 
13708 
13728 
13717 
13683 
13697 
13719 
13710 
13684 
13665 
13716 
13699 
13677 
13680 
13691 
13677 
13680 
13689 
13692 
13680 
13703 
13685 
13694 
13699 
13689 
13663 
13683 
13715 
13693 
13671 
13683 
13721 
13739 
13698 
13676 
13690 
13694 
13670 
13655 
13687 
13692 
13711 
13707 
13702 
13690 
13702 
13695 
13691 
13720 
13706 
13654 
13650 
13703 
13710 
13691 
13679 
13683 
13694 
13708 
13693 
13689 
13694 
13683 
13655 
13713 
13722 
13714 
13683 
13676 
13673 
13703 
13674 
13668 
13697 
13705 
13686 
13683 
13689 
13688 
13691 
13682 
13672 
13663 
13672 
13705 
13711 
13722 
13703 
13654 
13685 
13716 
13719 
13693 
13710 
13706 
13696 
13693 
13710 
13734 
13740 
13710 
13725 
13761 
13765 
13747 
13741 
13791 
13816 
13801 
13764 
13769 
13764 
13739 
13756 
13767 
13749 
13772 
13742 
13739 
13740 
13704 
13674 
13673 
13675 
13700 
13682 
13675 
13667 
13663 
13663 
13668 
13676 
13696 
13695 
13671 
13694 
13727 
13762 
13766 
13810 
13872 
13909 
13848 
13824 
13943 
14006 
13837 
13669 
13659 
13701 
13693 
13698 
13733 
13718 
13697 
13705 
13726 
13719 
13673 
13694 
13751 
13758 
13752 
13712 
13736 
13753 
13738 
13716 
13725 
13747 
13765 
13747 
13751 
13768 
13779 
13751 
13777 
13802 
13812 
13797 
13781 
13805 
13819 
13853 
13850 
13862 
13897 
13900 
13883 
13895 
13927 
13958 
13971 
13962 
13999 
14023 
14017 
14047 
14084 
14123 
14119 
14115 
14123 
14142 
14137 
14101 
14122 
14090 
14065 
14039 
14004 
13981 
13940 
13881 
13873 
13867 
13864 
13803 
13801 
13840 
13814 
13790 
13789 
13798 
13775 
13751 
13750 
13775 
13769 
13747 
13730 
13771 
13795 
13766 
13748 
13788 
13805 
13797 
13769 
13786 
13803 
13800 
13775 
13776 
13786 
13809 
13814 
13798 
13796 
13793 
13792 
13772 
13778 
13793 
13785 
13775 
13797 
13815 
13811 
13772 
13786 
13793 
13772 
13769 
13750 
13765 
13779 
13726 
13745 
13786 
13786 
13753 
13746 
13751 
13731 
13722 
13720 
13728 
13744 
13746 
13719 
13741 
13734 
13730 
13717 
13729 
13724 
13735 
13726 
13760 
13778 
13756 
13729 
13740 
13754 
13726 
13721 
13746 
13768 
13766 
13746 
13744 
13792 
13792 
13761 
13755 
13805 
13796 
13784 
13764 
13771 
13784 
13742 
13741 
13780 
13765 
13783 
13770 
13752 
13754 
13777 
13753 
13752 
13757 
13757 
13745 
13726 
13742 
13758 
13755 
13762 
13771 
13768 
13773 
13770 
13784 
13774 
13786 
13809 
13834 
13845 
13824 
13785 
13818 
13837 
13827 
13821 
13830 
13828 
13841 
13818 
13799 
13821 
13805 
13795 
13788 
13776 
13777 
13770 
13767 
13789 
13803 
13815 
13776 
13774 
13782 
13795 
13765 
13783 
13801 
13802 
13799 
13828 
13911 
13983 
13977 
13915 
13918 
14010 
14052 
13894 
13782 
13783 
13810 
13807 
13796 
13806 
13794 
13800 
13816 
13829 
13815 
13786 
13786 
13803 
13805 
13785 
13802 
13822 
13827 
13825 
13810 
13815 
13801 
13809 
13820 
13838 
13867 
13868 
13841 
13843 
13851 
13861 
13843 
13845 
13877 
13892 
13888 
13871 
13892 
13918 
13907 
13892 
13922 
13936 
13950 
13962 
13993 
13983 
13994 
14000 
14020 
14026 
14049 
14062 
14101 
14086 
14086 
14089 
14105 
14093 
14053 
14006 
13974 
13954 
13934 
13893 
13856 
13840 
13820 
13788 
13748 
13737 
13733 
13711 
13685 
13701 
13706 
13689 
13655 
13644 
13624 
13635 
13626 
13644 
13691 
13687 
13685 
13673 
13672 
13673 
13634 
13651 
13677 
13674 
13651 
13630 
13657 
13696 
13684 
13648 
13665 
13672 
13679 
13650 
13635 
13659 
13664 
13641 
13637 
13667 
13655 
13640 
13635 
13637 
13650 
13633 
13635 
13653 
13653 
13669 
13654 
13649 
13644 
13644 
13646 
13651 
13631 
13628 
13630 
13645 
13652 
13656 
13628 
13631 
13650 
13649 
13616 
13605 
13633 
13643 
13631 
13617 
13621 
13619 
13616 
13594 
13611 
13619 
13586 
13576 
13613 
13628 
13642 
13603 
13611 
13617 
13629 
13606 
13607 
13611 
13614 
13600 
13581 
13622 
13651 
13630 
13610 
13624 
13632 
13621 
13599 
13647 
13683 
13697 
13681 
13664 
13652 
13662 
13640 
13654 
13649 
13636 
13618 
13638 
13627 
13617 
13604 
13598 
13604 
13593 
13565 
13544 
13566 
13578 
13571 
13549 
13562 
13568 
13554 
13545 
13545 
13567 
13593 
13586 
13622 
13638 
13672 
13734 
13703 
13632 
13693 
13816 
13807 
13657 
13543 
13568 
13577 
13572 
13586 
13593 
13574 
13585 
13602 
13586 
13566 
13589 
13618 
13618 
13592 
13592 
13613 
13618 
13615 
13632 
13652 
13654 
13658 
13634 
13635 
13650 
13657 
13645 
13680 
13701 
13682 
13657 
13700 
13736 
13733 
13721 
13738 
13740 
13739 
13751 
13768 
13788 
13798 
13814 
13830 
13853 
13875 
13890 
13904 
13942 
13954 
13959 
13939 
13966 
14003 
14009 
13986 
14004 
14022 
13999 
13944 
13917 
13904 
13859 
13816 
13807 
13811 
13785 
13727 
13699 
13711 
13698 
13676 
13627 
13639 
13684 
13652 
13613 
13617 
13646 
13663 
13636 
13650 
13669 
13658 
13645 
13621 
13633 
13676 
13649 
13624 
13636 
13662 
13652 
13644 
13657 
13649 
13645 
13605 
13631 
13672 
13657 
13624 
13653 
13653 
13651 
13640 
13644 
13687 
13675 
13625 
13662 
13678 
13670 
13632 
13624 
13649 
13632 
13600 
13617 
13663 
13662 
13654 
13620 
13609 
13644 
13632 
13621 
13637 
13657 
13654 
13626 
13627 
13643 
13618 
13604 
13633 
13645 
13638 
13610 
13620 
13648 
13649 
13626 
13614 
13635 
13633 
13639 
13630 
13649 
13647 
13646 
13630 
13624 
13632 
13635 
13632 
13635 
13649 
13667 
13628 
13604 
13624 
13649 
13635 
13640 
13655 
13647 
13618 
13607 
13627 
13650 
13618 
13605 
13656 
13687 
13694 
13656 
13648 
13677 
13682 
13650 
13686 
13718 
13717 
13698 
13694 
13701 
13706 
13682 
13685 
13704 
13686 
13676 
13659 
13655 
13641 
13609 
13592 
13612 
13651 
13644 
13609 
13616 
13621 
13599 
13577 
13589 
13624 
13628 
13592 
13586 
13611 
13616 
13615 
13628 
13669 
13761 
13810 
13799 
13742 
13750 
13887 
13895 
13737 
13614 
13625 
13618 
13625 
13662 
13652 
13628 
13633 
13643 
13643 
13651 
13652 
13663 
13652 
13634 
13653 
13667 
13662 
13643 
13645 
13699 
13697 
13685 
13681 
13699 
13716 
13719 
13693 
13707 
13722 
13734 
13735 
13771 
13774 
13797 
13781 
13790 
13821 
13819 
13822 
13829 
13867 
13884 
13890 
13886 
13934 
13967 
13972 
13956 
13978 
14006 
14038 
14036 
14043 
14077 
14100 
14081 
14073 
14079 
14079 
14046 
13984 
13984 
13973 
13909 
13868 
13855 
13852 
13817 
13776 
13764 
13754 
13751 
13708 
13686 
13727 
13754 
13731 
13716 
13709 
13699 
13682 
13711 
13731 
13732 
13706 
13665 
13672 
13702 
13695 
13672 
13675 
13704 
13704 
13685 
13710 
13705 
13687 
13677 
13686 
13717 
13753 
13707 
13713 
13749 
13739 
13723 
13719 
13737 
13732 
13693 
13693 
13734 
13743 
13726 
13713 
13745 
13739 
13726 
13710 
13708 
13729 
13724 
13711 
13704 
13697 
13727 
13707 
13715 
13735 
13725 
13697 
13719 
13731 
13737 
13724 
13712 
13751 
13756 
13756 
13736 
13764 
13789 
13772 
13724 
13760 
13773 
13758 
13764 
13797 
13804 
13783 
13757 
13773 
13793 
13805 
13778 
13755 
13760 
13754 
13750 
13752 
13765 
13782 
13777 
13738 
13748 
13758 
13731 
13716 
13745 
13771 
13784 
13765 
13764 
13794 
13791 
13761 
13777 
13821 
13815 
13789 
13788 
13834 
13864 
13848 
13814 
13819 
13819 
13809 
13812 
13817 
13834 
13819 
13770 
13809 
13835 
13801 
13778 
13780 
13806 
13808 
13790 
13776 
13784 
13793 
13779 
13777 
13799 
13800 
13783 
13755 
13771 
13783 
13772 
13783 
13831 
13859 
13903 
13933 
13907 
13865 
13911 
13998 
13972 
13795 
13706 
13748 
13771 
13783 
13779 
13767 
13742 
13753 
13769 
13792 
13765 
13764 
13778 
13788 
13773 
13771 
13782 
13787 
13776 
13790 
13800 
13811 
13788 
13785 
13814 
13809 
13784 
13798 
13835 
13840 
13814 
13808 
13830 
13872 
13861 
13849 
13863 
13879 
13889 
13862 
13907 
13930 
13915 
13898 
13935 
13965 
13963 
13950 
14001 
14033 
14041 
14018 
14018 
14072 
14097 
14082 
14074 
14084 
14088 
14057 
14011 
14008 
13963 
13936 
13872 
13869 
13876 
13839 
13791 
13767 
13759 
13759 
13717 
13701 
13680 
13668 
13675 
13699 
13712 
13690 
13674 
13674 
13667 
13680 
13671 
13664 
13701 
13720 
13709 
13707 
13714 
13727 
13729 
13692 
13705 
13721 
13720 
13678 
13699 
13779 
13793 
13764 
13721 
13739 
13747 
13755 
13778 
13774 
13786 
13800 
13783 
13772 
13772 
13771 
13712 
13730 
13735 
13700 
13698 
13703 
13696 
13692 
13669 
13656 
13682 
13695 
13666 
13647 
13641 
13660 
13636 
13622 
13670 
13685 
13643 
13592 
13628 
13657 
13640 
13643 
13643 
13644 
13640 
13615 
13631 
13634 
13629 
13599 
13599 
13631 
13637 
13625 
13618 
13643 
13657 
13642 
13623 
13642 
13648 
13642 
13628 
13651 
13662 
13628 
13622 
13658 
13671 
13711 
13688 
13677 
13692 
13676 
13665 
13675 
13693 
13675 
13640 
13624 
13683 
13664 
13628 
13600 
13600 
13608 
13614 
13582 
13599 
13615 
13597 
13594 
13619 
13624 
13625 
13594 
13589 
13600 
13601 
13554 
13550 
13605 
13632 
13674 
13739 
13711 
13659 
13685 
13789 
13847 
13694 
13549 
13573 
13608 
13617 
13636 
13650 
13643 
13637 
13663 
13667 
13646 
13672 
13694 
13682 
13701 
13718 
13706 
13713 
13703 
13728 
13751 
13729 
13723 
13750 
13760 
13732 
13733 
13740 
13736 
13760 
13753 
13772 
13802 
13798 
13776 
13776 
13792 
13798 
13799 
13827 
13857 
13855 
13832 
13842 
13880 
13891 
13883 
13896 
13935 
13996 
13985 
13960 
14010 
14016 
14024 
14020 
14031 
14056 
14031 
14001 
13983 
13970 
13992 
13901 
13829 
13831 
13818 
13802 
13758 
13766 
13748 
13701 
13674 
13682 
13687 
13674 
13648 
13674 
13680 
13667 
13643 
13640 
13665 
13669 
13652 
13661 
13678 
13649 
13639 
13658 
13670 
13666 
13654 
13632 
13644 
13668 
13660 
13637 
13656 
13660 
13646 
13631 
13647 
13669 
13678 
13651 
13634 
13673 
13678 
13635 
13633 
13659 
13681 
13669 
13655 
13669 
13680 
13661 
13640 
13649 
13656 
13660 
13638 
13653 
13661 
13643 
13624 
13636 
13672 
13678 
13662 
13654 
13645 
13612 
13634 
13652 
13671 
13659 
13651 
13637 
13658 
13674 
13654 
13662 
13648 
13647 
13647 
13612 
13626 
13677 
13702 
13663 
13668 
13677 
13662 
13641 
13651 
13677 
13679 
13634 
13598 
13597 
13616 
13606 
13577 
13615 
13648 
13657 
13650 
13671 
13685 
13685 
13689 
13702 
13723 
13731 
13722 
13695 
13741 
13744 
13725 
13721 
13721 
13721 
13710 
13699 
13709 
13706 
13670 
13635 
13659 
13676 
13668 
13646 
13648 
13662 
13650 
13653 
13672 
13672 
13681 
13659 
13637 
13636 
13661 
13655 
13663 
13720 
13742 
13774 
13839 
13846 
13773 
13761 
13894 
13915 
13751 
13633 
13620 
13664 
13673 
13657 
13660 
13663 
13680 
13691 
13664 
13674 
13693 
13694 
13665 
13658 
13677 
13715 
13701 
13683 
13704 
13714 
13724 
13718 
13724 
13743 
13744 
13698 
13674 
13680 
13686 
13709 
13738 
13772 
13785 
13756 
13766 
13788 
13807 
13804 
13804 
13872 
13872 
13878 
13887 
13921 
13926 
13908 
13940 
14003 
14036 
14049 
14039 
14053 
14091 
14115 
14095 
14098 
14089 
14075 
14079 
14068 
14052 
14050 
14007 
13961 
13955 
13918 
13859 
13830 
13840 
13830 
13804 
13769 
13778 
13778 
13745 
13725 
13739 
13731 
13747 
13722 
13740 
13748 
13727 
13698 
13735 
13750 
13749 
13716 
13704 
13730 
13730 
13714 
13683 
13718 
13751 
13730 
13693 
13715 
13741 
13734 
13687 
13702 
13751 
13774 
13727 
13708 
13760 
13751 
13738 
13728 
13724 
13688 
13667 
13691 
13730 
13725 
13712 
13691 
13710 
13708 
13707 
13680 
13709 
13740 
13717 
13678 
13702 
13752 
13736 
13720 
13737 
13759 
13760 
13709 
13705 
13745 
13732 
13710 
13709 
13719 
13726 
13734 
13722 
13738 
13734 
13731 
13699 
13717 
13744 
13724 
13717 
13719 
13734 
13738 
13721 
13724 
13750 
13754 
13740 
13729 
13763 
13762 
13743 
13736 
13773 
13784 
13764 
13751 
13757 
13770 
13777 
13777 
13792 
13833 
13831 
13797 
13810 
13827 
13797 
13775 
13784 
13822 
13823 
13789 
13772 
13809 
13797 
13752 
13735 
13757 
13764 
13738 
13695 
13723 
13740 
13715 
13691 
13697 
13734 
13733 
13704 
13729 
13762 
13755 
13735 
13764 
13848 
13882 
13896 
13931 
13945 
13871 
13872 
13950 
13996 
13842 
13722 
13757 
13806 
13786 
13774 
13787 
13807 
13805 
13774 
13750 
13765 
13783 
13797 
13771 
13756 
13775 
13774 
13767 
13759 
13786 
13798 
13780 
13778 
13808 
13819 
13803 
13778 
13781 
13800 
13812 
13797 
13787 
13825 
13834 
13806 
13824 
13853 
13865 
13825 
13844 
13904 
13901 
13879 
13883 
13908 
13936 
13957 
13947 
13982 
14009 
14008 
14002 
14032 
14035 
14053 
14046 
14052 
14058 
14049 
14015 
13986 
13966 
13917 
13881 
13878 
13853 
13836 
13785 
13735 
13741 
13731 
13718 
13683 
13673 
13662 
13649 
13631 
13630 
13633 
13624 
13603 
13611 
13646 
13616 
13602 
13595 
13621 
13639 
13617 
13594 
13571 
13587 
13561 
13554 
13587 
13609 
13614 
13590 
13627 
13655 
13666 
13628 
13612 
13627 
13642 
13632 
13625 
13625 
13625 
13605 
13599 
13629 
13635 
13596 
13585 
13618 
13610 
13605 
13601 
13616 
13620 
13609 
13584 
13594 
13605 
13566 
13532 
13544 
13585 
13595 
13561 
13537 
13569 
13590 
13572 
13565 
13583 
13586 
13557 
13570 
13585 
13584 
13596 
13570 
13572 
13600 
13586 
13566 
13582 
13605 
13605 
13576 
13585 
13586 
13559 
13556 
13581 
13590 
13598 
13586 
13554 
13578 
13580 
13561 
13548 
13584 
13612 
13604 
13566 
13590 
13616 
13588 
13590 
13634 
13659 
13641 
13592 
13590 
13587 
13591 
13572 
13560 
13559 
13543 
13552 
13539 
13559 
13548 
13537 
13526 
13534 
13547 
13522 
13524 
13551 
13576 
13557 
13517 
13553 
13602 
13620 
13652 
13722 
13702 
13637 
13707 
13821 
13756 
13579 
13517 
13576 
13611 
13602 
13610 
13612 
13623 
13632 
13618 
13598 
13626 
13661 
13657 
13628 
13640 
13660 
13653 
13635 
13643 
13650 
13638 
13639 
13662 
13681 
13675 
13648 
13630 
13670 
13697 
13693 
13683 
13704 
13715 
13706 
13679 
13711 
13755 
13754 
13752 
13772 
13799 
13806 
13814 
13843 
13864 
13900 
13905 
13909 
13930 
13940 
13946 
13959 
14006 
14029 
14025 
14026 
14054 
14063 
14019 
13973 
13974 
13948 
13917 
13861 
13842 
13837 
13808 
13763 
13742 
13747 
13714 
13652 
13640 
13621 
13627 
13638 
13643 
13672 
13661 
13657 
13650 
13668 
13678 
13679 
13642 
13669 
13682 
13663 
13654 
13670 
13672 
13659 
13614 
13619 
13642 
13694 
13661 
13651 
13666 
13666 
13662 
13633 
13678 
13693 
13644 
13625 
13649 
13658 
13667 
13645 
13646 
13663 
13647 
13627 
13635 
13655 
13672 
13652 
13667 
13701 
13674 
13651 
13652 
13671 
13684 
13676 
13662 
13689 
13693 
13671 
13659 
13684 
13700 
13682 
13658 
13649 
13680 
13681 
13660 
13673 
13669 
13671 
13634 
13632 
13666 
13658 
13628 
13618 
13635 
13638 
13612 
13594 
13625 
13640 
13619 
13621 
13651 
13676 
13663 
13659 
13666 
13677 
13685 
13649 
13668 
13715 
13702 
13666 
13663 
13697 
13718 
13719 
13709 
13731 
13757 
13742 
13693 
13711 
13708 
13715 
13708 
13720 
13741 
13713 
13656 
13639 
13656 
13636 
13617 
13609 
13609 
13624 
13616 
13609 
13627 
13625 
13605 
13611 
13633 
13646 
13620 
13593 
13624 
13677 
13686 
13684 
13741 
13850 
13880 
13807 
13775 
13910 
14016 
13861 
13669 
13644 
13702 
13664 
13672 
13707 
13705 
13684 
13682 
13702 
13702 
13710 
13692 
13720 
13737 
13715 
13699 
13733 
13742 
13728 
13723 
13732 
13728 
13727 
13722 
13722 
13756 
13790 
13774 
13719 
13738 
13770 
13790 
13786 
13794 
13795 
13802 
13812 
13846 
13850 
13838 
13834 
13872 
13898 
13925 
13915 
13948 
13985 
13999 
13993 
13992 
14024 
14056 
14068 
14045 
14060 
14129 
14105 
14068 
14085 
14048 
13986 
13954 
13988 
13964 
13900 
13847 
13815 
13809 
13809 
13779 
13763 
13755 
13731 
13722 
13728 
13740 
13733 
13712 
13682 
13713 
13738 
13708 
13688 
13709 
13724 
13686 
13666 
13699 
13723 
13712 
13677 
13693 
13715 
13707 
13683 
13683 
13705 
13703 
13697 
13687 
13689 
13710 
13707 
13679 
13722 
13714 
13688 
13681 
13701 
13710 
13682 
13650 
13695 
13730 
13705 
13670 
13657 
13677 
13668 
13651 
13679 
13703 
13698 
13657 
13652 
13672 
13675 
13663 
13645 
13666 
13693 
13689 
13662 
13682 
13702 
13674 
13624 
13652 
13674 
13661 
13634 
13650 
13670 
13674 
13640 
13648 
13675 
13675 
13648 
13647 
13669 
13656 
13639 
13649 
13672 
13679 
13638 
13644 
13663 
13684 
13684 
13647 
13653 
13658 
13663 
13610 
13628 
13675 
13684 
13657 
13667 
13707 
13688 
13664 
13692 
13723 
13731 
13740 
13719 
13729 
13750 
13740 
13705 
13706 
13724 
13757 
13723 
13717 
13722 
13719 
13688 
13662 
13666 
13679 
13663 
13680 
13706 
13685 
13661 
13639 
13641 
13653 
13645 
13629 
13655 
13683 
13670 
13634 
13647 
13661 
13708 
13739 
13791 
13872 
13889 
13819 
13792 
13911 
13983 
13822 
13652 
13666 
13708 
13671 
13680 
13728 
13752 
13721 
13692 
13688 
13721 
13723 
13716 
13715 
13730 
13736 
13725 
13717 
13717 
13729 
13743 
13735 
13731 
13744 
13742 
13752 
13783 
13785 
13765 
13733 
13768 
13804 
13794 
13780 
13816 
13847 
13840 
13841 
13870 
13897 
13904 
13897 
13920 
13965 
13965 
13938 
13965 
14019 
14026 
14026 
14033 
14074 
14083 
14086 
14085 
14123 
14142 
14141 
14128 
14122 
14112 
14063 
14009 
14006 
13993 
13970 
13908 
13882 
13896 
13863 
13819 
13809 
13809 
13807 
13786 
13768 
13789 
13781 
13758 
13748 
13756 
13766 
13754 
13722 
13740 
13757 
13756 
13729 
13751 
13767 
13736 
13709 
13754 
13771 
13759 
13731 
13744 
13781 
13794 
13760 
13751 
13794 
13786 
13755 
13772 
13801 
13811 
13788 
13762 
13785 
13815 
13818 
13795 
13764 
13799 
13809 
13773 
13776 
13780 
13780 
13769 
13761 
13759 
13788 
13774 
13752 
13764 
13775 
13772 
13741 
13736 
13761 
13751 
13736 
13762 
13772 
13752 
13719 
13719 
13747 
13743 
13705 
13701 
13736 
13751 
13706 
13686 
13734 
13726 
13715 
13731 
13728 
13727 
13711 
13678 
13687 
13690 
13693 
13683 
13713 
13718 
13722 
13729 
13712 
13727 
13744 
13730 
13726 
13777 
13778 
13734 
13703 
13712 
13748 
13750 
13721 
13710 
13714 
13701 
13650 
13656 
13677 
13643 
13608 
13621 
13646 
13639 
13609 
13610 
13641 
13644 
13632 
13622 
13623 
13605 
13591 
13626 
13661 
13681 
13680 
13700 
13767 
13815 
13735 
13679 
13792 
13898 
13790 
13562 
13560 
13633 
13648 
13606 
13617 
13665 
13668 
13631 
13624 
13645 
13657 
13638 
13632 
13679 
13691 
13677 
13670 
13691 
13709 
13697 
13672 
13703 
13725 
13740 
13728 
13744 
13776 
13801 
13783 
13803 
13826 
13854 
13857 
13897 
13916 
13921 
13937 
13942 
13979 
13990 
13970 
13955 
13987 
13996 
13994 
14015 
14033 
14052 
14054 
14040 
14058 
14060 
14060 
14067 
14091 
14099 
14083 
14049 
14011 
14015 
14008 
13944 
13888 
13856 
13809 
13757 
13712 
13684 
13671 
13654 
13621 
13618 
13595 
13585 
13561 
13553 
13563 
13534 
13508 
13503 
13537 
13516 
13487 
13482 
13487 
13498 
13490 
13474 
13478 
13486 
13468 
13454 
13501 
13515 
13513 
13484 
13511 
13529 
13526 
13520 
13548 
13577 
13576 
13537 
13555 
13581 
13574 
13574 
13573 
13584 
13576 
13555 
13566 
13610 
13599 
13585 
13563 
13594 
13617 
13631 
13594 
13601 
13624 
13603 
13593 
13613 
13625 
13622 
13601 
13605 
13611 
13618 
13604 
13622 
13639 
13627 
13623 
13608 
13619 
13631 
13613 
13615 
13639 
13647 
13641 
13615 
13628 
13638 
13632 
13606 
13617 
13643 
13647 
13615 
13595 
13613 
13623 
13611 
13618 
13634 
13656 
13661 
13638 
13647 
13671 
13665 
13656 
13665 
13696 
13686 
13666 
13694 
13708 
13704 
13668 
13676 
13710 
13682 
13671 
13670 
13688 
13677 
13631 
13614 
13632 
13638 
13628 
13611 
13631 
13637 
13599 
13564 
13587 
13639 
13642 
13577 
13586 
13624 
13618 
13571 
13575 
13628 
13673 
13675 
13725 
13791 
13791 
13727 
13733 
13871 
13872 
13666 
13541 
13589 
13629 
13614 
13593 
13619 
13619 
13638 
13605 
13587 
13628 
13644 
13618 
13603 
13618 
13621 
13605 
13619 
13638 
13633 
13611 
13599 
13659 
13682 
13662 
13627 
13655 
13691 
13656 
13651 
13680 
13697 
13698 
13682 
13707 
13734 
13753 
13731 
13742 
13775 
13770 
13780 
13789 
13812 
13846 
13841 
13855 
13906 
13939 
13929 
13908 
13944 
13985 
13972 
13962 
13996 
14043 
14020 
13964 
13958 
13957 
13920 
13858 
13847 
13823 
13782 
13741 
13716 
13727 
13718 
13670 
13637 
13646 
13643 
13646 
13611 
13626 
13632 
13607 
13599 
13604 
13612 
13597 
13586 
13595 
13607 
13614 
13595 
13591 
13612 
13619 
13590 
13555 
13565 
13594 
13599 
13596 
13605 
13591 
13592 
13573 
13592 
13608 
13589 
13556 
13582 
13618 
13600 
13565 
13560 
13600 
13602 
13569 
13556 
13585 
13589 
13562 
13552 
13583 
13597 
13596 
13558 
13574 
13605 
13593 
13578 
13586 
13587 
13585 
13546 
13544 
13592 
13595 
13566 
13569 
13581 
13576 
13546 
13543 
13590 
13586 
13559 
13555 
13573 
13591 
13592 
13562 
13575 
13594 
13596 
13592 
13591 
13600 
13602 
13571 
13570 
13585 
13591 
13577 
13590 
13609 
13606 
13589 
13602 
13639 
13639 
13609 
13593 
13606 
13607 
13616 
13613 
13631 
13653 
13650 
13634 
13648 
13659 
13651 
13663 
13696 
13729 
13720 
13672 
13659 
13676 
13687 
13656 
13653 
13670 
13676 
13675 
13659 
13648 
13621 
13623 
13589 
13591 
13609 
13612 
13588 
13610 
13578 
13588 
13601 
13590 
13590 
13593 
13578 
13581 
13592 
13588 
13625 
13667 
13688 
13737 
13810 
13774 
13735 
13798 
13910 
13811 
13641 
13590 
13614 
13584 
13614 
13655 
13671 
13646 
13646 
13656 
13670 
13663 
13672 
13683 
13690 
13660 
13645 
13678 
13685 
13691 
13678 
13691 
13716 
13708 
13694 
13702 
13734 
13737 
13698 
13706 
13749 
13747 
13729 
13742 
13767 
13773 
13752 
13757 
13793 
13825 
13822 
13817 
13836 
13863 
13875 
13881 
13916 
13942 
13940 
13952 
14010 
14029 
14035 
14044 
14084 
14131 
14112 
14081 
14089 
14090 
14068 
14026 
14011 
13997 
13968 
13909 
13873 
13860 
13852 
13809 
13775 
13801 
13783 
13747 
13730 
13741 
13751 
13746 
13726 
13736 
13737 
13749 
13720 
13701 
13709 
13720 
13702 
13707 
13718 
13735 
13710 
13713 
13726 
13709 
13689 
13704 
13737 
13745 
13736 
13712 
13738 
13758 
13748 
13720 
13727 
13769 
13781 
13764 
13760 
13787 
13804 
13765 
13752 
13741 
13768 
13774 
13757 
13771 
13778 
13757 
13739 
13762 
13769 
13767 
13734 
13740 
13742 
13726 
13707 
13731 
13752 
13767 
13753 
13722 
13729 
13745 
13716 
13716 
13714 
13730 
13743 
13719 
13725 
13740 
13730 
13717 
13708 
13693 
13712 
13716 
13712 
13722 
13737 
13705 
13696 
13724 
13728 
13697 
13704 
13744 
13745 
13708 
13695 
13715 
13736 
13726 
13719 
13743 
13761 
13746 
13722 
13732 
13721 
13722 
13730 
13728 
13748 
13723 
13676 
13672 
13691 
13691 
13626 
13624 
13641 
13628 
13616 
13600 
13612 
13618 
13607 
13608 
13622 
13610 
13599 
13584 
13598 
13625 
13626 
13614 
13643 
13654 
13705 
13739 
13736 
13675 
13672 
13760 
13816 
13700 
13563 
13551 
13580 
13629 
13614 
13608 
13590 
13600 
13622 
13621 
13597 
13628 
13636 
13645 
13610 
13633 
13654 
13638 
13621 
13635 
13674 
13659 
13663 
13658 
13664 
13680 
13662 
13645 
13693 
13706 
13695 
13684 
13686 
13712 
13712 
13698 
13707 
13739 
13768 
13742 
13780 
13797 
13789 
13781 
13801 
13808 
13816 
13836 
13837 
13875 
13922 
13930 
13920 
13950 
13958 
13936 
13917 
13929 
13924 
13909 
13848 
13851 
13853 
13812 
13727 
13708 
13707 
13708 
13671 
13652 
13650 
13637 
13595 
13593 
13622 
13612 
13590 
13571 
13575 
13566 
13579 
13558 
13574 
13583 
13576 
13544 
13568 
13587 
13566 
13556 
13576 
13574 
13560 
13581 
13587 
13611 
13618 
13585 
13578 
13611 
13595 
13585 
13568 
13632 
13634 
13630 
13601 
13618 
13624 
13615 
13605 
13640 
13638 
13624 
13603 
13609 
13624 
13623 
13601 
13620 
13643 
13640 
13596 
13596 
13632 
13635 
13621 
13614 
13651 
13642 
13631 
13619 
13628 
13629 
13607 
13588 
13615 
13613 
13622 
13605 
13633 
13654 
13634 
13608 
13608 
13620 
13619 
13577 
13586 
13638 
13649 
13625 
13609 
13643 
13646 
13646 
13617 
13631 
13656 
13678 
13644 
13671 
13701 
13712 
13710 
13719 
13704 
13685 
13677 
13689 
13699 
13691 
13668 
13673 
13689 
13682 
13652 
13616 
13631 
13622 
13630 
13613 
13643 
13646 
13625 
13603 
13615 
13629 
13649 
13621 
13628 
13645 
13649 
13639 
13675 
13718 
13748 
13785 
13822 
13821 
13760 
13790 
13905 
13856 
13693 
13624 
13634 
13670 
13680 
13699 
13679 
13686 
13688 
13683 
13665 
13674 
13691 
13686 
13668 
13653 
13700 
13705 
13684 
13681 
13701 
13719 
13711 
13693 
13704 
13720 
13725 
13702 
13728 
13750 
13738 
13713 
13722 
13745 
13779 
13778 
13779 
13822 
13836 
13817 
13827 
13852 
13853 
13853 
13859 
13902 
13942 
13940 
13932 
13953 
14007 
14007 
14001 
14045 
14065 
14077 
14049 
14057 
14073 
14039 
13995 
13991 
13959 
13944 
13894 
13844 
13834 
13806 
13786 
13758 
13755 
13755 
13723 
13692 
13703 
13723 
13710 
13669 
13686 
13699 
13677 
13654 
13659 
13673 
13689 
13671 
13661 
13672 
13686 
13677 
13637 
13653 
13692 
13710 
13662 
13693 
13696 
13676 
13642 
13652 
13711 
13710 
13665 
13673 
13695 
13695 
13674 
13659 
13673 
13682 
13690 
13679 
13686 
13695 
13696 
13685 
13694 
13714 
13707 
13668 
13683 
13708 
13689 
13659 
13676 
13709 
13696 
13683 
13702 
13717 
13709 
13690 
13681 
13710 
13717 
13696 
13686 
13708 
13713 
13691 
13670 
13712 
13719 
13685 
13695 
13706 
13720 
13734 
13704 
13716 
13748 
13737 
13704 
13714 
13711 
13732 
13736 
13740 
13756 
13769 
13779 
13758 
13788 
13809 
13784 
13780 
13846 
13874 
13857 
13821 
13826 
13826 
13828 
13814 
13822 
13838 
13836 
13810 
13802 
13779 
13777 
13760 
13732 
13760 
13785 
13748 
13744 
13773 
13779 
13770 
13757 
13765 
13768 
13759 
13724 
13741 
13754 
13771 
13795 
13834 
13891 
13970 
13985 
13935 
13916 
14019 
14077 
13932 
13787 
13769 
13787 
13768 
13808 
13840 
13808 
13786 
13810 
13819 
13808 
13791 
13832 
13862 
13849 
13819 
13858 
13861 
13852 
13842 
13837 
13854 
13863 
13855 
13840 
13870 
13888 
13915 
13888 
13905 
13924 
13918 
13907 
13924 
13948 
13958 
13960 
13991 
14010 
13990 
14000 
14036 
14083 
14088 
14107 
14131 
14155 
14170 
14177 
14189 
14218 
14249 
14237 
14249 
14274 
14281 
14285 
14268 
14250 
14246 
14225 
14180 
14146 
14128 
14105 
14070 
14039 
14031 
14026 
13987 
13972 
13960 
13956 
13932 
13919 
13936 
13932 
13906 
13906 
13921 
13913 
13910 
13907 
13914 
13903 
13897 
13894 
13916 
13924 
13921 
13904 
13920 
13938 
13920 
13918 
13931 
13956 
13948 
13911 
13933 
13965 
13968 
13959 
13935 
13964 
13972 
13961 
13961 
13967 
13963 
13980 
13971 
13975 
13995 
14010 
13988 
14021 
14036 
14001 
13975 
13988 
14004 
14003 
13995 
13987 
14003 
14003 
13976 
13970 
13988 
13993 
13995 
13979 
13979 
13985 
13986 
13985 
14005 
14012 
14008 
13996 
14002 
14029 
14032 
13993 
14011 
14044 
14032 
14018 
14011 
14024 
14028 
14035 
14015 
14033 
14061 
14051 
14049 
14103 
14128 
14114 
14076 
14085 
14085 
14062 
14053 
14081 
14082 
14073 
14058 
14061 
14040 
14052 
14031 
14024 
14022 
14014 
14038 
14041 
14061 
14057 
14050 
14039 
14057 
14065 
14061 
14058 
14063 
14077 
14100 
14084 
14120 
14151 
14227 
14255 
14198 
14171 
14227 
14314 
14233 
14077 
14046 
14078 
14088 
14106 
14127 
14125 
14089 
14105 
14124 
14129 
14106 
14107 
14122 
14124 
14118 
14119 
14148 
14144 
14139 
14127 
14161 
14177 
14153 
14139 
14167 
14186 
14183 
14161 
14196 
14219 
14214 
14197 
14208 
14226 
14243 
14240 
14253 
14281 
14282 
14269 
14278 
14316 
14345 
14323 
14322 
14366 
14418 
14404 
14401 
14458 
14474 
14448 
14471 
14492 
14501 
14501 
14483 
14478 
14478 
14456 
14402 
14377 
14363 
14325 
14297 
14247 
14246 
14230 
14176 
14156 
14180 
14182 
14161 
14132 
14136 
14144 
14133 
14108 
14128 
14148 
14130 
14093 
14108 
14115 
14131 
14101 
14114 
14140 
14138 
14115 
14104 
14125 
14116 
14097 
14080 
14117 
14157 
14127 
14104 
14126 
14140 
14133 
14107 
14140 
14155 
14138 
14116 
14115 
14134 
14126 
14100 
14105 
14148 
14146 
14113 
14110 
14132 
14136 
14111 
14085 
14095 
14089 
14118 
14113 
14119 
14113 
14105 
14092 
14109 
14114 
14112 
14093 
14086 
14100 
14107 
14101 
14103 
14099 
14097 
14079 
14079 
14088 
14086 
14090 
14076 
14094 
14123 
14090 
14052 
14071 
14084 
14090 
14071 
14076 
14083 
14088 
14072 
14081 
14115 
14117 
14085 
14086 
14124 
14153 
14145 
14129 
14130 
14101 
14104 
14122 
14126 
14123 
14100 
14081 
14098 
14092 
14035 
13981 
14009 
14029 
14028 
14019 
14026 
14026 
14026 
14011 
14006 
14008 
14012 
13996 
13994 
14010 
14016 
13995 
13987 
14043 
14080 
14112 
14171 
14204 
14166 
14115 
14199 
14286 
14197 
14024 
13964 
13996 
14032 
14039 
14015 
14005 
14017 
14024 
13996 
13978 
13995 
14010 
14006 
13989 
14027 
14057 
14021 
13993 
14021 
14044 
14030 
14018 
14035 
14045 
14029 
14017 
14048 
14051 
14043 
14030 
14046 
14048 
14036 
14063 
14077 
14108 
14108 
14085 
14071 
14120 
14156 
14153 
14113 
14160 
14212 
14215 
14199 
14215 
14261 
14288 
14262 
14265 
14313 
14324 
14305 
14320 
14339 
14317 
14286 
14265 
14274 
14245 
14187 
14136 
14091 
14074 
14070 
14023 
14019 
14023 
13987 
13950 
13967 
13977 
13954 
13912 
13912 
13956 
13954 
13933 
13920 
13925 
13934 
13925 
13918 
13925 
13963 
13933 
13895 
13928 
13970 
13985 
13931 
13936 
13924 
13926 
13929 
13932 
13945 
13963 
13937 
13938 
13946 
13915 
13914 
13929 
13932 
13950 
13955 
13946 
13953 
13939 
13923 
13932 
13945 
13951 
13948 
13920 
13931 
13959 
13962 
13942 
13949 
13961 
13954 
13922 
13939 
13964 
13954 
13944 
13942 
13957 
13946 
13935 
13931 
13959 
13969 
13960 
13954 
13953 
13947 
13944 
13935 
13941 
13955 
13968 
13948 
13962 
13978 
13978 
13951 
13959 
13990 
13985 
13964 
13944 
13970 
13974 
13955 
13942 
13981 
14000 
13991 
13956 
13979 
13984 
13978 
13945 
13974 
14019 
14021 
14018 
14025 
14044 
14043 
14044 
14057 
14064 
14056 
14036 
14022 
14055 
14083 
14098 
14079 
14084 
14121 
14097 
14094 
14120 
14146 
14151 
14144 
14163 
14161 
14153 
14114 
14137 
14162 
14152 
14129 
14126 
14161 
14137 
14120 
14114 
14126 
14113 
14102 
14082 
14097 
14117 
14113 
14091 
14120 
14126 
14127 
14103 
14101 
14122 
14119 
14091 
14127 
14186 
14229 
14280 
14295 
14276 
14236 
14315 
14412 
14361 
14164 
14079 
14102 
14116 
14119 
14137 
14125 
14137 
14126 
14127 
14131 
14143 
14160 
14173 
14154 
14167 
14200 
14178 
14158 
14180 
14220 
14219 
14213 
14218 
14227 
14224 
14206 
14190 
14211 
14235 
14233 
14207 
14236 
14250 
14244 
14233 
14277 
14321 
14316 
14305 
14326 
14353 
14365 
14351 
14346 
14375 
14405 
14430 
14439 
14460 
14484 
14489 
14484 
14506 
14530 
14541 
14537 
14545 
14549 
14555 
14532 
14525 
14525 
14488 
14446 
14421 
14409 
14397 
14341 
14308 
14320 
14301 
14263 
14243 
14263 
14276 
14268 
14235 
14241 
14253 
14241 
14192 
14215 
14271 
14250 
14223 
14231 
14248 
14257 
14224 
14228 
14258 
14259 
14248 
14230 
14272 
14270 
14249 
14224 
14251 
14286 
14271 
14252 
14271 
14288 
14286 
14250 
14232 
14263 
14275 
14234 
14236 
14254 
14251 
14215 
14233 
14266 
14253 
14235 
14225 
14254 
14257 
14236 
14210 
14234 
14269 
14267 
14242 
14274 
14317 
14293 
14280 
14290 
14289 
14283 
14255 
14256 
14278 
14267 
14251 
14269 
14297 
14291 
14249 
14250 
14259 
14252 
14251 
14219 
14236 
14255 
14254 
14211 
14205 
14251 
14241 
14234 
14219 
14226 
14255 
14217 
14204 
14203 
14201 
14175 
14185 
14202 
14199 
14193 
14183 
14205 
14218 
14191 
14178 
14189 
14204 
14222 
14220 
14247 
14257 
14229 
14189 
14210 
14227 
14227 
14204 
14186 
14197 
14201 
14178 
14140 
14135 
14161 
14153 
14124 
14138 
14118 
14117 
14111 
14105 
14122 
14118 
14084 
14124 
14132 
14094 
14077 
14100 
14145 
14170 
14170 
14199 
14280 
14310 
14208 
14186 
14305 
14377 
14223 
14034 
14063 
14142 
14147 
14122 
14144 
14151 
14122 
14100 
14115 
14149 
14129 
14117 
14127 
14140 
14150 
14150 
14150 
14173 
14194 
14180 
14169 
14198 
14219 
14181 
14151 
14199 
14213 
14202 
14186 
14221 
14220 
14213 
14233 
14241 
14241 
14254 
14261 
14277 
14294 
14295 
14288 
14293 
14328 
14356 
14361 
14361 
14393 
14415 
14416 
14414 
14467 
14497 
14485 
14477 
14486 
14511 
14518 
14491 
14475 
14483 
14455 
14392 
14371 
14373 
14352 
14286 
14257 
14276 
14265 
14217 
14205 
14214 
14212 
14183 
14152 
14176 
14207 
14191 
14162 
14188 
14199 
14187 
14174 
14187 
14193 
14197 
14186 
14202 
14215 
14211 
14208 
14208 
14181 
14217 
14205 
14177 
14226 
14240 
14229 
14217 
14221 
14233 
14228 
14202 
14222 
14234 
14239 
14203 
14222 
14256 
14248 
14223 
14234 
14257 
14260 
14242 
14230 
14241 
14222 
14246 
14247 
14249 
14273 
14269 
14247 
14270 
14287 
14282 
14238 
14255 
14269 
14270 
14241 
14249 
14269 
14253 
14242 
14265 
14269 
14271 
14255 
14236 
14269 
14280 
14282 
14271 
14290 
14300 
14273 
14256 
14257 
14287 
14282 
14250 
14262 
14293 
14289 
14249 
14240 
14289 
14298 
14281 
14267 
14287 
14315 
14276 
14257 
14283 
14309 
14299 
14286 
14341 
14371 
14369 
14340 
14338 
14325 
14304 
14290 
14313 
14328 
14312 
14293 
14299 
14309 
14296 
14256 
14248 
14271 
14273 
14241 
14185 
14223 
14241 
14236 
14238 
14264 
14244 
14227 
14211 
14231 
14253 
14256 
14245 
14274 
14324 
14350 
14407 
14452 
14447 
14397 
14435 
14554 
14520 
14315 
14225 
14258 
14288 
14300 
14271 
14277 
14296 
14313 
14304 
14287 
14278 
14275 
14277 
14281 
14302 
14321 
14330 
14327 
14314 
14338 
14342 
14329 
14338 
14366 
14371 
14361 
14345 
14368 
14391 
14384 
14362 
14381 
14409 
14414 
14403 
14420 
14437 
14436 
14429 
14454 
14469 
14469 
14460 
14511 
14545 
14563 
14571 
14583 
14610 
14625 
14649 
14651 
14681 
14690 
14691 
14700 
14720 
14715 
14687 
14628 
14627 
14624 
14588 
14529 
14507 
14506 
14466 
14410 
14386 
14401 
14389 
14347 
14334 
14331 
14339 
14339 
14307 
14314 
14316 
14293 
14287 
14319 
14326 
14325 
14295 
14306 
14323 
14310 
14285 
14308 
14325 
14334 
14311 
14303 
14327 
14338 
14321 
14311 
14334 
14334 
14337 
14323 
14323 
14327 
14369 
14365 
14367 
14381 
14383 
14369 
14367 
14377 
14377 
14373 
14371 
14375 
14393 
14380 
14364 
14386 
14386 
14368 
14371 
14396 
14386 
14379 
14361 
14383 
14383 
14377 
14362 
14385 
14385 
14385 
14374 
14368 
14367 
14373 
14359 
14355 
14370 
14352 
14324 
14337 
14366 
14379 
14342 
14352 
14378 
14383 
14361 
14339 
14356 
14374 
14368 
14350 
14374 
14390 
14383 
14366 
14369 
14381 
14381 
14358 
14375 
14409 
14389 
14391 
14412 
14427 
14441 
14449 
14456 
14485 
14505 
14509 
14483 
14498 
14474 
14440 
14464 
14513 
14546 
14518 
14484 
14495 
14500 
14464 
14444 
14456 
14458 
14447 
14429 
14423 
14444 
14447 
14416 
14409 
14436 
14447 
14437 
14412 
14430 
14444 
14467 
14477 
14488 
14518 
14589 
14651 
14683 
14619 
14609 
14702 
14742 
14606 
14456 
14458 
14486 
14499 
14513 
14509 
14501 
14497 
14497 
14504 
14487 
14497 
14524 
14513 
14485 
14498 
14523 
14526 
14507 
14520 
14534 
14542 
14533 
14527 
14564 
14575 
14551 
14550 
14571 
14577 
14558 
14556 
14584 
14607 
14615 
14612 
14633 
14651 
14627 
14614 
14658 
14704 
14700 
14673 
14695 
14730 
14741 
14752 
14775 
14791 
14783 
14775 
14786 
14825 
14849 
14823 
14807 
14839 
14840 
14807 
14760 
14728 
14729 
14709 
14647 
14627 
14627 
14578 
14525 
14511 
14523 
14516 
14477 
14428 
14440 
14459 
14462 
14430 
14455 
14468 
14458 
14418 
14434 
14466 
14451 
14396 
14414 
14417 
14420 
14398 
14397 
14412 
14405 
14367 
14358 
14370 
14369 
14364 
14351 
14374 
14373 
14334 
14327 
14337 
14344 
14321 
14298 
14308 
14300 
14293 
14280 
14298 
14292 
14264 
14257 
14273 
14291 
14287 
14256 
14247 
14268 
14266 
14261 
14250 
14278 
14272 
14239 
14234 
14259 
14279 
14246 
14210 
14251 
14251 
14245 
14206 
14204 
14229 
14261 
14211 
14194 
14227 
14253 
14214 
14224 
14246 
14230 
14226 
14236 
14232 
14242 
14224 
14245 
14290 
14277 
14292 
14303 
14311 
14296 
14255 
14229 
14241 
14251 
14275 
14259 
14241 
14247 
14214 
14164 
14173 
14176 
14154 
14171 
14169 
14202 
14197 
14176 
14131 
14174 
14187 
14184 
14188 
14206 
14193 
14180 
14152 
14182 
14271 
14286 
14260 
14330 
14403 
14314 
14286 
14375 
14418 
14289 
14136 
14129 
14205 
14204 
14198 
14185 
14226 
14235 
14245 
14210 
14234 
14231 
14207 
14207 
14228 
14242 
14279 
14215 
14206 
14262 
14273 
14273 
14271 
14279 
14278 
14256 
14268 
14303 
14286 
14294 
14271 
14332 
14377 
14375 
14334 
14344 
14371 
14376 
14379 
14422 
14431 
14420 
14412 
14427 
14482 
14502 
14491 
14505 
14562 
14581 
14592 
14591 
14635 
14651 
14636 
14608 
14639 
14651 
14618 
14580 
14582 
14589 
14548 
14483 
14444 
14426 
14429 
14384 
14368 
14352 
14346 
14321 
14306 
14329 
14324 
14300 
14265 
14286 
14303 
14290 
14274 
14258 
14262 
14301 
14278 
14278 
14309 
14296 
14282 
14282 
14302 
14291 
14276 
14274 
14288 
14304 
14281 
14272 
14282 
14270 
14276 
14289 
14290 
14278 
14301 
14295 
14310 
14308 
14319 
14303 
14317 
14317 
14286 
14288 
14291 
14312 
14315 
14288 
14296 
14316 
14311 
14288 
14289 
14316 
14319 
14303 
14306 
14329 
14321 
14320 
14298 
14311 
14334 
14309 
14288 
14291 
14307 
14329 
14290 
14290 
14329 
14343 
14327 
14308 
14328 
14331 
14303 
14293 
14319 
14312 
14285 
14302 
14312 
14327 
14330 
14321 
14328 
14343 
14339 
14314 
14346 
14369 
14384 
14388 
14402 
14422 
14420 
14392 
14375 
14403 
14410 
14370 
14347 
14360 
14343 
14342 
14315 
14313 
14320 
14317 
14290 
14320 
14334 
14299 
14286 
14318 
14346 
14332 
14302 
14309 
14347 
14318 
14287 
14314 
14360 
14390 
14397 
14448 
14545 
14552 
14467 
14432 
14602 
14626 
14430 
14293 
14332 
14366 
14361 
14358 
14370 
14408 
14409 
14360 
14371 
14392 
14394 
14379 
14369 
14378 
14422 
14411 
14388 
14414 
14410 
14387 
14395 
14409 
14435 
14429 
14414 
14440 
14446 
14421 
14400 
14425 
14446 
14467 
14452 
14443 
14465 
14487 
14498 
14502 
14534 
14557 
14543 
14539 
14591 
14606 
14606 
14617 
14655 
14693 
14696 
14686 
14717 
14761 
14779 
14765 
14772 
14798 
14797 
14772 
14761 
14759 
14726 
14666 
14644 
14641 
14613 
14574 
14523 
14523 
14526 
14486 
14469 
14486 
14478 
14463 
14435 
14428 
14446 
14454 
14417 
14425 
14432 
14425 
14395 
14383 
14412 
14432 
14399 
14395 
14409 
14412 
14390 
14372 
14395 
14422 
14408 
14380 
14366 
14382 
14396 
14385 
14386 
14421 
14417 
14384 
14384 
14387 
14401 
14367 
14366 
14388 
14426 
14427 
14389 
14386 
14372 
14375 
14384 
14413 
14418 
14397 
14368 
14399 
14411 
14406 
14402 
14412 
14429 
14407 
14379 
14393 
14386 
14422 
14426 
14427 
14441 
14439 
14416 
14434 
14463 
14467 
14444 
14425 
14443 
14462 
14442 
14425 
14439 
14444 
14449 
14441 
14446 
14466 
14460 
14437 
14444 
14483 
14494 
14480 
14462 
14490 
14524 
14506 
14519 
14550 
14556 
14552 
14532 
14528 
14511 
14516 
14512 
14548 
14557 
14538 
14522 
14513 
14518 
14503 
14468 
14464 
14458 
14475 
14469 
14451 
14461 
14449 
14448 
14437 
14453 
14471 
14469 
14436 
14440 
14478 
14478 
14454 
14496 
14524 
14593 
14633 
14590 
14558 
14621 
14703 
14634 
14483 
14442 
14473 
14491 
14513 
14527 
14532 
14491 
14488 
14515 
14516 
14494 
14516 
14524 
14509 
14489 
14494 
14507 
14512 
14479 
14469 
14497 
14500 
14463 
14454 
14486 
14482 
14505 
14514 
14509 
14514 
14491 
14477 
14520 
14537 
14514 
14519 
14536 
14536 
14549 
14549 
14573 
14591 
14583 
14567 
14602 
14608 
14628 
14638 
14656 
14685 
14699 
14709 
14709 
14733 
14753 
14725 
14711 
14707 
14706 
14685 
14643 
14613 
14586 
14552 
14520 
14489 
14457 
14424 
14375 
14372 
14373 
14351 
14333 
14328 
14340 
14321 
14294 
14287 
14316 
14330 
14314 
14292 
14293 
14309 
14282 
14254 
14267 
14280 
14275 
14262 
14262 
14261 
14271 
14266 
14260 
14264 
14282 
14271 
14248 
14287 
14307 
14280 
14263 
14267 
14277 
14287 
14273 
14279 
14279 
14279 
14248 
14250 
14270 
14296 
14274 
14241 
14261 
14277 
14234 
14225 
14256 
14259 
14232 
14221 
14227 
14248 
14224 
14209 
14224 
14202 
14191 
14189 
14212 
14223 
14195 
14174 
14167 
14180 
14189 
14143 
14147 
14188 
14195 
14153 
14177 
14207 
14222 
14223 
14209 
14225 
14251 
14254 
14242 
14242 
14264 
14244 
14223 
14244 
14263 
14251 
14208 
14210 
14211 
14201 
14173 
14169 
14188 
14202 
14181 
14176 
14182 
14210 
14196 
14171 
14200 
14224 
14201 
14194 
14190 
14218 
14231 
14239 
14286 
14293 
14362 
14405 
14346 
14301 
14359 
14464 
14412 
14245 
14184 
14226 
14232 
14250 
14250 
14247 
14236 
14265 
14289 
14270 
14234 
14258 
14256 
14239 
14229 
14299 
14302 
14274 
14240 
14282 
14309 
14297 
14271 
14283 
14320 
14288 
14277 
14300 
14311 
14323 
14319 
14309 
14347 
14407 
14381 
14336 
14379 
14418 
14411 
14402 
14434 
14463 
14478 
14462 
14492 
14525 
14548 
14537 
14533 
14585 
14594 
14602 
14609 
14636 
14662 
14647 
14631 
14637 
14627 
14589 
14537 
14530 
14521 
14473 
14409 
14392 
14389 
14363 
14317 
14307 
14303 
14293 
14258 
14253 
14284 
14295 
14267 
14254 
14265 
14254 
14231 
14228 
14251 
14255 
14267 
14255 
14242 
14252 
14278 
14253 
14274 
14269 
14266 
14263 
14246 
14253 
14267 
14263 
14239 
14285 
14309 
14284 
14255 
14269 
14275 
14256 
14241 
14272 
14280 
14255 
14262 
14308 
14305 
14270 
14236 
14259 
14287 
14291 
14258 
14264 
14292 
14297 
14274 
14262 
14254 
14265 
14285 
14281 
14274 
14274 
14271 
14261 
14274 
14274 
14260 
14235 
14275 
14272 
14268 
14244 
14254 
14246 
14265 
14264 
14264 
14260 
14237 
14248 
14268 
14287 
14274 
14261 
14250 
14279 
14298 
14302 
14290 
14305 
14291 
14278 
14307 
14343 
14384 
14360 
14318 
14305 
14321 
14335 
14316 
14323 
14345 
14322 
14319 
14292 
14269 
14274 
14271 
14241 
14277 
14294 
14269 
14254 
14273 
14282 
14264 
14235 
14276 
14298 
14289 
14271 
14287 
14301 
14302 
14325 
14340 
14394 
14471 
14468 
14430 
14429 
14530 
14560 
14397 
14246 
14248 
14259 
14256 
14306 
14312 
14297 
14247 
14268 
14306 
14317 
14286 
14292 
14287 
14299 
14314 
14299 
14337 
14359 
14341 
14341 
14381 
14407 
14383 
14387 
14408 
14426 
14431 
14417 
14436 
14460 
14467 
14464 
14484 
14509 
14501 
14514 
14527 
14564 
14568 
14550 
14594 
14625 
14643 
14637 
14631 
14687 
14715 
14720 
14728 
14779 
14815 
14830 
14815 
14826 
14856 
14854 
14832 
14826 
14820 
14800 
14719 
14703 
14702 
14660 
14635 
14580 
14592 
14575 
14532 
14498 
14504 
14483 
14470 
14435 
14451 
14466 
14449 
14414 
14420 
14415 
14406 
14365 
14371 
14403 
14402 
14382 
14354 
14381 
14377 
14342 
14347 
14347 
14344 
14338 
14330 
14335 
14341 
14316 
14302 
14331 
14347 
14328 
14301 
14309 
14332 
14317 
14285 
14312 
14338 
14337 
14321 
14325 
14337 
14347 
14316 
14300 
14324 
14351 
14337 
14306 
14335 
14348 
14340 
14343 
14360 
14363 
14344 
14334 
14340 
14384 
14355 
14335 
14354 
14355 
14376 
14349 
14343 
14384 
14393 
14355 
14335 
14381 
14398 
14378 
14360 
14357 
14391 
14394 
14378 
14394 
14398 
14387 
14349 
14361 
14388 
14382 
14345 
14367 
14398 
14392 
14379 
14392 
14421 
14426 
14394 
14385 
14436 
14454 
14467 
14443 
14450 
14441 
14409 
14393 
14408 
14413 
14424 
14406 
14409 
14397 
14372 
14316 
14345 
14360 
14338 
14339 
14317 
14323 
14326 
14303 
14310 
14324 
14326 
14322 
14273 
14318 
14343 
14332 
14307 
14348 
14398 
14412 
14471 
14519 
14491 
14452 
14488 
14584 
14537 
14343 
14252 
14304 
14363 
14353 
14343 
14333 
14348 
14351 
14356 
14322 
14340 
14354 
14344 
14317 
14320 
14371 
14356 
14348 
14334 
14332 
14349 
14326 
14306 
14364 
14376 
14345 
14329 
14332 
14344 
14358 
14336 
14356 
14396 
14402 
14369 
14390 
14421 
14410 
14362 
14403 
14466 
14472 
14449 
14459 
14482 
14506 
14485 
14489 
14556 
14576 
14554 
14591 
14620 
14618 
14605 
14622 
14617 
14615 
14599 
14548 
14542 
14502 
14469 
14423 
14407 
14390 
14352 
14334 
14308 
14303 
14315 
14265 
14233 
14250 
14245 
14215 
14209 
14218 
14224 
14182 
14150 
14203 
14215 
14198 
14190 
14199 
14209 
14181 
14154 
14181 
14225 
14195 
14182 
14214 
14220 
14193 
14180 
14225 
14215 
14182 
14226 
14221 
14209 
14245 
14219 
14171 
14222 
14225 
14204 
14207 
14208 
14166 
14168 
14175 
14197 
14199 
14183 
14166 
14181 
14179 
14192 
14174 
14152 
14202 
14258 
14210 
14164 
14198 
14207 
14170 
14148 
14173 
14182 
14173 
14103 
14147 
14139 
14135 
14152 
14136 
14155 
14179 
14144 
14132 
14150 
14135 
14091 
14108 
14141 
14116 
14169 
14151 
14115 
14133 
14151 
14159 
14208 
14201 
14174 
14141 
14144 
14165 
14183 
14146 
14130 
14145 
14146 
14094 
14119 
14137 
14110 
14070 
14063 
14061 
14091 
14084 
14060 
14051 
14080 
14066 
14034 
14041 
14021 
14016 
14019 
14005 
14044 
14021 
14052 
14101 
14111 
14161 
14194 
14159 
14105 
14123 
14237 
14251 
14083 
13959 
14012 
14016 
14032 
14085 
14056 
14024 
14036 
14041 
14020 
14020 
14035 
14073 
14075 
14027 
14057 
14091 
14101 
14081 
14077 
14094 
14108 
14093 
14083 
14109 
14119 
14100 
14086 
14091 
14114 
14122 
14108 
14153 
14232 
14243 
14219 
14223 
14261 
14266 
14258 
14277 
14313 
14329 
14322 
14345 
14391 
14407 
14418 
14438 
14452 
14454 
14535 
14525 
14535 
14522 
14553 
14559 
14547 
14537 
14497 
14460 
14461 
14454 
14424 
14374 
14343 
14320 
14274 
14257 
14258 
14252 
14237 
14209 
14207 
14208 
14222 
14205 
14169 
14196 
14219 
14219 
14161 
14172 
14182 
14189 
14182 
14183 
14201 
14188 
14178 
14193 
14169 
14189 
14178 
14131 
14158 
14179 
14147 
14163 
14197 
14179 
14161 
14136 
14168 
14205 
14167 
14127 
14160 
14177 
14183 
14164 
14155 
14170 
14152 
14128 
14147 
14185 
14166 
14129 
14121 
14160 
14173 
14163 
14153 
14148 
14154 
14159 
14138 
14154 
14155 
14157 
14133 
14151 
14170 
14151 
14130 
14175 
14170 
14157 
14140 
14154 
14161 
14155 
14125 
14121 
14154 
14168 
14158 
14135 
14140 
14170 
14161 
14129 
14131 
14128 
14118 
14137 
14194 
14180 
14162 
14161 
14158 
14157 
14151 
14132 
14145 
14166 
14182 
14186 
14161 
14185 
14190 
14158 
14179 
14214 
14243 
14243 
14193 
14203 
14218 
14222 
14188 
14199 
14221 
14218 
14210 
14177 
14182 
14158 
14113 
14141 
14131 
14127 
14134 
14127 
14130 
14137 
14103 
14121 
14146 
14152 
14130 
14106 
14113 
14149 
14178 
14168 
14204 
14275 
14317 
14365 
14374 
14327 
14359 
14457 
14459 
14288 
14149 
14153 
14159 
14187 
14227 
14234 
14179 
14195 
14225 
14221 
14196 
14228 
14265 
14242 
14206 
14211 
14228 
14231 
14203 
14214 
14260 
14260 
14231 
14222 
14229 
14238 
14260 
14247 
14298 
14304 
14286 
14255 
14278 
14315 
14340 
14315 
14334 
14354 
14346 
14332 
14370 
14441 
14429 
14438 
14449 
14471 
14483 
14493 
14513 
14560 
14584 
14558 
14562 
14612 
14639 
14634 
14608 
14635 
14636 
14627 
14562 
14558 
14546 
14505 
14441 
14427 
14408 
14380 
14330 
14305 
14343 
14329 
14286 
14273 
14307 
14296 
14256 
14265 
14306 
14292 
14264 
14241 
14254 
14265 
14263 
14243 
14256 
14281 
14261 
14274 
14288 
14304 
14314 
14304 
14299 
14322 
14330 
14288 
14283 
14307 
14304 
14314 
14296 
14311 
14337 
14331 
14297 
14318 
14306 
14287 
14308 
14312 
14296 
14295 
14301 
14289 
14293 
14301 
14284 
14270 
14284 
14279 
14263 
14264 
14278 
14291 
14278 
14228 
14277 
14325 
14312 
14276 
14263 
14271 
14265 
14257 
14271 
14293 
14289 
14244 
14263 
14265 
14231 
14241 
14257 
14281 
14281 
14258 
14237 
14251 
14282 
14271 
14230 
14244 
14271 
14264 
14234 
14270 
14274 
14247 
14233 
14245 
14259 
14219 
14224 
14247 
14259 
14254 
14245 
14255 
14284 
14303 
14294 
14288 
14309 
14336 
14332 
14311 
14323 
14325 
14323 
14289 
14277 
14286 
14289 
14283 
14296 
14302 
14269 
14221 
14207 
14228 
14214 
14198 
14174 
14177 
14186 
14193 
14163 
14170 
14183 
14189 
14138 
14173 
14169 
14169 
14155 
14173 
14205 
14212 
14207 
14303 
14363 
14274 
14197 
14293 
14430 
14370 
14156 
14052 
14141 
14206 
14172 
14140 
14152 
14168 
14166 
14143 
14147 
14166 
14167 
14149 
14160 
14151 
14162 
14190 
14198 
14186 
14194 
14165 
14183 
14210 
14199 
14162 
14169 
14210 
14214 
14205 
14198 
14226 
14237 
14258 
14231 
14249 
14267 
14270 
14229 
14261 
14345 
14350 
14310 
14319 
14356 
14368 
14360 
14359 
14397 
14437 
14449 
14438 
14466 
14492 
14499 
14485 
14498 
14526 
14504 
14460 
14439 
14448 
14423 
14358 
14325 
14311 
14276 
14209 
14202 
14241 
14206 
14166 
14154 
14167 
14159 
14119 
14106 
14113 
14125 
14133 
14121 
14102 
14132 
14122 
14097 
14105 
14130 
14109 
14083 
14105 
14152 
14132 
14111 
14104 
14144 
14136 
14090 
14102 
14149 
14139 
14129 
14131 
14134 
14163 
14158 
14127 
14137 
14144 
14125 
14096 
14115 
14133 
14136 
14132 
14129 
14124 
14111 
14124 
14119 
14138 
14132 
14134 
14154 
14161 
14142 
14122 
14115 
14153 
14143 
14116 
14118 
14140 
14153 
14110 
14090 
14135 
14162 
14157 
14135 
14136 
14144 
14134 
14119 
14121 
14140 
14148 
14128 
14130 
14143 
14138 
14122 
14112 
14154 
14152 
14136 
14128 
14138 
14150 
14162 
14146 
14159 
14170 
14162 
14155 
14164 
14165 
14163 
14173 
14187 
14222 
14225 
14207 
14180 
14208 
14223 
14213 
14197 
14233 
14220 
14189 
14186 
14201 
14214 
14184 
14157 
14134 
14148 
14146 
14128 
14125 
14143 
14145 
14110 
14096 
14128 
14159 
14130 
14102 
14123 
14162 
14153 
14134 
14180 
14221 
14263 
14316 
14318 
14269 
14268 
14372 
14411 
14277 
14129 
14110 
14154 
14151 
14166 
14181 
14178 
14185 
14193 
14174 
14137 
14172 
14197 
14187 
14174 
14195 
14212 
14224 
14194 
14190 
14191 
14177 
14185 
14235 
14231 
14223 
14221 
14216 
14242 
14251 
14252 
14243 
14274 
14261 
14249 
14263 
14291 
14306 
14312 
14300 
14310 
14340 
14367 
14338 
14375 
14422 
14452 
14431 
14450 
14488 
14501 
14479 
14509 
14554 
14579 
14548 
14554 
14550 
14539 
14505 
14480 
14470 
14442 
14388 
14366 
14334 
14308 
14303 
14238 
14220 
14236 
14227 
14186 
14175 
14198 
14167 
14164 
14180 
14178 
14162 
14162 
14139 
14155 
14144 
14132 
14133 
14157 
14147 
14126 
14122 
14143 
14153 
14157 
14122 
14128 
14151 
14158 
14155 
14160 
14164 
14170 
14134 
14143 
14176 
14174 
14162 
14162 
14157 
14153 
14153 
14144 
14163 
14181 
14177 
14149 
14155 
14179 
14170 
14151 
14146 
14144 
14154 
14126 
14150 
14173 
14169 
14153 
14161 
14158 
14176 
14157 
14155 
14170 
14179 
14157 
14151 
14161 
14173 
14171 
14139 
14148 
14170 
14167 
14153 
14149 
14148 
14173 
14160 
14139 
14150 
14166 
14146 
14141 
14158 
14173 
14177 
14163 
14181 
14180 
14171 
14138 
14150 
14174 
14183 
14160 
14196 
14209 
14196 
14171 
14171 
14200 
14224 
14194 
14204 
14270 
14273 
14244 
14248 
14242 
14237 
14234 
14236 
14239 
14243 
14228 
14217 
14223 
14221 
14189 
14176 
14167 
14173 
14186 
14164 
14188 
14197 
14184 
14174 
14162 
14190 
14205 
14166 
14167 
14176 
14193 
14213 
14209 
14264 
14304 
14339 
14381 
14399 
14345 
14351 
14458 
14480 
14295 
14165 
14184 
14208 
14218 
14215 
14171 
14224 
14253 
14229 
14201 
14193 
14210 
14228 
14217 
14199 
14213 
14241 
14227 
14183 
14188 
14228 
14240 
14214 
14224 
14228 
14242 
14255 
14239 
14255 
14269 
14284 
14285 
14290 
14312 
14302 
14290 
14339 
14350 
14340 
14345 
14392 
14390 
14380 
14403 
14449 
14479 
14492 
14487 
14491 
14529 
14565 
14595 
14599 
14604 
14612 
14610 
14601 
14630 
14637 
14609 
14574 
14575 
14560 
14495 
14441 
14430 
14409 
14374 
14337 
14369 
14344 
14314 
14275 
14283 
14309 
14290 
14254 
14256 
14281 
14283 
14250 
14239 
14280 
14288 
14249 
14228 
14245 
14247 
14266 
14261 
14275 
14297 
14301 
14283 
14320 
14321 
14299 
14279 
14304 
14351 
14337 
14287 
14292 
14326 
14334 
14308 
14306 
14308 
14316 
14298 
14288 
14315 
14315 
14281 
14280 
14302 
14301 
14297 
14254 
14273 
14332 
14330 
14293 
14303 
14306 
14310 
14287 
14273 
14309 
14302 
14300 
14303 
14313 
14316 
14297 
14273 
14304 
14307 
14289 
14286 
14333 
14328 
14312 
14290 
14294 
14319 
14307 
14275 
14290 
14298 
14296 
14279 
14284 
14300 
14288 
14270 
14249 
14296 
14352 
14321 
14298 
14304 
14329 
14331 
14311 
14329 
14345 
14360 
14360 
14402 
14440 
14436 
14391 
14361 
14382 
14395 
14348 
14338 
14361 
14377 
14341 
14295 
14317 
14315 
14305 
14268 
14271 
14278 
14275 
14242 
14263 
14281 
14260 
14206 
14236 
14250 
14248 
14232 
14237 
14270 
14276 
14258 
14280 
14344 
14414 
14405 
14304 
14309 
14448 
14456 
14272 
14146 
14170 
14215 
14202 
14221 
14243 
14251 
14215 
14193 
14209 
14217 
14216 
14205 
14221 
14244 
14233 
14220 
14237 
14237 
14221 
14222 
14225 
14246 
14269 
14249 
14227 
14241 
14267 
14243 
14254 
14256 
14288 
14302 
14307 
14319 
14312 
14313 
14340 
14360 
14364 
14346 
14352 
14408 
14406 
14394 
14376 
14436 
14458 
14458 
14479 
14511 
14515 
14544 
14529 
14550 
14561 
14540 
14548 
14545 
14545 
14513 
14446 
14429 
14426 
14379 
14317 
14262 
14273 
14271 
14231 
14204 
14230 
14219 
14181 
14154 
14167 
14183 
14186 
14152 
14158 
14166 
14154 
14122 
14099 
14154 
14152 
14115 
14114 
14124 
14122 
14089 
14102 
14132 
14142 
14125 
14112 
14134 
14141 
14122 
14112 
14150 
14161 
14155 
14136 
14124 
14138 
14140 
14108 
14134 
14157 
14139 
14111 
14117 
14142 
14138 
14126 
14108 
14122 
14121 
14111 
14097 
14125 
14141 
14126 
14100 
14116 
14139 
14126 
14099 
14105 
14121 
14109 
14097 
14117 
14132 
14134 
14113 
14108 
14109 
14123 
14124 
14098 
14120 
14137 
14130 
14125 
14122 
14120 
14141 
14120 
14104 
14116 
14132 
14130 
14145 
14145 
14145 
14144 
14146 
14151 
14163 
14159 
14190 
14210 
14195 
14143 
14131 
14181 
14187 
14189 
14147 
14150 
14175 
14147 
14108 
14099 
14123 
14106 
14079 
14080 
14097 
14086 
14098 
14100 
14095 
14103 
14094 
14081 
14099 
14110 
14088 
14059 
14095 
14144 
14155 
14155 
14223 
14295 
14244 
14161 
14253 
14380 
14297 
14113 
14061 
14135 
14165 
14121 
14108 
14129 
14119 
14127 
14140 
14146 
14147 
14137 
14117 
14143 
14171 
14160 
14117 
14144 
14166 
14182 
14172 
14182 
14216 
14218 
14186 
14197 
14209 
14222 
14236 
14226 
14224 
14232 
14232 
14234 
14270 
14253 
14251 
14264 
14287 
14321 
14321 
14306 
14335 
14360 
14359 
14377 
14404 
14442 
14461 
14455 
14481 
14506 
14519 
14490 
14511 
14541 
14540 
14523 
14491 
14494 
14469 
14413 
14390 
14372 
14342 
14332 
14277 
14266 
14238 
14200 
14192 
14196 
14214 
14182 
14134 
14126 
14148 
14155 
14146 
14145 
14148 
14142 
14132 
14121 
14149 
14161 
14134 
14119 
14141 
14131 
14120 
14108 
14144 
14158 
14148 
14139 
14143 
14153 
14142 
14109 
14117 
14132 
14151 
14133 
14121 
14140 
14145 
14134 
14099 
14137 
14153 
14127 
14123 
14147 
14158 
14130 
14117 
14136 
14166 
14169 
14142 
14126 
14139 
14150 
14117 
14113 
14136 
14148 
14148 
14143 
14152 
14146 
14117 
14126 
14149 
14144 
14139 
14124 
14142 
14149 
14147 
14125 
14144 
14152 
14132 
14123 
14148 
14145 
14137 
14103 
14103 
14142 
14170 
14155 
14131 
14157 
14154 
14139 
14107 
14131 
14153 
14151 
14138 
14173 
14174 
14154 
14133 
14164 
14176 
14156 
14161 
14191 
14257 
14251 
14197 
14173 
14197 
14206 
14201 
14198 
14187 
14210 
14177 
14134 
14155 
14166 
14149 
14122 
14141 
14133 
14137 
14103 
14109 
14141 
14140 
14117 
14133 
14145 
14129 
14104 
14099 
14121 
14157 
14180 
14202 
14267 
14344 
14372 
14297 
14308 
14434 
14478 
14295 
14153 
14144 
14168 
14140 
14142 
14174 
14192 
14162 
14152 
14187 
14176 
14149 
14171 
14203 
14188 
14169 
14171 
14205 
14236 
14230 
14202 
14210 
14245 
14241 
14209 
14220 
14266 
14291 
14268 
14272 
14284 
14297 
14295 
14290 
14310 
14333 
14326 
14342 
14377 
14383 
14377 
14381 
14420 
14455 
14433 
14422 
14478 
14508 
14520 
14506 
14541 
14565 
14585 
14584 
14589 
14636 
14651 
14601 
14582 
14589 
14591 
14538 
14481 
14479 
14449 
14387 
14358 
14347 
14341 
14323 
14292 
14264 
14251 
14232 
14193 
14221 
14232 
14232 
14186 
14195 
14210 
14212 
14190 
14195 
14198 
14176 
14180 
14210 
14232 
14234 
14215 
14156 
14201 
14225 
14201 
14165 
14197 
14232 
14221 
14189 
14221 
14238 
14242 
14210 
14207 
14219 
14231 
14223 
14203 
14225 
14263 
14239 
14226 
14233 
14231 
14229 
14203 
14225 
14238 
14224 
14206 
14212 
14236 
14256 
14221 
14223 
14228 
14232 
14196 
14198 
14261 
14256 
14224 
14218 
14242 
14237 
14196 
14211 
14256 
14263 
14235 
14237 
14261 
14270 
14263 
14252 
14257 
14253 
14264 
14255 
14285 
14301 
14297 
14260 
14265 
14283 
14281 
14255 
14248 
14276 
14281 
14268 
14266 
14297 
14309 
14286 
14268 
14293 
14323 
14311 
14285 
14306 
14357 
14364 
14296 
14300 
14334 
14332 
14301 
14302 
14328 
14324 
14299 
14279 
14306 
14277 
14253 
14240 
14256 
14272 
14243 
14215 
14240 
14243 
14230 
14245 
14248 
14251 
14247 
14227 
14217 
14247 
14270 
14245 
14253 
14325 
14356 
14382 
14423 
14391 
14363 
14427 
14496 
14409 
14225 
14222 
14275 
14314 
14308 
14305 
14298 
14316 
14308 
14285 
14259 
14282 
14308 
14296 
14295 
14305 
14313 
14296 
14284 
14258 
14301 
14312 
14319 
14299 
14312 
14333 
14323 
14294 
14319 
14339 
14326 
14305 
14330 
14361 
14363 
14337 
14359 
14377 
14379 
14367 
14366 
14381 
14412 
14407 
14421 
14458 
14470 
14461 
14493 
14530 
14553 
14561 
14546 
14584 
14582 
14557 
14564 
14585 
14597 
14572 
14520 
14481 
14475 
14436 
14381 
14369 
14350 
14312 
14267 
14256 
14257 
14252 
14223 
14187 
14171 
14184 
14172 
14150 
14167 
14173 
14166 
14137 
14130 
14113 
14128 
14146 
14156 
14156 
14139 
14141 
14131 
14138 
14152 
14146 
14126 
14138 
14144 
14122 
14112 
14165 
14195 
14174 
14135 
14144 
14151 
14143 
14134 
14139 
14160 
14155 
14134 
14136 
14152 
14156 
14144 
14121 
14147 
14148 
14120 
14114 
14124 
14117 
14121 
14112 
14132 
14127 
14115 
14110 
14117 
14120 
14099 
14084 
14098 
14129 
14132 
14098 
14102 
14119 
14130 
14088 
14070 
14123 
14132 
14115 
14091 
14100 
14134 
14110 
14104 
14123 
14119 
14128 
14112 
14132 
14150 
14131 
14122 
14148 
14170 
14187 
14151 
14147 
14158 
14155 
14142 
14146 
14155 
14151 
14133 
14114 
14147 
14135 
14124 
14103 
14097 
14109 
14090 
14095 
14124 
14120 
14083 
14085 
14090 
14105 
14118 
14098 
14087 
14091 
14091 
14088 
14119 
14174 
14237 
14265 
14277 
14241 
14217 
14301 
14354 
14246 
14108 
14089 
14103 
14115 
14137 
14150 
14141 
14141 
14142 
14132 
14121 
14121 
14160 
14176 
14159 
14147 
14148 
14151 
14149 
14154 
14187 
14192 
14192 
14175 
14198 
14207 
14189 
14167 
14193 
14217 
14216 
14205 
14246 
14273 
14268 
14245 
14256 
14291 
14313 
14306 
14311 
14325 
14345 
14348 
14369 
14415 
14433 
14442 
14425 
14458 
14485 
14483 
14499 
14556 
14576 
14558 
14526 
14538 
14560 
14538 
14487 
14464 
14449 
14417 
14359 
14303 
14323 
14300 
14266 
14240 
14227 
14220 
14184 
14163 
14190 
14199 
14185 
14147 
14158 
14181 
14170 
14129 
14163 
14206 
14203 
14168 
14158 
14162 
14173 
14156 
14145 
14168 
14156 
14149 
14150 
14162 
14163 
14143 
14129 
14154 
14163 
14158 
14136 
14129 
14183 
14193 
14158 
14160 
14170 
14163 
14148 
14159 
14177 
14181 
14155 
14145 
14166 
14163 
14150 
14136 
14158 
14156 
14148 
14131 
14153 
14153 
14163 
14148 
14140 
14142 
14146 
14140 
14142 
14168 
14179 
14145 
14141 
14157 
14159 
14141 
14123 
14137 
14171 
14154 
14126 
14136 
14148 
14144 
14120 
14147 
14165 
14154 
14101 
14145 
14156 
14158 
14115 
14136 
14157 
14152 
14148 
14145 
14168 
14126 
14117 
14138 
14184 
14189 
14170 
14134 
14162 
14186 
14177 
14156 
14206 
14249 
14238 
14213 
14202 
14204 
14217 
14199 
14195 
14210 
14202 
14168 
14150 
14171 
14168 
14136 
14095 
14117 
14142 
14141 
14113 
14135 
14160 
14123 
14110 
14143 
14165 
14142 
14098 
14116 
14136 
14133 
14122 
14167 
14220 
14274 
14320 
14324 
14293 
14304 
14401 
14434 
14289 
14152 
14145 
14156 
14153 
14171 
14198 
14162 
14157 
14182 
14194 
14170 
14159 
14198 
14204 
14175 
14173 
14170 
14172 
14177 
14199 
14236 
14254 
14244 
14208 
14212 
14238 
14230 
14208 
14232 
14248 
14242 
14244 
14280 
14284 
14276 
14255 
14291 
14331 
14330 
14309 
14302 
14354 
14392 
14382 
14381 
14426 
14463 
14455 
14440 
14475 
14524 
14518 
14522 
14551 
14581 
14568 
14564 
14575 
14591 
14563 
14518 
14485 
14480 
14435 
14391 
14358 
14351 
14310 
14286 
14262 
14252 
14259 
14223 
14183 
14196 
14205 
14195 
14177 
14197 
14221 
14205 
14162 
14186 
14194 
14203 
14179 
14174 
14197 
14219 
14182 
14184 
14210 
14226 
14214 
14183 
14202 
14218 
14206 
14191 
14208 
14201 
14189 
14200 
14210 
14214 
14225 
14187 
14215 
14249 
14221 
14203 
14219 
14230 
14223 
14204 
14201 
14230 
14212 
14181 
14198 
14213 
14222 
14214 
14191 
14197 
14216 
14202 
14175 
14189 
14202 
14200 
14189 
14184 
14200 
14189 
14178 
14176 
14184 
14180 
14167 
14174 
14172 
14188 
14173 
14162 
14202 
14223 
14192 
14138 
14162 
14209 
14186 
14166 
14182 
14212 
14216 
14180 
14180 
14212 
14228 
14209 
14214 
14240 
14242 
14220 
14226 
14247 
14233 
14225 
14217 
14252 
14247 
14225 
14196 
14228 
14255 
14252 
14217 
14231 
14250 
14271 
14240 
14254 
14272 
14273 
14275 
14269 
14294 
14308 
14315 
14313 
14312 
14300 
14287 
14269 
14289 
14313 
14314 
14278 
14288 
14290 
14268 
14268 
14268 
14283 
14292 
14269 
14258 
14299 
14322 
14275 
14264 
14308 
14314 
14259 
14242 
14290 
14302 
14287 
14279 
14335 
14382 
14402 
14452 
14510 
14443 
14398 
14466 
14577 
14479 
14301 
14267 
14312 
14331 
14326 
14310 
14306 
14329 
14324 
14298 
14286 
14340 
14345 
14337 
14314 
14344 
14350 
14349 
14335 
14355 
14361 
14354 
14343 
14363 
14378 
14378 
14359 
14362 
14374 
14396 
14386 
14402 
14427 
14439 
14433 
14419 
14454 
14468 
14453 
14459 
14480 
14513 
14490 
14501 
14536 
14541 
14570 
14577 
14619 
14669 
14688 
14677 
14666 
14703 
14728 
14697 
14705 
14715 
14721 
14699 
14650 
14620 
14618 
14581 
14534 
14523 
14489 
14443 
14397 
14409 
14402 
14391 
14347 
14346 
14354 
14353 
14335 
14344 
14346 
14334 
14309 
14304 
14314 
14315 
14290 
14262 
14284 
14290 
14287 
14283 
14300 
14302 
14289 
14252 
14266 
14293 
14312 
14265 
14255 
14269 
14262 
14271 
14280 
14276 
14272 
14244 
14235 
14280 
14283 
14262 
14255 
14259 
14247 
14240 
14226 
14266 
14272 
14247 
14223 
14237 
14254 
14261 
14244 
14258 
14268 
14253 
14223 
14241 
14241 
14252 
14249 
14240 
14266 
14291 
14269 
14241 
14260 
14265 
14259 
14259 
14267 
14259 
14239 
14202 
14221 
14234 
14210 
14175 
14184 
14191 
14184 
14163 
14155 
14169 
14166 
14139 
14144 
14185 
14183 
14155 
14119 
14144 
14172 
14162 
14135 
14159 
14165 
14144 
14105 
14117 
14157 
14161 
14139 
14150 
14154 
14156 
14129 
14146 
14173 
14167 
14136 
14145 
14192 
14211 
14197 
14186 
14202 
14202 
14191 
14198 
14244 
14259 
14248 
14227 
14234 
14234 
14216 
14206 
14211 
14247 
14257 
14232 
14221 
14208 
14205 
14189 
14179 
14209 
14213 
14179 
14164 
14194 
14222 
14202 
14184 
14206 
14219 
14210 
14188 
14200 
14223 
14245 
14251 
14301 
14346 
14409 
14447 
14370 
14323 
14428 
14518 
14436 
14248 
14219 
14239 
14258 
14289 
14306 
14294 
14263 
14283 
14302 
14297 
14271 
14303 
14327 
14319 
14297 
14304 
14333 
14334 
14309 
14314 
14321 
14334 
14338 
14329 
14355 
14372 
14366 
14356 
14389 
14411 
14409 
14402 
14424 
14429 
14451 
14456 
14480 
14506 
14497 
14482 
14480 
14505 
14544 
14544 
14549 
14597 
14604 
14605 
14627 
14648 
14676 
14695 
14687 
14731 
14751 
14739 
14722 
14752 
14761 
14738 
14677 
14640 
14639 
14611 
14560 
14531 
14525 
14509 
14471 
14452 
14420 
14433 
14414 
14398 
14416 
14417 
14388 
14388 
14405 
14401 
14394 
14365 
14386 
14396 
14393 
14393 
14384 
14395 
14390 
14379 
14372 
14391 
14392 
14375 
14350 
14384 
14393 
14381 
14384 
14389 
14404 
14407 
14395 
14442 
14459 
14430 
14415 
14423 
14428 
14441 
14394 
14397 
14433 
14432 
14420 
14413 
14430 
14453 
14425 
14434 
14449 
14440 
14438 
14425 
14445 
14453 
14444 
14424 
14445 
14465 
14455 
14439 
14442 
14424 
14417 
14422 
14448 
14465 
14457 
14447 
14443 
14441 
14455 
14464 
14454 
14464 
14466 
14454 
14440 
14460 
14450 
14439 
14438 
14460 
14469 
14461 
14430 
14458 
14475 
14470 
14463 
14458 
14469 
14473 
14448 
14456 
14480 
14479 
14462 
14458 
14466 
14472 
14441 
14448 
14465 
14478 
14473 
14447 
14476 
14474 
14451 
14420 
14454 
14488 
14487 
14477 
14488 
14506 
14487 
14466 
14461 
14490 
14485 
14448 
14440 
14487 
14516 
14518 
14516 
14530 
14542 
14506 
14481 
14487 
14552 
14586 
14568 
14582 
14580 
14567 
14549 
14563 
14576 
14565 
14540 
14548 
14546 
14537 
14536 
14522 
14536 
14525 
14489 
14471 
14491 
14497 
14491 
14462 
14462 
14488 
14500 
14479 
14499 
14506 
14494 
14482 
14493 
14534 
14571 
14586 
14650 
14721 
14673 
14604 
14687 
14812 
14708 
14484 
14425 
14511 
14532 
14526 
14522 
14546 
14543 
14542 
14499 
14513 
14532 
14538 
14535 
14534 
14556 
14552 
14530 
14526 
14586 
14576 
14547 
14551 
14568 
14586 
14578 
14563 
14572 
14592 
14609 
14583 
14613 
14627 
14629 
14597 
14613 
14631 
14643 
14634 
14652 
14670 
14698 
14687 
14665 
14705 
14767 
14749 
14748 
14814 
14850 
14851 
14855 
14882 
14918 
14911 
14883 
14918 
14937 
14944 
14896 
14894 
14883 
14862 
14813 
14763 
14748 
14728 
14666 
14631 
14652 
14661 
14625 
14588 
14585 
14596 
14584 
14546 
14574 
14593 
14567 
14530 
14554 
14544 
14533 
14525 
14532 
14550 
14546 
14527 
14531 
14566 
14563 
14543 
14539 
14551 
14554 
14549 
14551 
14565 
14564 
14541 
14530 
14569 
14585 
14575 
14553 
14542 
14582 
14574 
14534 
14538 
14563 
14573 
14562 
14559 
14581 
14586 
14556 
14534 
14568 
14589 
14573 
14556 
14561 
14552 
14554 
14552 
14579 
14601 
14577 
14544 
14587 
14599 
14580 
14559 
14586 
14588 
14601 
14582 
14575 
14589 
14590 
14571 
14577 
14603 
14596 
14593 
14590 
14586 
14589 
14598 
14586 
14593 
14595 
14598 
14574 
14594 
14607 
14602 
14594 
14605 
14628 
14622 
14587 
14580 
14609 
14610 
14592 
14585 
14601 
14631 
14623 
14610 
14613 
14636 
14618 
14611 
14618 
14612 
14627 
14622 
14615 
14621 
14626 
14601 
14600 
14661 
14675 
14609 
14586 
14645 
14649 
14619 
14603 
14640 
14665 
14644 
14625 
14623 
14636 
14629 
14600 
14616 
14656 
14629 
14602 
14632 
14661 
14661 
14643 
14661 
14681 
14666 
14645 
14664 
14709 
14728 
14710 
14691 
14717 
14720 
14684 
14675 
14695 
14702 
14702 
14696 
14713 
14706 
14659 
14624 
14638 
14664 
14651 
14608 
14622 
14638 
14645 
14613 
14607 
14632 
14654 
14647 
14629 
14644 
14621 
14614 
14650 
14708 
14742 
14763 
14818 
14876 
14841 
14803 
14870 
14966 
14881 
14692 
14601 
14642 
14672 
14674 
14684 
14681 
14686 
14704 
14669 
14648 
14695 
14709 
14686 
14683 
14714 
14707 
14703 
14699 
14711 
14735 
14730 
14700 
14728 
14765 
14762 
14727 
14744 
14772 
14752 
14725 
14766 
14801 
14785 
14768 
14793 
14818 
14848 
14838 
14819 
14856 
14872 
14884 
14867 
14902 
14941 
14952 
14942 
14965 
15018 
15048 
15031 
15047 
15091 
15119 
15085 
15094 
15142 
15140 
15105 
15059 
15051 
15039 
14998 
14961 
14968 
14952 
14900 
14880 
14863 
14857 
14846 
14799 
14780 
14797 
14822 
14788 
14781 
14787 
14789 
14773 
14773 
14810 
14793 
14752 
14745 
14789 
14803 
14765 
14765 
14800 
14811 
14805 
14774 
14786 
14799 
14793 
14768 
14779 
14796 
14784 
14744 
14789 
14827 
14813 
14778 
14763 
14765 
14777 
14776 
14775 
14787 
14773 
14761 
14744 
14766 
14782 
14757 
14741 
14762 
14756 
14765 
14734 
14739 
14763 
14750 
14740 
14756 
14785 
14778 
14758 
14737 
14779 
14789 
14772 
14738 
14761 
14776 
14744 
14724 
14767 
14772 
14763 
14764 
14782 
14765 
14791 
14806 
14825 
14830 
14830 
14805 
14811 
14849 
14850 
14822 
14819 
14838 
14835 
14793 
14782 
14812 
14825 
14819 
14790 
14825 
14832 
14801 
14797 
14813 
14822 
14829 
14817 
14821 
14845 
14849 
14824 
14830 
14841 
14851 
14841 
14820 
14843 
14821 
14803 
14822 
14847 
14870 
14861 
14827 
14846 
14877 
14896 
14865 
14873 
14881 
14867 
14848 
14870 
14899 
14912 
14872 
14875 
14936 
14957 
14923 
14905 
14953 
14972 
14966 
14945 
14958 
14971 
14943 
14938 
14967 
14964 
14960 
14938 
14937 
14957 
14947 
14894 
14883 
14891 
14896 
14869 
14857 
14873 
14892 
14877 
14863 
14882 
14893 
14897 
14871 
14870 
14887 
14889 
14902 
14933 
14965 
14995 
15043 
15081 
15035 
15020 
15090 
15152 
15048 
14891 
14864 
14898 
14905 
14922 
14911 
14885 
14927 
14945 
14923 
14884 
14894 
14921 
14918 
14889 
14914 
14929 
14917 
14901 
14931 
14964 
14976 
14956 
14983 
15013 
15000 
14971 
14980 
14997 
15002 
14991 
14973 
14993 
15017 
15016 
15012 
15045 
15059 
15057 
15040 
15066 
15079 
15073 
15074 
15106 
15127 
15144 
15125 
15156 
15206 
15207 
15198 
15222 
15252 
15281 
15258 
15251 
15284 
15262 
15236 
15236 
15209 
15188 
15139 
15094 
15074 
15069 
15029 
14987 
14978 
14968 
14946 
14902 
14895 
14900 
14894 
14870 
14876 
14890 
14876 
14853 
14840 
14858 
14850 
14823 
14822 
14833 
14841 
14841 
14825 
14836 
14844 
14839 
14815 
14824 
14833 
14821 
14790 
14820 
14833 
14842 
14828 
14811 
14781 
14803 
14833 
14819 
14818 
14802 
14787 
14797 
14799 
14809 
14796 
14774 
14791 
14794 
14775 
14744 
14764 
14763 
14764 
14760 
14783 
14789 
14775 
14744 
14737 
14760 
14773 
14751 
14729 
14753 
14767 
14760 
14745 
14758 
14768 
14761 
14733 
14744 
14757 
14737 
14712 
14735 
14768 
14758 
14725 
14719 
14743 
14754 
14714 
14723 
14735 
14729 
14706 
14696 
14716 
14730 
14705 
14685 
14697 
14732 
14742 
14719 
14730 
14738 
14738 
14718 
14732 
14769 
14783 
14769 
14759 
14758 
14745 
14728 
14725 
14747 
14746 
14720 
14705 
14716 
14709 
14678 
14653 
14673 
14668 
14657 
14630 
14638 
14658 
14641 
14607 
14628 
14653 
14641 
14610 
14633 
14661 
14657 
14648 
14672 
14722 
14743 
14798 
14847 
14789 
14730 
14800 
14899 
14848 
14665 
14601 
14631 
14677 
14681 
14690 
14665 
14664 
14675 
14682 
14663 
14674 
14699 
14684 
14685 
14694 
14722 
14718 
14707 
14713 
14747 
14753 
14751 
14746 
14752 
14741 
14758 
14748 
14772 
14779 
14792 
14799 
14815 
14824 
14823 
14812 
14821 
14853 
14878 
14852 
14856 
14904 
14931 
14936 
14944 
14971 
14994 
15005 
15007 
15025 
15070 
15076 
15079 
15112 
15147 
15154 
15122 
15124 
15137 
15136 
15130 
15112 
15078 
15065 
15014 
14973 
14949 
14926 
14896 
14861 
14855 
14845 
14823 
14804 
14806 
14820 
14826 
14774 
14773 
14777 
14779 
14767 
14768 
14788 
14808 
14762 
14777 
14823 
14812 
14775 
14766 
14783 
14779 
14760 
14785 
14803 
14799 
14777 
14763 
14784 
14806 
14809 
14768 
14777 
14807 
14809 
14781 
14786 
14807 
14817 
14794 
14802 
14813 
14816 
14794 
14786 
14815 
14825 
14813 
14785 
14809 
14816 
14790 
14783 
14808 
14820 
14822 
14815 
14810 
14826 
14797 
14790 
14824 
14836 
14830 
14792 
14807 
14832 
14833 
14832 
14847 
14851 
14858 
14825 
14792 
14844 
14847 
14807 
14795 
14833 
14851 
14832 
14801 
14827 
14847 
14827 
14809 
14857 
14881 
14873 
14831 
14837 
14879 
14893 
14884 
14897 
14951 
14959 
14916 
14872 
14884 
14898 
14892 
14881 
14878 
14890 
14887 
14874 
14862 
14858 
14831 
14810 
14825 
14837 
14818 
14794 
14792 
14849 
14851 
14815 
14798 
14827 
14838 
14836 
14835 
14848 
14862 
14885 
14898 
14944 
15035 
15097 
15005 
14960 
15099 
15151 
14996 
14833 
14832 
14871 
14853 
14866 
14878 
14877 
14880 
14875 
14892 
14887 
14863 
14854 
14882 
14889 
14890 
14853 
14898 
14933 
14925 
14902 
14913 
14929 
14924 
14906 
14917 
14946 
14955 
14951 
14931 
14957 
14957 
14947 
14956 
14979 
14988 
14986 
14973 
15019 
15081 
15058 
15025 
15085 
15122 
15135 
15119 
15127 
15162 
15176 
15205 
15244 
15275 
15291 
15274 
15286 
15319 
15331 
15297 
15277 
15285 
15256 
15194 
15170 
15192 
15155 
15107 
15036 
15033 
15040 
14995 
14945 
14962 
14977 
14945 
14920 
14924 
14935 
14927 
14896 
14902 
14924 
14914 
14910 
14883 
14913 
14942 
14923 
14914 
14936 
14956 
14913 
14892 
14917 
14937 
14919 
14925 
14942 
14951 
14953 
14917 
14932 
14953 
14967 
14970 
14952 
14969 
14994 
14984 
14972 
14990 
14990 
14966 
14958 
14987 
14994 
14985 
14948 
14969 
14992 
14979 
14958 
14974 
14968 
14967 
14969 
14952 
14953 
14971 
14948 
14931 
14973 
14974 
14929 
14925 
14939 
14946 
14950 
14946 
14960 
14965 
14930 
14908 
14926 
14951 
14931 
14909 
14947 
14957 
14945 
14921 
14925 
14931 
14925 
14904 
14918 
14955 
14955 
14945 
14961 
14997 
15027 
15023 
15015 
15060 
15075 
15041 
15021 
15032 
15050 
15043 
15022 
15029 
15040 
15009 
14973 
14969 
14970 
14960 
14940 
14942 
14955 
14953 
14928 
14932 
14953 
14983 
14970 
14943 
14965 
14968 
14961 
14945 
14951 
14962 
15011 
15023 
15051 
15120 
15175 
15152 
15118 
15169 
15272 
15203 
15014 
14956 
15001 
15014 
15004 
15032 
15034 
15012 
14979 
14974 
15001 
14999 
14978 
15003 
15014 
15011 
14965 
14994 
15012 
14994 
14969 
14982 
14998 
14998 
15001 
15006 
15015 
15018 
15016 
15030 
15036 
15057 
15051 
15039 
15060 
15083 
15088 
15078 
15115 
15136 
15139 
15135 
15170 
15183 
15186 
15169 
15191 
15242 
15269 
15268 
15288 
15318 
15320 
15324 
15337 
15363 
15389 
15378 
15348 
15329 
15344 
15306 
15243 
15239 
15219 
15175 
15124 
15114 
15104 
15084 
15035 
15026 
15024 
15015 
14990 
14992 
15019 
15000 
14951 
14951 
14985 
15002 
14977 
14974 
14990 
14984 
14960 
14932 
14957 
14985 
14971 
14930 
14956 
14984 
14985 
14958 
14982 
14991 
14969 
14962 
14955 
14972 
14982 
14963 
14948 
14978 
14987 
14960 
14936 
14965 
14985 
14960 
14949 
14973 
14990 
15002 
14955 
14955 
14975 
14966 
14946 
14941 
14935 
14915 
14897 
14912 
14941 
14929 
14907 
14901 
14916 
14908 
14876 
14872 
14892 
14889 
14868 
14863 
14880 
14874 
14886 
14857 
14845 
14853 
14869 
14857 
14862 
14868 
14868 
14837 
14840 
14881 
14875 
14849 
14865 
14908 
14926 
14904 
14865 
14881 
14895 
14899 
14889 
14890 
14895 
14880 
14839 
14842 
14841 
14829 
14793 
14806 
14830 
14838 
14817 
14797 
14817 
14797 
14781 
14773 
14790 
14784 
14771 
14767 
14808 
14811 
14787 
14778 
14854 
14898 
14944 
14990 
14974 
14895 
14928 
15005 
14997 
14840 
14753 
14771 
14792 
14824 
14823 
14809 
14790 
14811 
14813 
14798 
14780 
14816 
14820 
14803 
14811 
14849 
14840 
14835 
14811 
14848 
14870 
14863 
14829 
14826 
14859 
14877 
14849 
14842 
14858 
14860 
14835 
14857 
14913 
14929 
14911 
14887 
14891 
14914 
14918 
14923 
14959 
14972 
14978 
14978 
15009 
15029 
15051 
15042 
15070 
15106 
15105 
15098 
15123 
15147 
15161 
15145 
15121 
15132 
15119 
15091 
15047 
15027 
15011 
14973 
14933 
14914 
14888 
14859 
14817 
14806 
14818 
14796 
14760 
14758 
14760 
14779 
14755 
14736 
14747 
14743 
14758 
14738 
14744 
14766 
14751 
14732 
14757 
14779 
14771 
14744 
14763 
14786 
14740 
14717 
14771 
14782 
14759 
14752 
14772 
14770 
14761 
14747 
14762 
14782 
14793 
14772 
14782 
14817 
14797 
14774 
14761 
14799 
14792 
14789 
14776 
14789 
14803 
14779 
14762 
14778 
14803 
14800 
14758 
14770 
14807 
14808 
14777 
14778 
14791 
14794 
14783 
14786 
14796 
14805 
14785 
14765 
14787 
14794 
14787 
14766 
14778 
14789 
14797 
14779 
14791 
14813 
14817 
14792 
14788 
14809 
14804 
14776 
14765 
14791 
14809 
14777 
14758 
14799 
14825 
14805 
14778 
14783 
14775 
14771 
14758 
14772 
14802 
14794 
14773 
14795 
14810 
14819 
14798 
14796 
14823 
14826 
14829 
14851 
14876 
14865 
14839 
14833 
14846 
14859 
14851 
14845 
14839 
14835 
14809 
14773 
14777 
14777 
14766 
14754 
14760 
14761 
14762 
14747 
14755 
14768 
14751 
14743 
14744 
14773 
14782 
14754 
14750 
14770 
14783 
14818 
14835 
14880 
14971 
14971 
14894 
14901 
15000 
15062 
14923 
14763 
14773 
14800 
14749 
14780 
14830 
14835 
14809 
14788 
14792 
14797 
14796 
14793 
14816 
14837 
14810 
14808 
14831 
14836 
14834 
14821 
14814 
14816 
14845 
14825 
14843 
14874 
14865 
14849 
14862 
14886 
14879 
14880 
14888 
14910 
14927 
14917 
14922 
14960 
14974 
14966 
14962 
14997 
15004 
14993 
15032 
15064 
15085 
15112 
15096 
15125 
15164 
15175 
15168 
15207 
15237 
15230 
15217 
15200 
15199 
15185 
15140 
15104 
15077 
15050 
15013 
14970 
14958 
14956 
14932 
14869 
14861 
14885 
14848 
14820 
14839 
14846 
14839 
14813 
14830 
14849 
14838 
14803 
14809 
14826 
14816 
14789 
14797 
14821 
14840 
14817 
14798 
14834 
14832 
14815 
14784 
14816 
14835 
14823 
14812 
14809 
14833 
14834 
14802 
14804 
14817 
14812 
14807 
14800 
14833 
14836 
14817 
14829 
14833 
14827 
14803 
14786 
14817 
14863 
14834 
14800 
14805 
14813 
14842 
14831 
14835 
14845 
14827 
