11180 
11254 
11273 
11159 
11155 
11202 
11260 
11182 
11147 
11195 
11260 
11200 
11151 
11190 
11249 
11204 
11160 
11216 
11348 
11393 
11358 
11403 
11531 
11565 
11480 
11436 
11470 
11408 
11195 
11101 
11188 
11262 
11200 
11182 
11199 
11271 
11182 
11127 
11175 
11259 
11210 
11148 
11184 
11269 
11263 
11170 
11162 
11219 
11253 
11175 
11165 
11227 
11275 
11195 
11179 
11224 
11265 
11197 
11184 
11230 
11290 
11231 
11182 
11202 
11322 
11277 
11199 
11223 
11300 
11297 
11255 
11237 
11311 
11375 
11298 
11276 
11333 
11401 
11322 
11298 
11332 
11285 
11249 
11222 
11294 
11401 
11343 
11290 
11319 
11374 
11328 
11228 
11252 
11298 
11275 
11155 
11126 
11230 
11266 
11138 
11076 
11148 
11206 
11118 
11085 
11127 
11197 
11143 
11089 
11094 
11170 
11158 
11106 
11121 
11197 
11171 
11091 
11108 
11176 
11191 
11110 
11111 
11168 
11185 
11110 
11081 
11149 
11202 
11128 
11087 
11121 
11198 
11145 
11205 
11250 
11279 
11226 
11147 
11147 
11237 
11216 
11117 
11148 
11229 
11196 
11100 
11105 
11164 
11211 
11124 
11110 
11179 
11239 
11174 
11143 
11175 
11230 
11156 
11058 
11088 
11170 
11149 
11078 
11097 
11185 
11187 
11102 
11098 
11164 
11170 
11079 
11080 
11146 
11218 
11199 
11255 
11322 
11406 
11397 
11391 
11409 
11491 
11431 
11273 
11172 
11171 
11122 
11059 
11109 
11204 
11202 
11109 
11096 
11183 
11210 
11107 
11092 
11157 
11224 
11132 
11091 
11149 
11225 
11154 
11093 
11144 
11228 
11184 
11120 
11126 
11235 
11239 
11122 
11138 
11223 
11248 
11146 
11140 
11229 
11258 
11174 
11163 
11220 
11299 
11237 
11190 
11230 
11318 
11271 
11220 
11267 
11350 
11337 
11274 
11302 
11375 
11360 
11280 
11290 
11335 
11270 
11193 
11227 
11326 
11353 
11264 
11217 
11267 
11330 
11204 
11151 
11198 
11248 
11182 
11108 
11108 
11206 
11194 
11080 
11101 
11194 
11177 
11079 
11096 
11185 
11212 
11088 
11070 
11132 
11215 
11121 
11102 
11159 
11218 
11130 
11103 
11147 
11214 
11168 
11106 
11141 
11208 
11182 
11110 
11128 
11204 
11197 
11114 
11172 
11341 
11351 
11217 
11176 
11229 
11280 
11182 
11143 
11201 
11279 
11194 
11147 
11190 
11273 
11223 
11138 
11165 
11259 
11236 
11144 
11155 
11244 
11254 
11173 
11179 
11280 
11318 
11207 
11157 
11210 
11275 
11176 
11133 
11171 
11252 
11212 
11143 
11186 
11256 
11218 
11168 
11172 
11234 
11241 
11160 
11245 
11423 
11464 
11414 
11462 
11549 
11581 
11494 
11422 
11377 
11330 
11183 
11134 
11210 
11296 
11232 
11179 
11211 
11281 
11246 
11173 
11185 
11285 
11283 
11190 
11180 
11265 
11312 
11205 
11189 
11269 
11314 
11231 
11203 
11266 
11338 
11255 
11208 
11258 
11338 
11276 
11219 
11270 
11367 
11314 
11247 
11280 
11350 
11357 
11279 
11278 
11385 
11426 
11330 
11311 
11377 
11457 
11408 
11364 
11411 
11470 
11428 
11396 
11447 
11459 
11354 
11294 
11370 
11460 
11456 
11375 
11369 
11438 
11424 
11301 
11291 
11358 
11384 
11256 
11222 
11282 
11327 
11216 
11175 
11250 
11316 
11228 
11171 
11225 
11305 
11261 
11207 
11227 
11297 
11274 
11191 
11207 
11287 
11297 
11223 
11207 
11279 
11317 
11222 
11206 
11260 
11310 
11265 
11243 
11271 
11331 
11281 
11207 
11255 
11329 
11293 
11237 
11265 
11355 
11437 
11345 
11321 
11377 
11368 
11279 
11262 
11314 
11398 
11294 
11268 
11322 
11383 
11296 
11233 
11274 
11359 
11290 
11246 
11285 
11375 
11380 
11300 
11306 
11370 
11342 
11234 
11244 
11325 
11334 
11224 
11220 
11274 
11344 
11272 
11225 
11279 
11361 
11270 
11227 
11274 
11396 
11417 
11415 
11476 
11621 
11651 
11596 
11582 
11637 
11605 
11430 
11268 
11279 
11331 
11274 
11264 
11339 
11399 
11296 
11262 
11300 
11374 
11317 
11266 
11300 
11389 
11335 
11274 
11306 
11396 
11368 
11278 
11294 
11377 
11392 
11315 
11320 
11383 
11414 
11325 
11297 
11374 
11453 
11382 
11328 
11394 
11467 
11397 
11345 
11395 
11479 
11448 
11373 
11402 
11486 
11487 
11399 
11434 
11532 
11556 
11470 
11460 
11534 
11598 
11504 
11470 
11461 
11463 
11427 
11419 
11469 
11558 
11469 
11396 
11449 
11509 
11454 
11359 
11351 
11426 
11415 
11307 
11296 
11360 
11380 
11282 
11248 
11314 
11376 
11276 
11239 
11306 
11377 
11307 
11256 
11297 
11388 
11343 
11284 
11307 
11403 
11374 
11255 
11270 
11385 
11386 
11317 
11291 
11355 
11403 
11323 
11292 
11329 
11390 
11334 
11297 
11326 
11462 
11476 
11384 
11390 
11452 
11401 
11312 
11330 
11430 
11416 
11318 
11333 
11393 
11421 
11318 
11287 
11382 
11445 
11341 
11321 
11396 
11462 
11361 
11321 
11359 
11425 
11336 
11278 
11319 
11378 
11346 
11270 
11283 
11347 
11348 
11315 
11320 
11368 
11392 
11302 
11284 
11397 
11516 
11479 
11513 
11624 
11740 
11662 
11598 
11631 
11671 
11485 
11278 
11258 
11369 
11358 
11299 
11325 
11397 
11388 
11303 
11294 
11371 
11403 
11314 
11313 
11382 
11435 
11338 
11309 
11362 
11416 
11338 
11313 
11377 
11456 
11397 
11331 
11367 
11444 
11400 
11316 
11349 
11437 
11440 
11349 
11362 
11427 
11469 
11381 
11368 
11433 
11511 
11424 
11392 
11444 
11536 
11456 
11418 
11476 
11575 
11527 
11454 
11518 
11592 
11562 
11484 
11436 
11443 
11505 
11447 
11427 
11504 
11560 
11447 
11394 
11451 
11512 
11393 
11320 
11346 
11414 
11331 
11261 
11288 
11362 
11352 
11270 
11271 
11352 
11342 
11247 
11278 
11336 
11359 
11272 
11258 
11319 
11394 
11297 
11275 
11331 
11400 
11299 
11271 
11337 
11399 
11332 
11249 
11305 
11407 
11374 
11276 
11296 
11367 
11364 
11280 
11366 
11490 
11482 
11366 
11341 
11391 
11433 
11348 
11312 
11338 
11402 
11320 
11278 
11326 
11427 
11360 
11265 
11287 
11376 
11355 
11270 
11277 
11386 
11389 
11286 
11289 
11375 
11423 
11332 
11300 
11328 
11384 
11301 
11265 
11304 
11383 
11313 
11245 
11290 
11372 
11313 
11242 
11259 
11349 
11339 
11267 
11282 
11426 
11523 
11471 
11504 
11627 
11679 
11586 
11575 
11596 
11547 
11327 
11222 
11257 
11350 
11318 
11275 
11321 
11391 
11341 
11253 
11263 
11357 
11337 
11247 
11264 
11348 
11373 
11265 
11263 
11328 
11384 
11319 
11285 
11335 
11399 
11313 
11280 
11331 
11417 
11356 
11281 
11299 
11399 
11373 
11306 
11341 
11411 
11426 
11332 
11339 
11419 
11453 
11368 
11352 
11439 
11500 
11401 
11374 
11458 
11527 
11458 
11417 
11451 
11556 
11524 
11347 
11338 
11451 
11456 
11395 
11389 
11467 
11468 
11362 
11349 
11402 
11411 
11301 
11269 
11315 
11352 
11269 
11237 
11261 
11326 
11261 
11200 
11230 
11310 
11279 
11198 
11220 
11304 
11298 
11188 
11212 
11298 
11300 
11232 
11230 
11283 
11323 
11229 
11198 
11264 
11333 
11244 
11201 
11247 
11352 
11263 
11202 
11223 
11302 
11275 
11300 
11356 
11393 
11355 
11268 
11245 
11316 
11330 
11245 
11250 
11308 
11344 
11246 
11223 
11283 
11332 
11260 
11223 
11245 
11311 
11254 
11207 
11245 
11328 
11298 
11230 
11259 
11350 
11332 
11219 
11209 
11251 
11282 
11191 
11148 
11224 
11298 
11232 
11191 
11227 
11288 
11204 
11162 
11218 
11283 
11230 
11185 
11276 
11440 
11469 
11429 
11491 
11618 
11637 
11546 
11489 
11447 
11345 
11159 
11150 
11244 
11309 
11213 
11190 
11227 
11286 
11230 
11176 
11209 
11303 
11248 
11183 
11207 
11294 
11258 
11177 
11199 
11281 
11298 
11174 
11196 
11272 
11326 
11232 
11186 
11255 
11323 
11237 
11217 
11259 
11332 
11267 
11219 
11257 
11337 
11311 
11231 
11248 
11340 
11357 
11275 
11276 
11349 
11394 
11318 
11322 
11401 
11444 
11359 
11331 
11408 
11463 
11285 
11209 
11295 
11388 
11375 
11330 
11329 
11379 
11328 
11238 
11237 
11290 
11288 
11181 
11162 
11228 
11253 
11133 
11120 
11194 
11238 
11141 
11107 
11169 
11222 
11145 
11112 
11158 
11229 
11166 
11097 
11147 
11226 
11182 
11093 
11146 
11234 
11221 
11135 
11130 
11192 
11219 
11127 
11121 
11179 
11228 
11148 
11114 
11156 
11239 
11164 
11194 
11291 
11324 
11254 
11156 
11162 
11274 
11265 
11175 
11157 
11237 
11242 
11138 
11107 
11195 
11260 
11164 
11145 
11175 
11233 
11184 
11162 
11185 
11246 
11174 
11104 
11136 
11205 
11157 
11088 
11100 
11183 
11159 
11075 
11081 
11156 
11181 
11089 
11071 
11144 
11195 
11138 
11190 
11316 
11409 
11370 
11388 
11471 
11519 
11431 
11355 
11261 
11205 
11089 
11013 
11073 
11178 
11185 
11090 
11084 
11164 
11173 
11068 
11076 
11152 
11215 
11120 
11075 
11123 
11199 
11119 
11085 
11134 
11216 
11162 
11090 
11124 
11206 
11179 
11104 
11113 
11196 
11195 
11101 
11091 
11169 
11234 
11151 
11123 
11183 
11257 
11148 
11126 
11187 
11287 
11215 
11169 
11214 
11306 
11276 
11199 
11229 
11326 
11320 
11225 
11253 
11351 
11331 
11124 
11125 
11249 
11294 
11207 
11175 
11216 
11272 
11172 
11104 
11132 
11176 
11099 
11049 
11073 
11158 
11091 
10993 
11025 
11118 
11096 
10986 
11008 
11093 
11089 
10990 
11001 
11074 
11117 
11004 
10958 
11048 
11132 
11044 
11002 
11032 
11130 
11064 
10999 
11044 
11131 
11089 
11001 
11031 
11106 
11106 
11026 
11009 
11100 
11234 
11152 
11091 
11135 
11182 
11076 
11048 
11091 
11146 
11055 
10999 
11048 
11147 
11072 
11010 
11041 
11116 
11106 
11006 
11026 
11101 
11104 
11006 
11005 
11069 
11099 
10999 
11013 
11111 
11165 
11063 
11016 
11048 
11108 
11022 
10966 
10999 
11077 
11031 
10953 
10954 
11044 
11055 
10967 
10982 
11061 
11061 
10981 
10987 
11124 
11242 
11171 
11201 
11304 
11407 
11314 
11281 
11295 
11267 
11061 
10942 
10958 
11056 
11034 
10974 
10983 
11069 
11040 
10954 
10990 
11044 
11046 
10969 
10956 
11033 
11061 
10984 
10952 
11015 
11088 
11007 
10979 
11017 
11073 
11011 
10974 
10992 
11074 
11053 
10979 
10998 
11079 
11071 
11006 
10996 
11053 
11078 
10995 
11024 
11079 
11114 
11038 
11030 
11108 
11182 
11112 
11071 
11086 
11176 
11144 
11081 
11020 
11089 
11110 
11071 
11080 
11150 
11152 
11066 
11075 
11146 
11143 
11042 
11016 
11041 
11084 
10988 
10953 
10976 
11009 
10929 
10882 
10917 
10976 
10940 
10894 
10905 
10972 
10938 
10865 
10896 
10964 
10962 
10871 
10885 
10943 
10970 
10890 
10878 
10946 
11001 
10903 
10855 
10912 
10986 
10918 
10880 
10917 
10983 
10942 
10875 
10903 
10983 
10947 
10872 
10948 
11090 
11064 
10968 
10927 
10970 
11016 
10935 
10897 
10954 
11012 
10926 
10892 
10923 
10984 
10948 
10894 
10905 
10982 
10941 
10857 
10880 
10984 
10955 
10871 
10886 
10971 
10989 
10926 
10907 
10948 
10974 
10899 
10847 
10893 
10968 
10892 
10844 
10882 
10949 
10897 
10834 
10877 
10964 
10902 
10846 
10872 
10997 
11101 
11054 
11092 
11206 
11267 
11180 
11151 
11203 
11189 
10956 
10847 
10864 
10947 
10902 
10858 
10899 
10977 
10908 
10827 
10886 
10978 
10955 
10864 
10881 
10960 
10941 
10865 
10879 
10934 
10962 
10881 
10883 
10926 
10990 
10915 
10892 
10913 
10984 
10943 
10885 
10906 
10997 
10966 
10898 
10900 
11011 
11002 
10880 
10889 
10998 
11033 
10957 
10929 
11014 
11081 
10984 
10951 
11006 
11126 
11062 
10997 
11042 
11147 
11010 
10856 
10942 
11089 
11074 
10993 
10972 
11047 
11057 
10957 
10925 
11010 
11029 
10893 
10835 
10923 
10973 
10851 
10807 
10862 
10937 
10849 
10793 
10835 
10943 
10873 
10790 
10821 
10927 
10904 
10799 
10805 
10918 
10932 
10809 
10793 
10881 
10943 
10842 
10806 
10889 
10943 
10828 
10795 
10878 
10958 
10887 
10815 
10833 
10956 
10949 
10943 
10926 
10999 
10974 
10878 
10835 
10941 
10956 
10844 
10831 
10934 
10980 
10860 
10825 
10911 
10965 
10872 
10818 
10855 
10940 
10879 
10825 
10854 
10949 
10908 
10850 
10873 
10938 
10915 
10835 
10814 
10879 
10911 
10814 
10804 
10874 
10921 
10823 
10793 
10850 
10924 
10842 
10786 
10839 
10954 
10954 
10972 
11036 
11170 
11187 
11162 
11156 
11223 
11201 
10997 
10861 
10850 
10871 
10796 
10802 
10885 
10934 
10835 
10772 
10854 
10965 
10864 
10832 
10853 
10939 
10894 
10819 
10846 
10946 
10899 
10812 
10829 
10926 
10928 
10846 
10853 
10933 
10955 
10862 
10847 
10913 
10978 
10875 
10851 
10910 
10995 
10920 
10873 
10897 
11025 
10951 
10884 
10940 
11034 
11018 
10947 
10964 
11052 
11060 
10987 
10986 
11066 
11115 
11027 
11015 
11074 
11077 
10918 
10918 
10989 
11054 
10995 
10931 
10949 
11020 
10956 
10868 
10871 
10943 
10895 
10808 
10811 
10876 
10882 
10783 
10779 
10850 
10883 
10797 
10756 
10815 
10901 
10839 
10797 
10810 
10884 
10824 
10780 
10801 
10898 
10847 
10797 
10824 
10892 
10856 
10794 
10818 
10898 
10897 
10823 
10826 
10878 
10887 
10815 
10828 
10911 
11043 
10927 
10886 
10904 
10952 
10888 
10859 
10878 
10939 
10884 
10844 
10858 
10921 
10895 
10825 
10870 
10929 
10948 
10887 
10846 
10886 
10916 
10817 
10787 
10844 
10897 
10830 
10826 
10838 
10883 
10829 
10799 
10822 
10877 
10859 
10817 
10837 
10949 
11023 
11002 
11055 
11184 
11236 
11132 
11124 
11146 
11065 
10843 
10742 
10796 
10887 
10842 
10808 
10852 
10932 
10867 
10814 
10829 
10894 
10862 
10796 
10807 
10900 
10899 
10835 
10835 
10882 
10908 
10818 
10831 
10894 
10926 
10854 
10846 
10874 
10935 
10877 
10843 
10867 
10930 
10898 
10855 
10888 
10966 
10932 
10888 
10905 
10973 
10987 
10896 
10915 
11011 
11052 
10966 
10946 
11015 
11070 
11000 
10972 
11021 
11097 
11034 
11003 
10938 
10968 
10963 
10933 
10961 
11024 
10985 
10904 
10893 
10927 
10929 
10816 
10807 
10866 
10882 
10787 
10765 
10817 
10846 
10768 
10760 
10793 
10843 
10774 
10760 
10783 
10850 
10830 
10778 
10776 
10823 
10827 
10779 
10784 
10840 
10829 
10755 
10755 
10822 
10867 
10788 
10773 
10813 
10860 
10792 
10778 
10805 
10862 
10839 
10912 
10920 
10949 
10883 
10826 
10832 
10882 
10853 
10773 
10779 
10848 
10879 
10790 
10776 
10824 
10867 
10800 
10789 
10834 
10869 
10795 
10774 
10798 
10873 
10848 
10816 
10844 
10899 
10827 
10740 
10749 
10822 
10811 
10739 
10751 
10801 
10827 
10743 
10723 
10796 
10837 
10757 
10752 
10787 
10857 
10836 
10883 
10970 
11075 
11067 
11044 
11093 
11133 
11101 
10980 
10844 
10809 
10792 
10736 
10749 
10812 
10836 
10759 
10776 
10818 
10851 
10770 
10744 
10786 
10836 
10780 
10755 
10795 
10844 
10789 
10745 
10768 
10849 
10843 
10794 
10791 
10863 
10854 
10767 
10790 
10844 
10866 
10785 
10787 
10843 
10894 
10798 
10769 
10824 
10894 
10830 
10809 
10840 
10915 
10890 
10868 
10891 
10966 
10936 
10890 
10907 
10959 
10986 
10875 
10781 
10867 
10940 
10886 
10881 
10917 
10976 
10872 
10845 
10879 
10914 
10837 
10788 
10766 
10827 
10772 
10706 
10735 
10780 
10753 
10688 
10702 
10737 
10742 
10679 
10685 
10726 
10753 
10670 
10657 
10702 
10756 
10680 
10656 
10684 
10758 
10707 
10664 
10690 
10763 
10743 
10670 
10677 
10756 
10752 
10679 
10700 
10773 
10759 
10670 
10715 
10884 
10883 
10774 
10752 
10777 
10807 
10732 
10711 
10739 
10803 
10742 
10694 
10715 
10778 
10749 
10690 
10704 
10774 
10778 
10703 
10683 
10736 
10755 
10698 
10711 
10744 
10799 
10699 
10674 
10738 
10801 
10753 
10702 
10709 
10752 
10709 
10676 
10686 
10725 
10711 
10642 
10667 
10727 
10720 
10651 
10643 
10693 
10719 
10659 
10653 
10712 
10851 
10846 
10856 
10944 
11042 
10983 
10946 
10991 
11021 
10837 
10680 
10644 
10698 
10696 
10649 
10667 
10741 
10732 
10647 
10656 
10702 
10707 
10650 
10659 
10697 
10746 
10672 
10662 
10694 
10759 
10706 
10662 
10692 
10760 
10711 
10652 
10673 
10755 
10735 
10664 
10682 
10747 
10767 
10694 
10700 
10747 
10772 
10733 
10737 
10764 
10807 
10745 
10728 
10775 
10849 
10810 
10774 
10809 
10869 
10841 
10786 
10816 
10887 
10767 
10701 
10740 
10831 
10858 
10785 
10787 
10830 
10864 
10764 
10741 
10748 
10789 
10705 
10665 
10677 
10726 
10638 
10588 
10630 
10672 
10628 
10592 
10612 
10667 
10663 
10585 
10595 
10647 
10681 
10605 
10589 
10622 
10678 
10604 
10578 
10620 
10672 
10619 
10601 
10609 
10663 
10616 
10590 
10610 
10668 
10648 
10584 
10599 
10655 
10648 
10680 
10732 
10751 
10770 
10642 
10630 
10672 
10694 
10627 
10609 
10641 
10707 
10633 
10579 
10594 
10658 
10624 
10598 
10611 
10674 
10648 
10568 
10591 
10654 
10652 
10581 
10574 
10637 
10668 
10596 
10575 
10606 
10645 
10566 
10574 
10629 
10687 
10628 
10579 
10596 
10686 
10671 
10614 
10616 
10670 
10633 
10537 
10549 
10610 
10637 
10566 
10552 
10584 
10620 
10550 
10549 
10601 
10648 
10572 
10537 
10592 
10672 
10696 
10742 
10788 
10914 
10921 
10851 
10853 
10906 
10852 
10668 
10566 
10573 
10585 
10551 
10550 
10617 
10659 
10555 
10543 
10582 
10648 
10573 
10539 
10582 
10645 
10584 
10548 
10565 
10643 
10628 
10561 
10570 
10648 
10641 
10575 
10568 
10634 
10646 
10574 
10581 
10635 
10681 
10610 
10586 
10638 
10692 
10619 
10592 
10647 
10719 
10656 
10616 
10652 
10739 
10719 
10666 
10694 
10753 
10751 
10681 
10688 
10644 
10652 
10638 
10651 
10724 
10779 
10713 
10695 
10737 
10787 
10716 
10670 
10672 
10716 
10645 
10580 
10593 
10637 
10592 
10512 
10515 
10581 
10562 
10490 
10493 
10558 
10566 
10487 
10495 
10553 
10596 
10490 
10473 
10541 
10606 
10526 
10473 
10514 
10578 
10529 
10486 
10488 
10569 
10554 
10488 
10510 
10555 
10557 
10475 
10506 
10573 
10598 
10498 
10496 
10644 
10720 
10624 
10573 
10584 
10630 
10565 
10517 
10528 
10605 
10563 
10494 
10504 
10586 
10575 
10497 
10499 
10540 
10568 
10500 
10491 
10540 
10585 
10504 
10493 
10539 
10576 
10495 
10484 
10525 
10582 
10510 
10469 
10499 
10561 
10518 
10480 
10490 
10573 
10591 
10500 
10499 
10584 
10598 
10517 
10507 
10550 
10565 
10476 
10461 
10508 
10545 
10463 
10441 
10493 
10563 
10513 
10447 
10477 
10556 
10530 
10463 
10500 
10644 
10710 
10683 
10754 
10874 
10882 
10768 
10757 
10778 
10709 
10488 
10409 
10460 
10556 
10505 
10481 
10505 
10554 
10506 
10467 
10502 
10552 
10518 
10456 
10474 
10554 
10530 
10471 
10487 
10550 
10567 
10485 
10495 
10556 
10605 
10500 
10479 
10531 
10587 
10515 
10518 
10556 
10604 
10554 
10518 
10555 
10613 
10578 
10525 
10555 
10619 
10616 
10554 
10558 
10619 
10670 
10601 
10615 
10673 
10716 
10645 
10649 
10682 
10683 
10553 
10564 
10631 
10692 
10645 
10600 
10650 
10704 
10669 
10589 
10577 
10610 
10601 
10504 
10500 
10526 
10534 
10468 
10455 
10480 
10518 
10455 
10426 
10472 
10526 
10453 
10426 
10440 
10510 
10477 
10442 
10449 
10507 
10504 
10441 
10444 
10510 
10519 
10442 
10456 
10503 
10528 
10457 
10453 
10489 
10546 
10477 
10462 
10504 
10547 
10508 
10573 
10577 
10604 
10569 
10497 
10480 
10545 
10522 
10453 
10456 
10524 
10524 
10443 
10455 
10512 
10538 
10445 
10419 
10470 
10552 
10482 
10444 
10471 
10523 
10462 
10458 
10516 
10567 
10531 
10467 
10465 
10526 
10512 
10448 
10469 
10508 
10497 
10402 
10393 
10424 
10490 
10405 
10397 
10450 
10492 
10404 
10383 
10432 
10488 
10421 
10356 
10386 
10467 
10477 
10498 
10580 
10665 
10702 
10718 
10759 
10762 
10754 
10618 
10500 
10421 
10406 
10350 
10377 
10443 
10505 
10422 
10389 
10412 
10473 
10453 
10373 
10408 
10480 
10447 
10394 
10414 
10479 
10466 
10396 
10416 
10471 
10505 
10418 
10422 
10458 
10500 
10433 
10423 
10460 
10523 
10463 
10442 
10464 
10502 
10464 
10438 
10469 
10529 
10500 
10464 
10494 
10542 
10551 
10494 
10525 
10573 
10618 
10538 
10541 
10602 
10674 
10609 
10576 
10534 
10552 
10528 
10528 
10557 
10621 
10575 
10524 
10529 
10593 
10544 
10430 
10435 
10484 
10467 
10374 
10356 
10410 
10434 
10343 
10334 
10357 
10398 
10339 
10342 
10362 
10399 
10348 
10315 
10336 
10405 
10364 
10323 
10345 
10411 
10378 
10316 
10334 
10401 
10392 
10331 
10358 
10401 
10406 
10335 
10349 
10381 
10426 
10346 
10330 
10376 
10442 
10459 
10460 
10443 
10472 
10420 
10369 
10386 
10434 
10421 
10354 
10357 
10403 
10403 
10338 
10340 
10377 
10408 
10338 
10332 
10381 
10430 
10355 
10326 
10357 
10438 
10365 
10306 
10338 
10398 
10377 
10328 
10322 
10393 
10394 
10343 
10365 
10428 
10426 
10338 
10325 
10349 
10392 
10312 
10299 
10333 
10370 
10301 
10275 
10320 
10385 
10331 
10288 
10306 
10347 
10333 
10342 
10420 
10550 
10568 
10542 
10614 
10687 
10682 
10599 
10567 
10521 
10413 
10273 
10264 
10332 
10381 
10317 
10298 
10331 
10398 
10347 
10296 
10321 
10385 
10363 
10309 
10322 
10370 
10374 
10298 
10310 
10399 
10408 
10313 
10299 
10376 
10420 
10336 
10306 
10352 
10429 
10346 
10321 
10368 
10440 
10364 
10335 
10370 
10421 
10396 
10353 
10386 
10474 
10461 
10382 
10426 
10477 
10499 
10433 
10435 
10487 
10543 
10480 
10477 
10446 
10413 
10390 
10413 
10450 
10540 
10505 
10440 
10465 
10526 
10466 
10391 
10392 
10407 
10400 
10324 
10311 
10341 
10356 
10262 
10261 
10304 
10340 
10260 
10239 
10269 
10344 
10266 
10234 
10262 
10331 
10294 
10240 
10261 
10329 
10305 
10242 
10258 
10324 
10339 
10249 
10261 
10299 
10329 
10252 
10258 
10298 
10344 
10299 
10286 
10278 
10352 
10439 
10383 
10380 
10413 
10363 
10310 
10321 
10370 
10344 
10277 
10277 
10344 
10349 
10263 
10272 
10315 
10348 
10268 
10264 
10309 
10373 
10290 
10236 
10280 
10355 
10287 
10248 
10279 
10349 
10314 
10261 
10280 
10328 
10344 
10292 
10287 
10334 
10337 
10264 
10249 
10291 
10324 
10239 
10219 
10269 
10327 
10243 
10219 
10254 
10316 
10272 
10224 
10229 
10296 
10330 
10366 
10440 
10546 
10586 
10556 
10566 
10621 
10616 
10486 
10351 
10281 
10289 
10236 
10247 
10268 
10331 
10267 
10223 
10276 
10340 
10283 
10221 
10261 
10334 
10316 
10258 
10260 
10320 
10315 
10242 
10245 
10310 
10332 
10255 
10278 
10315 
10364 
10274 
10254 
10307 
10373 
10313 
10284 
10319 
10389 
10336 
10292 
10315 
10378 
10355 
10311 
10344 
10419 
10423 
10348 
10371 
10450 
10469 
10373 
10375 
10436 
10500 
10443 
10409 
10353 
10376 
10395 
10396 
10429 
10486 
10424 
10368 
10374 
10436 
10393 
10297 
10294 
10333 
10327 
10232 
10220 
10260 
10299 
10213 
10212 
10239 
10280 
10194 
10188 
10238 
10310 
10223 
10184 
10206 
10264 
10255 
10212 
10219 
10304 
10283 
10199 
10194 
10252 
10270 
10191 
10199 
10241 
10298 
10246 
10222 
10256 
10302 
10219 
10206 
10249 
10370 
10396 
10310 
10307 
10359 
10303 
10231 
10268 
10321 
10275 
10225 
10236 
10277 
10296 
10234 
10224 
10271 
10307 
10236 
10221 
10247 
10296 
10231 
10229 
10280 
10337 
10290 
10253 
10255 
10312 
10266 
10184 
10204 
10254 
10256 
10182 
10180 
10242 
10283 
10205 
10206 
10240 
10271 
10205 
10198 
10242 
10365 
10376 
10383 
10472 
10593 
10574 
10489 
10522 
10571 
10420 
10216 
10153 
10210 
10227 
10197 
10204 
10262 
10296 
10201 
10193 
10255 
10305 
10212 
10202 
10221 
10288 
10243 
10217 
10240 
10293 
10251 
10215 
10239 
10284 
10265 
10213 
10225 
10284 
10298 
10240 
10242 
10303 
10332 
10251 
10251 
10307 
10364 
10273 
10273 
10307 
10369 
10332 
10301 
10332 
10416 
10392 
10335 
10345 
10428 
10434 
10378 
10388 
10464 
10460 
10390 
10371 
10309 
10362 
10327 
10351 
10399 
10423 
10328 
10303 
10314 
10373 
10296 
10243 
10241 
10281 
10230 
10167 
10189 
10243 
10230 
10154 
10134 
10196 
10213 
10135 
10144 
10198 
10235 
10154 
10139 
10163 
10220 
10164 
10133 
10210 
10265 
10206 
10138 
10166 
10246 
10217 
10157 
10169 
10224 
10214 
10134 
10153 
10210 
10212 
10165 
10286 
10340 
10339 
10219 
10170 
10218 
10289 
10211 
10178 
10200 
10243 
10189 
10164 
10154 
10209 
10226 
10163 
10179 
10227 
10232 
10148 
10125 
10186 
10210 
10128 
10122 
10178 
10220 
10158 
10167 
10196 
10236 
10142 
10110 
10132 
10188 
10141 
10091 
10106 
10196 
10152 
10088 
10117 
10187 
10174 
10114 
10101 
10155 
10239 
10264 
10336 
10401 
10498 
10480 
10433 
10457 
10490 
10352 
10173 
10093 
10165 
10167 
10121 
10146 
10202 
10186 
10110 
10148 
10203 
10192 
10129 
10139 
10197 
10209 
10124 
10115 
10173 
10237 
10148 
10125 
10162 
10225 
10162 
10139 
10173 
10218 
10194 
10137 
10157 
10217 
10214 
10154 
10163 
10237 
10264 
10198 
10158 
10206 
10270 
10212 
10210 
10247 
10316 
10236 
10209 
10256 
10339 
10293 
10270 
10292 
10363 
10314 
10161 
10179 
10283 
10280 
10224 
10243 
10295 
10305 
10225 
10218 
10232 
10232 
10139 
10115 
10160 
10191 
10092 
10046 
10079 
10136 
10088 
10042 
10059 
10117 
10093 
10031 
10043 
10109 
10100 
10024 
10046 
10099 
10124 
10061 
10038 
10093 
10138 
10050 
10025 
10066 
10125 
10076 
10028 
10077 
10164 
10098 
10054 
10068 
10138 
10091 
10144 
10194 
10215 
10171 
10098 
10121 
10160 
10170 
10071 
10056 
10094 
10127 
10066 
10061 
10094 
10161 
10069 
10045 
10084 
10125 
10075 
10026 
10046 
10142 
10116 
10052 
10082 
10156 
10144 
10054 
10068 
10095 
10089 
10009 
10018 
10074 
10106 
10019 
10013 
10055 
10119 
10044 
9996 
10041 
10113 
10051 
10016 
10111 
10273 
10277 
10242 
10315 
10408 
10398 
10305 
10284 
10228 
10135 
9998 
9963 
10045 
10121 
10054 
10024 
10056 
10120 
10060 
10024 
10065 
10129 
10070 
10003 
10017 
10105 
10099 
10029 
10040 
10115 
10121 
10039 
10030 
10087 
10130 
10061 
10029 
10050 
10113 
10056 
10050 
10104 
10156 
10088 
10057 
10095 
10160 
10120 
10065 
10092 
10186 
10165 
10098 
10131 
10191 
10207 
10129 
10136 
10223 
10273 
10190 
10177 
10227 
10188 
10070 
10091 
10154 
10224 
10172 
10124 
10148 
10202 
10152 
10083 
10090 
10146 
10105 
9992 
9984 
10044 
10056 
9966 
9955 
10008 
10055 
9982 
9938 
9991 
10055 
9983 
9936 
9963 
10029 
10009 
9974 
9981 
10065 
10033 
9938 
9958 
10027 
10032 
9954 
9970 
10020 
10037 
9955 
9957 
10030 
10058 
9963 
9941 
9997 
10192 
10109 
10028 
10055 
10114 
10038 
9974 
10021 
10094 
10036 
9961 
9979 
10047 
10045 
9981 
9980 
10028 
10057 
9973 
9957 
10002 
10045 
9968 
9978 
10010 
10097 
10032 
9990 
10026 
10075 
10002 
9922 
9949 
10030 
10007 
9926 
9928 
10012 
10009 
9922 
9915 
9994 
10034 
9929 
9916 
9978 
10060 
10052 
10091 
10173 
10289 
10278 
10243 
10240 
10306 
10245 
10063 
9971 
9987 
9986 
9921 
9959 
10028 
10027 
9922 
9932 
10010 
10039 
9946 
9926 
9982 
10051 
9983 
9952 
9981 
10055 
9998 
9942 
9983 
10052 
10025 
9968 
9981 
10070 
10050 
9968 
9962 
10043 
10076 
9990 
10004 
10067 
10090 
10009 
10002 
10054 
10121 
10050 
10025 
10065 
10143 
10097 
10045 
10083 
10169 
10132 
10088 
10121 
10184 
10177 
10070 
9967 
10083 
10117 
10075 
10066 
10124 
10172 
10072 
10040 
10066 
10093 
10007 
9957 
9987 
10044 
9980 
9903 
9916 
9990 
9960 
9892 
9893 
9959 
9948 
9891 
9887 
9941 
9956 
9869 
9881 
9947 
9978 
9883 
9864 
9919 
9992 
9915 
9873 
9910 
9985 
9932 
9874 
9916 
9987 
9939 
9882 
9897 
9970 
9953 
9885 
9913 
10091 
10093 
10014 
9969 
10015 
10046 
9944 
9936 
9967 
10024 
9951 
9908 
9931 
10015 
9964 
9886 
9917 
10020 
9970 
9916 
9948 
10007 
9995 
9910 
9893 
9930 
9974 
9888 
9866 
9900 
9965 
9885 
9858 
9912 
9975 
9908 
9861 
9891 
9959 
9934 
9926 
10055 
10168 
10174 
10146 
10200 
10239 
10229 
10169 
10090 
10011 
9921 
9811 
9842 
9926 
9982 
9905 
9874 
9910 
9974 
9901 
9834 
9902 
9998 
9959 
9885 
9879 
9957 
9975 
9887 
9885 
9951 
9972 
9902 
9902 
9947 
9982 
9910 
9897 
9950 
9999 
9928 
9898 
9933 
10005 
9958 
9925 
9955 
10025 
9991 
9942 
9948 
10035 
10031 
9975 
9987 
10058 
10083 
10012 
10027 
10083 
10136 
10060 
10039 
10090 
10145 
9979 
9909 
9986 
10089 
10024 
9935 
9977 
10050 
9984 
9887 
9888 
9960 
9925 
9839 
9860 
9891 
9910 
9833 
9810 
9861 
9899 
9796 
9779 
9851 
9904 
9825 
9793 
9837 
9915 
9843 
9770 
9811 
9900 
9856 
9795 
9807 
9864 
9868 
9810 
9811 
9868 
9898 
9831 
9817 
9859 
9912 
9834 
9795 
9849 
9975 
10009 
9922 
9904 
9958 
9909 
9850 
9856 
9931 
9911 
9823 
9842 
9899 
9892 
9828 
9845 
9886 
9909 
9840 
9840 
9894 
9940 
9860 
9827 
9841 
9883 
9804 
9748 
9807 
9885 
9815 
9758 
9785 
9873 
9844 
9751 
9770 
9821 
9859 
9811 
9865 
10002 
10075 
10001 
10055 
10135 
10153 
10074 
10031 
9983 
9938 
9785 
9723 
9792 
9887 
9830 
9773 
9794 
9872 
9854 
9767 
9784 
9847 
9858 
9792 
9801 
9854 
9890 
9791 
9761 
9831 
9884 
9811 
9778 
9813 
9898 
9847 
9780 
9812 
9894 
9875 
9807 
9834 
9893 
9882 
9801 
9818 
9890 
9927 
9850 
9837 
9898 
9924 
9860 
9880 
9936 
9993 
9916 
9906 
9943 
10027 
9984 
9947 
9978 
10053 
10031 
9978 
9997 
10064 
10025 
9812 
9814 
9895 
9912 
9818 
9817 
9859 
9880 
9771 
9748 
9776 
9826 
9757 
9723 
9756 
9824 
9769 
9702 
9731 
9794 
9771 
9702 
9732 
9797 
9787 
9705 
9709 
9810 
9828 
9718 
9700 
9769 
9836 
9745 
9700 
9759 
9834 
9775 
9723 
9746 
9819 
9772 
9714 
9735 
9828 
9829 
9855 
9835 
9888 
9851 
9752 
9752 
9816 
9854 
9752 
9736 
9798 
9844 
9740 
9725 
9764 
9827 
9747 
9698 
9745 
9814 
9740 
9690 
9768 
9856 
9822 
9732 
9737 
9805 
9788 
9701 
9672 
9734 
9772 
9702 
9683 
9744 
9799 
9705 
9659 
9715 
9787 
9709 
9662 
9716 
9872 
9901 
9864 
9931 
10074 
10077 
9994 
10003 
10054 
9957 
9734 
9677 
9741 
9800 
9714 
9690 
9720 
9788 
9700 
9665 
9719 
9776 
9719 
9653 
9709 
9794 
9743 
9674 
9705 
9793 
9787 
9684 
9686 
9764 
9788 
9705 
9708 
9768 
9825 
9719 
9687 
9744 
9816 
9736 
9694 
9767 
9834 
9797 
9723 
9772 
9872 
9831 
9729 
9762 
9897 
9896 
9810 
9823 
9920 
9939 
9838 
9832 
9908 
9968 
9892 
9856 
9899 
9976 
9900 
9848 
9875 
9946 
9775 
9629 
9675 
9761 
9738 
9638 
9645 
9719 
9699 
9612 
9603 
9682 
9711 
9589 
9603 
9679 
9745 
9639 
9556 
9631 
9708 
9634 
9598 
9623 
9716 
9659 
9589 
9628 
9712 
9675 
9591 
9611 
9695 
9704 
9606 
9605 
9686 
9714 
9624 
9608 
9668 
9705 
9630 
9581 
9625 
9722 
9667 
9586 
9624 
9743 
9693 
9624 
9745 
9838 
9777 
9667 
9673 
9726 
9728 
9654 
9642 
9700 
9736 
9641 
9623 
9683 
9748 
9625 
9572 
9634 
9728 
9659 
9617 
9661 
9747 
9714 
9642 
9660 
9723 
9692 
9601 
9607 
9674 
9693 
9588 
9563 
9651 
9721 
9610 
9586 
9639 
9709 
9612 
9565 
9628 
9727 
9740 
9760 
9826 
9938 
9961 
9900 
9910 
9981 
9920 
9717 
9585 
9601 
9635 
9588 
9589 
9637 
9711 
9635 
9594 
9646 
9699 
9615 
9574 
9616 
9710 
9645 
9584 
9623 
9700 
9654 
9588 
9596 
9676 
9680 
9593 
9590 
9683 
9720 
9629 
9608 
9673 
9726 
9641 
9606 
9669 
9731 
9661 
9595 
9536 
9623 
9608 
9567 
9610 
9712 
9710 
9638 
9667 
9748 
9783 
9698 
9692 
9793 
9833 
9742 
9738 
9812 
9856 
9770 
9737 
9800 
9854 
9753 
9674 
9708 
9789 
9715 
9628 
9630 
9702 
9661 
9539 
9544 
9646 
9634 
9513 
9522 
9610 
9650 
9550 
9535 
9582 
9631 
9529 
9520 
9576 
9645 
9572 
9509 
9554 
9650 
9600 
9533 
9547 
9633 
9606 
9520 
9541 
9627 
9627 
9525 
9523 
9592 
9623 
9553 
9534 
9593 
9657 
9555 
9511 
9557 
9617 
9559 
9512 
9544 
9633 
9588 
9510 
9518 
9595 
9576 
9509 
9522 
9591 
9596 
9497 
9490 
9559 
9617 
9538 
9506 
9604 
9782 
9673 
9603 
9648 
9701 
9601 
9514 
9560 
9635 
9557 
9480 
9508 
9588 
9561 
9477 
9475 
9570 
9585 
9483 
9474 
9550 
9599 
9532 
9569 
9710 
9826 
9783 
9776 
9841 
9890 
9819 
9728 
9653 
9589 
9474 
9422 
9480 
9583 
9578 
9490 
9482 
9559 
9587 
9478 
9472 
9548 
9579 
9492 
9483 
9530 
9604 
9520 
9486 
9538 
9620 
9566 
9489 
9515 
9599 
9575 
9505 
9520 
9607 
9599 
9506 
9504 
9606 
9628 
9530 
9538 
9611 
9660 
9566 
9538 
9599 
9684 
9616 
9575 
9634 
9714 
9662 
9622 
9661 
9749 
9712 
9642 
9663 
9767 
9770 
9667 
9666 
9737 
9779 
9668 
9641 
9686 
9712 
9601 
9554 
9577 
9638 
9553 
9479 
9498 
9558 
9496 
9443 
9475 
9543 
9504 
9414 
9437 
9518 
9530 
9415 
9416 
9499 
9540 
9429 
9417 
9478 
9516 
9442 
9424 
9473 
9556 
9475 
9409 
9449 
9527 
9482 
9418 
9438 
9519 
9511 
9432 
9452 
9524 
9523 
9434 
9422 
9482 
9530 
9436 
9413 
9467 
9541 
9455 
9404 
9449 
9540 
9478 
9415 
9443 
9529 
9479 
9410 
9430 
9507 
9482 
9387 
9404 
9478 
9498 
9405 
9408 
9482 
9529 
9435 
9410 
9484 
9549 
9449 
9395 
9419 
9495 
9428 
9355 
9395 
9484 
9431 
9346 
9350 
9457 
9451 
9352 
9383 
9450 
9458 
9400 
9472 
9603 
9689 
9614 
9650 
9737 
9789 
9679 
9588 
9541 
9497 
9371 
9327 
9383 
9468 
9442 
9356 
9380 
9464 
9454 
9359 
9356 
9433 
9457 
9363 
9361 
9427 
9469 
9403 
9376 
9402 
9495 
9422 
9367 
9414 
9475 
9434 
9377 
9409 
9500 
9470 
9369 
9390 
9489 
9486 
9392 
9393 
9461 
9510 
9463 
9452 
9504 
9542 
9467 
9452 
9523 
9588 
9512 
9457 
9507 
9627 
9592 
9524 
9541 
9627 
9617 
9529 
9547 
9640 
9638 
9543 
9512 
9568 
9593 
9470 
9421 
9463 
9513 
9407 
9351 
9387 
9450 
9375 
9306 
9332 
9413 
9383 
9299 
9313 
9414 
9380 
9305 
9313 
9392 
9398 
9301 
9300 
9383 
9408 
9301 
9291 
9350 
9408 
9334 
9290 
9332 
9415 
9342 
9282 
9299 
9406 
9372 
9271 
9301 
9386 
9376 
9276 
9280 
9380 
9402 
9290 
9150 
9207 
9300 
9222 
9211 
9284 
9352 
9263 
9225 
9279 
9351 
9276 
9224 
9257 
9340 
9323 
9240 
9261 
9356 
9329 
9236 
9244 
9330 
9355 
9250 
9243 
9310 
9352 
9253 
9246 
9315 
9370 
9271 
9221 
9276 
9378 
9341 
9279 
9288 
9357 
9314 
9224 
9229 
9310 
9301 
9208 
9228 
9300 
9333 
9231 
9212 
9288 
9339 
9252 
9217 
9278 
9400 
9405 
9408 
9492 
9623 
9589 
9507 
9529 
9616 
9523 
9313 
9240 
9294 
9298 
9214 
9222 
9309 
9348 
9248 
9236 
9294 
9340 
9254 
9232 
9266 
9336 
9285 
9367 
9396 
9436 
9352 
9261 
9282 
9372 
9365 
9280 
9281 
9355 
9364 
9262 
9254 
9329 
9369 
9271 
9274 
9332 
9400 
9315 
9279 
9331 
9406 
9341 
9287 
9317 
9434 
9381 
9326 
9362 
9469 
9450 
9376 
9393 
9467 
9486 
9400 
9407 
9481 
9514 
9429 
9420 
9469 
9510 
9424 
9372 
9370 
9439 
9342 
9277 
9296 
9345 
9271 
9203 
9234 
9310 
9279 
9185 
9203 
9275 
9281 
9179 
9166 
9244 
9295 
9209 
9169 
9224 
9301 
9227 
9177 
9221 
9286 
9227 
9171 
9204 
9285 
9248 
9162 
9183 
9269 
9263 
9159 
9171 
9253 
9278 
9180 
9177 
9233 
9257 
9196 
9168 
9209 
9288 
9209 
9165 
9207 
9271 
9205 
9144 
9179 
9261 
9229 
9146 
9157 
9239 
9246 
9159 
9150 
9210 
9228 
9150 
9151 
9217 
9265 
9172 
9155 
9207 
9263 
9172 
9125 
9184 
9273 
9217 
9138 
9174 
9267 
9250 
9192 
9195 
9244 
9245 
9145 
9130 
9188 
9214 
9129 
9113 
9173 
9234 
9151 
9121 
9176 
9253 
9172 
9112 
9156 
9267 
9278 
9301 
9358 
9482 
9528 
9469 
9455 
9532 
9497 
9312 
9151 
9142 
9178 
9134 
9143 
9196 
9254 
9157 
9121 
9172 
9256 
9193 
9131 
9180 
9255 
9213 
9155 
9151 
9220 
9234 
9163 
9171 
9236 
9255 
9172 
9176 
9245 
9271 
9185 
9166 
9216 
9280 
9206 
9178 
9208 
9281 
9237 
9207 
9240 
9326 
9289 
9217 
9234 
9325 
9335 
9265 
9273 
9360 
9388 
9306 
9310 
9378 
9417 
9349 
9341 
9374 
9453 
9381 
9342 
9381 
9450 
9382 
9297 
9310 
9373 
9312 
9224 
9224 
9277 
9251 
9148 
9139 
9211 
9224 
9121 
9115 
9185 
9221 
9117 
9084 
9151 
9220 
9130 
9086 
9126 
9211 
9145 
9080 
9112 
9194 
9164 
9102 
9109 
9183 
9184 
9102 
9097 
9185 
9206 
9094 
9083 
9166 
9225 
9123 
9098 
9143 
9214 
9135 
9081 
9110 
9189 
9163 
9094 
9109 
9200 
9176 
9097 
9098 
9168 
9176 
9087 
9093 
9160 
9171 
9085 
9076 
9121 
9190 
9105 
9072 
9126 
9209 
9143 
9086 
9122 
9225 
9168 
9077 
9083 
9150 
9136 
9057 
9071 
9156 
9158 
9053 
9049 
9125 
9151 
9056 
9043 
9098 
9158 
9071 
9062 
9200 
9334 
9293 
9283 
9402 
9497 
9410 
9325 
9308 
9285 
9132 
8979 
8996 
9116 
9138 
9044 
9052 
9116 
9146 
9063 
9038 
9101 
9163 
9080 
9042 
9079 
9158 
9096 
9043 
9085 
9172 
9112 
9028 
9060 
9167 
9165 
9062 
9065 
9162 
9181 
9063 
9063 
9140 
9183 
9119 
9091 
9134 
9215 
9136 
9097 
9147 
9234 
9180 
9122 
9170 
9264 
9234 
9173 
9209 
9313 
9302 
9218 
9237 
9324 
9347 
9257 
9243 
9307 
9365 
9269 
9225 
9276 
9313 
9204 
9147 
9170 
9219 
9141 
9071 
9089 
9164 
9099 
9009 
9029 
9110 
9102 
9001 
9022 
9098 
9115 
9018 
8995 
9065 
9116 
9021 
8987 
9041 
9125 
9040 
8985 
9037 
9114 
9052 
8981 
9012 
9091 
9072 
9001 
9017 
9102 
9095 
9015 
8996 
9074 
9103 
9007 
8980 
9054 
9105 
9016 
8986 
9035 
9100 
9016 
8993 
9026 
9102 
9037 
8969 
8997 
9085 
9047 
8966 
8989 
9077 
9079 
8980 
8976 
9053 
9082 
8978 
8964 
9016 
9078 
9019 
8990 
9018 
9084 
8998 
8959 
9019 
9130 
9054 
8981 
8987 
9060 
9033 
8931 
8939 
9023 
9023 
8923 
8941 
9009 
9044 
8955 
8938 
8999 
9059 
8974 
8961 
9097 
9241 
9191 
9173 
9268 
9366 
9303 
9200 
9181 
9170 
9038 
8905 
8918 
9018 
9056 
8959 
8929 
8997 
9066 
8971 
8933 
8999 
9064 
8970 
8920 
8980 
9068 
9028 
8943 
8975 
9059 
9016 
8945 
8959 
9056 
9045 
8957 
8958 
9055 
9072 
8980 
8976 
9035 
9071 
8997 
8976 
9037 
9108 
9033 
8991 
9040 
9132 
9091 
9026 
9051 
9155 
9126 
9067 
9090 
9186 
9188 
9107 
9124 
9194 
9222 
9147 
9147 
9204 
9246 
9155 
9128 
9168 
9192 
9098 
9041 
9072 
9130 
9037 
8960 
8972 
9035 
8987 
8915 
8943 
9022 
9024 
8912 
8906 
8991 
9022 
8908 
8886 
8966 
9017 
8921 
8890 
8945 
9011 
8948 
8882 
8920 
9002 
8953 
8892 
8912 
8980 
8958 
8892 
8910 
8987 
8985 
8881 
8779 
8837 
8891 
8814 
8816 
8897 
8959 
8862 
8850 
8904 
8973 
8896 
8838 
8892 
8985 
8927 
8851 
8863 
8961 
8950 
8854 
8865 
8945 
8966 
8868 
8850 
8932 
8981 
8856 
8850 
8909 
8985 
8912 
8891 
8937 
9008 
8921 
8861 
8879 
8959 
8897 
8838 
8859 
8942 
8921 
8829 
8848 
8921 
8943 
8843 
8837 
8908 
8952 
8886 
8957 
9063 
9145 
9115 
9131 
9199 
9265 
9187 
9086 
9021 
9000 
8989 
8955 
8958 
9035 
9004 
8909 
8908 
8979 
8978 
8885 
8880 
8949 
9000 
8896 
8874 
8933 
8981 
8895 
8872 
8918 
8985 
8913 
8866 
8904 
8990 
8951 
8888 
8898 
8989 
8990 
8892 
8899 
8980 
9007 
8925 
8925 
8986 
9028 
8938 
8923 
8994 
9072 
8999 
8972 
9012 
9106 
9038 
8983 
9029 
9131 
9109 
9041 
9052 
9142 
9151 
9055 
9055 
9147 
9167 
9064 
9040 
9082 
9118 
9010 
8957 
8973 
9032 
8937 
8867 
8896 
8987 
8912 
8835 
8871 
8947 
8905 
8821 
8830 
8926 
8920 
8823 
8828 
8914 
8942 
8844 
8819 
8886 
8949 
8861 
8823 
8875 
8945 
8863 
8816 
8849 
8936 
8887 
8831 
8853 
8943 
8917 
8828 
8823 
8910 
8911 
8820 
8829 
8852 
8771 
8704 
8729 
8813 
8858 
8772 
8779 
8822 
8904 
8840 
8783 
8822 
8912 
8846 
8780 
8798 
8895 
8886 
8816 
8813 
8890 
8911 
8827 
8835 
8905 
8939 
8859 
8786 
8837 
8894 
8807 
8766 
8824 
8898 
8818 
8770 
8811 
8885 
8839 
8780 
8806 
8871 
8867 
8820 
8922 
9082 
9111 
9066 
9110 
9189 
9202 
9127 
9050 
8975 
8904 
8761 
8757 
8814 
8903 
8852 
8857 
8990 
9031 
8959 
8851 
8876 
8946 
8940 
8845 
8849 
8917 
8929 
8849 
8842 
8895 
8944 
8855 
8823 
8888 
8936 
8857 
8837 
8890 
8960 
8914 
8842 
8873 
8952 
8922 
8865 
8881 
8966 
8976 
8888 
8902 
8970 
8990 
8929 
8928 
8982 
9040 
8977 
8964 
9020 
9088 
9031 
8986 
9026 
9103 
9072 
9013 
9037 
9116 
9083 
8994 
8993 
9043 
9021 
8921 
8902 
8964 
8958 
8850 
8822 
8856 
8912 
8833 
8791 
8831 
8892 
8824 
8770 
8807 
8870 
8825 
8764 
8790 
8865 
8840 
8767 
8789 
8854 
8861 
8775 
8775 
8832 
8866 
8789 
8786 
8829 
8896 
8807 
8760 
8816 
8887 
8818 
8784 
8803 
8878 
8832 
8766 
8787 
8860 
8855 
8776 
8788 
8877 
8876 
8785 
8795 
8856 
8869 
8782 
8783 
8836 
8887 
8808 
8788 
8839 
8924 
8833 
8785 
8818 
8851 
8809 
8745 
8756 
8841 
8820 
8726 
8743 
8816 
8829 
8757 
8750 
8816 
8846 
8772 
8763 
8860 
8986 
8966 
8961 
9059 
9194 
9130 
9027 
9058 
9071 
8880 
8697 
8685 
8811 
8839 
8750 
8754 
8834 
8849 
8760 
8746 
8802 
8854 
8776 
8763 
8807 
8862 
8795 
8757 
8778 
8857 
8812 
8741 
8778 
8867 
8820 
8761 
8782 
8859 
8858 
8777 
8793 
8862 
8863 
8802 
8792 
8856 
8918 
8818 
8801 
8867 
8925 
8863 
8861 
8886 
8970 
8918 
8877 
8921 
9000 
8973 
8914 
8934 
9015 
9037 
8957 
8966 
9028 
9049 
8957 
8934 
8990 
9037 
8903 
8856 
8904 
8952 
8861 
8793 
8806 
8881 
8820 
8731 
8748 
8823 
8800 
8723 
8735 
8808 
8792 
8724 
8726 
8802 
8823 
8720 
8698 
8762 
8826 
8742 
8714 
8747 
8826 
8742 
8688 
8739 
8831 
8764 
8703 
8732 
8812 
8784 
8707 
8711 
8787 
8689 
8562 
8598 
8699 
8752 
8661 
8651 
8722 
8766 
8697 
8673 
8716 
8793 
8728 
8681 
8700 
8785 
8739 
8685 
8694 
8788 
8748 
8681 
8707 
8788 
8801 
8725 
8729 
8781 
8797 
8690 
8663 
8716 
8768 
8677 
8650 
8695 
8774 
8696 
8655 
8684 
8771 
8722 
8660 
8683 
8750 
8792 
8798 
8850 
8943 
9013 
8991 
8990 
9029 
9062 
8923 
8775 
8714 
8733 
8669 
8677 
8720 
8775 
8708 
8665 
8693 
8758 
8736 
8654 
8684 
8772 
8753 
8704 
8812 
8869 
8866 
8737 
8705 
8784 
8832 
8727 
8709 
8761 
8802 
8730 
8702 
8748 
8808 
8750 
8703 
8750 
8817 
8780 
8701 
8742 
8821 
8809 
8743 
8755 
8827 
8852 
8777 
8771 
8851 
8904 
8828 
8814 
8876 
8940 
8864 
8817 
8875 
8972 
8896 
8842 
8873 
8954 
8900 
8810 
8805 
8870 
8834 
8726 
8709 
8767 
8782 
8681 
8650 
8701 
8750 
8665 
8637 
8692 
8757 
8669 
8632 
8651 
8714 
8680 
8630 
8646 
8728 
8690 
8591 
8494 
8570 
8620 
8557 
8577 
8657 
8687 
8603 
8596 
8670 
8717 
8623 
8591 
8636 
8727 
8642 
8592 
8639 
8723 
8680 
8616 
8633 
8718 
8701 
8622 
8633 
8723 
8739 
8644 
8652 
8719 
8754 
8655 
8641 
8711 
8768 
8668 
8626 
8673 
8739 
8692 
8642 
8694 
8786 
8716 
8632 
8635 
8717 
8690 
8605 
8616 
8693 
8705 
8606 
8584 
8645 
8692 
8608 
8594 
8664 
8706 
8628 
8616 
8722 
8858 
8839 
8839 
9004 
9191 
9092 
8986 
8969 
8950 
8816 
8650 
8638 
8727 
8747 
8673 
8654 
8717 
8769 
8677 
8640 
8685 
8756 
8682 
8630 
8692 
8763 
8706 
8644 
8672 
8765 
8726 
8668 
8700 
8773 
8754 
8665 
8679 
8755 
8764 
8686 
8689 
8752 
8789 
8710 
8687 
8739 
8818 
8748 
8704 
8748 
8837 
8784 
8747 
8799 
8884 
8847 
8779 
8790 
8898 
8893 
8822 
8836 
8916 
8927 
8849 
8860 
8914 
8951 
8848 
8803 
8864 
8906 
8807 
8749 
8756 
8830 
8746 
8661 
8684 
8759 
8714 
8626 
8633 
8703 
8700 
8619 
8623 
8682 
8696 
8647 
8621 
8660 
8731 
8638 
8606 
8658 
8710 
8645 
8608 
8628 
8589 
8527 
8520 
8572 
8650 
8620 
8548 
8561 
8649 
8661 
8589 
8601 
8668 
8700 
8589 
8577 
8647 
8698 
8610 
8577 
8626 
8705 
8633 
8592 
8617 
8696 
8652 
8571 
8596 
8693 
8668 
8584 
8584 
8656 
8677 
8601 
8592 
8655 
8684 
8612 
8592 
8652 
8722 
8645 
8617 
8659 
8729 
8627 
8567 
8621 
8681 
8625 
8578 
8590 
8671 
8679 
8715 
8696 
8734 
8744 
8647 
8638 
8695 
8753 
8729 
8780 
8878 
8998 
8964 
8946 
8944 
9024 
8913 
8723 
8628 
8637 
8615 
8581 
8612 
8696 
8680 
8597 
8609 
8682 
8698 
8601 
8595 
8665 
8704 
8614 
8607 
8658 
8715 
8641 
8609 
8646 
8715 
8645 
8597 
8634 
8711 
8668 
8590 
8625 
8727 
8705 
8604 
8625 
8720 
8731 
8633 
8638 
8718 
8768 
8688 
8671 
8725 
8798 
8724 
8707 
8755 
8841 
8771 
8724 
8765 
8851 
8820 
8758 
8791 
8880 
8864 
8787 
8779 
8843 
8853 
8762 
8742 
8770 
8800 
8693 
8642 
8686 
8722 
8630 
8567 
8602 
8692 
8626 
8564 
8589 
8649 
8613 
8537 
8556 
8635 
8628 
8549 
8563 
8625 
8617 
8534 
8544 
8603 
8650 
8564 
8433 
8436 
8539 
8504 
8481 
8528 
8594 
8563 
8513 
8548 
8625 
8590 
8519 
8528 
8615 
8605 
8526 
8525 
8597 
8623 
8552 
8535 
8578 
8602 
8543 
8530 
8571 
8639 
8564 
8529 
8570 
8615 
8565 
8519 
8552 
8618 
8594 
8510 
8547 
8658 
8647 
8538 
8530 
8585 
8612 
8509 
8478 
8535 
8584 
8490 
8482 
8531 
8605 
8529 
8491 
8528 
8609 
8560 
8495 
8573 
8747 
8759 
8705 
8791 
8915 
8905 
8801 
8799 
8803 
8676 
8470 
8436 
8512 
8612 
8640 
8654 
8650 
8691 
8607 
8552 
8577 
8651 
8614 
8542 
8561 
8635 
8613 
8544 
8552 
8609 
8619 
8535 
8526 
8604 
8655 
8569 
8542 
8572 
8636 
8565 
8547 
8601 
8671 
8604 
8541 
8589 
8684 
8643 
8592 
8614 
8694 
8680 
8606 
8628 
8713 
8742 
8642 
8635 
8724 
8770 
8695 
8683 
8727 
8810 
8736 
8694 
8740 
8815 
8741 
8677 
8700 
8769 
8714 
8609 
8604 
8672 
8637 
8524 
8541 
8601 
8588 
8492 
8473 
8534 
8569 
8478 
8445 
8511 
8578 
8481 
8435 
8464 
8553 
8497 
8427 
8401 
8393 
8389 
8348 
8393 
8490 
8488 
8415 
8418 
8494 
8504 
8446 
8429 
8490 
8551 
8467 
8426 
8476 
8544 
8458 
8401 
8452 
8552 
8495 
8418 
8445 
8534 
8504 
8423 
8443 
8526 
8524 
8433 
8429 
8503 
8524 
8430 
8431 
8483 
8533 
8458 
8436 
8501 
8549 
8457 
8389 
8441 
8534 
8491 
8415 
8433 
8527 
8512 
8447 
8472 
8550 
8530 
8441 
8438 
8499 
8524 
8431 
8409 
8460 
8516 
8440 
8386 
8430 
8502 
8426 
8383 
8558 
8665 
8543 
8507 
8609 
8736 
8732 
8701 
8754 
8832 
8830 
8741 
8677 
8621 
8530 
8415 
8407 
8479 
8544 
8466 
8408 
8450 
8533 
8470 
8424 
8440 
8508 
8463 
8427 
8447 
8508 
8508 
8431 
8429 
8501 
8517 
8436 
8438 
8508 
8545 
8447 
8434 
8493 
8545 
8482 
8444 
8493 
8577 
8498 
8447 
8490 
8573 
8538 
8471 
8496 
8590 
8587 
8519 
8525 
8609 
8626 
8553 
8566 
8643 
8690 
8601 
8588 
8637 
8694 
8624 
8612 
8656 
8724 
8648 
8596 
8621 
8672 
8609 
8516 
8517 
8594 
8558 
8461 
8450 
8511 
8505 
8408 
8410 
8478 
8498 
8401 
8377 
8397 
8333 
8300 
8296 
8342 
8416 
8365 
8331 
8372 
8461 
8419 
8338 
8362 
8447 
8432 
8346 
8372 
8450 
8440 
8353 
8355 
8398 
8442 
8362 
8341 
8413 
8468 
8392 
8353 
8381 
8453 
8403 
8353 
8379 
8448 
8409 
8350 
8350 
8439 
8437 
8349 
8343 
8410 
8446 
8365 
8337 
8380 
8427 
8358 
8331 
8383 
8445 
8367 
8316 
8357 
8431 
8473 
8493 
8494 
8511 
8456 
8401 
8426 
8513 
8501 
8391 
8366 
8421 
8428 
8340 
8330 
8382 
8430 
8342 
8306 
8368 
8437 
8353 
8313 
8363 
8430 
8374 
8338 
8411 
8572 
8597 
8563 
8628 
8719 
8733 
8660 
8633 
8626 
8516 
8337 
8298 
8381 
8441 
8372 
8350 
8389 
8460 
8386 
8325 
8367 
8451 
8383 
8335 
8357 
8430 
8420 
8328 
8357 
8449 
8447 
8356 
8344 
8416 
8455 
8375 
8352 
8419 
8480 
8394 
8354 
8408 
8481 
8417 
8379 
8417 
8479 
8433 
8381 
8419 
8514 
8491 
8411 
8426 
8528 
8546 
8475 
8471 
8538 
8583 
8494 
8495 
8563 
8617 
8544 
8527 
8560 
8629 
8564 
8528 
8543 
8585 
8519 
8429 
8437 
8496 
8466 
8367 
8361 
8416 
8409 
8315 
8307 
8379 
8407 
8313 
8288 
8231 
8255 
8228 
8222 
8282 
8361 
8292 
8247 
8278 
8352 
8318 
8269 
8287 
8372 
8348 
8271 
8284 
8356 
8364 
8270 
8252 
8335 
8384 
8289 
8288 
8341 
8391 
8315 
8261 
8314 
8398 
8337 
8277 
8300 
8387 
8355 
8278 
8278 
8356 
8354 
8279 
8283 
8357 
8366 
8262 
8267 
8341 
8381 
8306 
8296 
8331 
8383 
8312 
8275 
8301 
8383 
8430 
8414 
8409 
8482 
8428 
8364 
8383 
8443 
8410 
8313 
8311 
8356 
8375 
8281 
8265 
8330 
8376 
8295 
8265 
8324 
8383 
8302 
8262 
8318 
8377 
8334 
8371 
8472 
8590 
8593 
8588 
8629 
8680 
8680 
8566 
8447 
8381 
8323 
8245 
8263 
8345 
8382 
8293 
8275 
8324 
8387 
8321 
8279 
8314 
8383 
8325 
8278 
8318 
8398 
8366 
8300 
8306 
8381 
8368 
8298 
8301 
8364 
8401 
8340 
8318 
8355 
8400 
8324 
8304 
8360 
8430 
8353 
8325 
8365 
8438 
8389 
8333 
8374 
8465 
8416 
8371 
8399 
8488 
8495 
8422 
8427 
8502 
8529 
8452 
8454 
8532 
8589 
8493 
8488 
8523 
8556 
8492 
8455 
8473 
8502 
8455 
8378 
8381 
8421 
8375 
8296 
8294 
8344 
8338 
8252 
8248 
8322 
8334 
8247 
8237 
8300 
8332 
8238 
8105 
8132 
8252 
8201 
8163 
8216 
8286 
8248 
8197 
8219 
8296 
8275 
8208 
8216 
8300 
8299 
8217 
8223 
8280 
8303 
8219 
8215 
8264 
8317 
8234 
8214 
8248 
8306 
8238 
8204 
8238 
8308 
8241 
8186 
8229 
8310 
8289 
8206 
8214 
8290 
8286 
8207 
8206 
8285 
8313 
8228 
8221 
8280 
8328 
8261 
8240 
8271 
8330 
8243 
8191 
8226 
8281 
8247 
8174 
8181 
8261 
8248 
8179 
8304 
8418 
8378 
8281 
8269 
8315 
8384 
8375 
8419 
8502 
8599 
8574 
8549 
8560 
8624 
8498 
8323 
8197 
8228 
8216 
8182 
8210 
8302 
8284 
8216 
8218 
8283 
8273 
8201 
8213 
8281 
8308 
8218 
8209 
8259 
8311 
8228 
8201 
8249 
8318 
8256 
8217 
8256 
8328 
8299 
8244 
8244 
8310 
8304 
8227 
8244 
8328 
8341 
8257 
8265 
8328 
8340 
8283 
8299 
8348 
8401 
8328 
8311 
8355 
8431 
8390 
8353 
8392 
8480 
8438 
8375 
8420 
8492 
8470 
8395 
8405 
8474 
8481 
8362 
8341 
8364 
8385 
8289 
8247 
8279 
8320 
8221 
8182 
8211 
8274 
8219 
8174 
8200 
8247 
8220 
8152 
8152 
8123 
8097 
8029 
8062 
8152 
8190 
8119 
8107 
8163 
8203 
8130 
8120 
8180 
8231 
8157 
8134 
8175 
8245 
8174 
8130 
8169 
8241 
8206 
8131 
8158 
8249 
8234 
8140 
8141 
8218 
8215 
8138 
8124 
8194 
8228 
8151 
8146 
8193 
8249 
8164 
8118 
8161 
8238 
8190 
8140 
8148 
8224 
8190 
8116 
8140 
8232 
8203 
8119 
8136 
8193 
8229 
8175 
8173 
8310 
8389 
8248 
8199 
8220 
8265 
8175 
8126 
8183 
8245 
8180 
8135 
8153 
8213 
8166 
8108 
8127 
8204 
8234 
8268 
8310 
8396 
8468 
8433 
8438 
8506 
8532 
8381 
8236 
8192 
8193 
8134 
8118 
8163 
8237 
8177 
8132 
8150 
8187 
8169 
8130 
8140 
8196 
8186 
8112 
8132 
8208 
8217 
8132 
8137 
8202 
8236 
8140 
8126 
8192 
8257 
8177 
8128 
8181 
8249 
8202 
8159 
8181 
8248 
8222 
8169 
8182 
8274 
8256 
8201 
8215 
8276 
8313 
8243 
8234 
8300 
8353 
8288 
8277 
8321 
8386 
8326 
8304 
8341 
8410 
8359 
8313 
8340 
8407 
8358 
8282 
8275 
8337 
8313 
8201 
8179 
8239 
8224 
8146 
8133 
8167 
8199 
8123 
8059 
7981 
8065 
8018 
8003 
8060 
8131 
8069 
8036 
8071 
8152 
8119 
8058 
8079 
8130 
8133 
8065 
8076 
8142 
8166 
8078 
8077 
8134 
8170 
8080 
8062 
8116 
8184 
8098 
8056 
8097 
8171 
8129 
8078 
8081 
8155 
8133 
8071 
8088 
8157 
8147 
8079 
8085 
8152 
8172 
8095 
8087 
8148 
8182 
8065 
8069 
8123 
8178 
8124 
8137 
8274 
8310 
8234 
8177 
8185 
8257 
8215 
8139 
8135 
8183 
8166 
8083 
8092 
8149 
8160 
8077 
8071 
8133 
8183 
8101 
8076 
8129 
8179 
8105 
8122 
8247 
8366 
8348 
8368 
8440 
8500 
8481 
8426 
8370 
8301 
8174 
8058 
8075 
8163 
8188 
8099 
8103 
8158 
8187 
8097 
8082 
8137 
8195 
8129 
8098 
8147 
8219 
8152 
8084 
8128 
8217 
8197 
8124 
8128 
8214 
8205 
8127 
8134 
8197 
8223 
8140 
8145 
8199 
8228 
8160 
8153 
8193 
8264 
8192 
8170 
8216 
8302 
8251 
8195 
8246 
8325 
8308 
8237 
8258 
8340 
8346 
8290 
8303 
8369 
8390 
8324 
8323 
8367 
8398 
8332 
8304 
8329 
8366 
8271 
8207 
8227 
8281 
8200 
8127 
8139 
8202 
8181 
8096 
8070 
8024 
8028 
7997 
8009 
8080 
8125 
8053 
8047 
8094 
8155 
8075 
8056 
8098 
8169 
8103 
8063 
8098 
8180 
8131 
8065 
8101 
8179 
8154 
8079 
8104 
8185 
8162 
8089 
8093 
8154 
8195 
8111 
8095 
8163 
8213 
8128 
8109 
8158 
8221 
8152 
8115 
8134 
8204 
8185 
8123 
8142 
8225 
8207 
8133 
8157 
8264 
8250 
8145 
8255 
8335 
8313 
8197 
8165 
8212 
8266 
8155 
8138 
8201 
8250 
8155 
8111 
8153 
8240 
8188 
8146 
8244 
8393 
8402 
8366 
8452 
8562 
8525 
8441 
8450 
8411 
8282 
8081 
8068 
8175 
8252 
8171 
8149 
8189 
8266 
8186 
8165 
8200 
8263 
8200 
8149 
8176 
8262 
8262 
8192 
8213 
8264 
8262 
8181 
8205 
8251 
8276 
8199 
8215 
8276 
8317 
8248 
8233 
8267 
8337 
8269 
8235 
8279 
8372 
8324 
8255 
8294 
8386 
8371 
8298 
8317 
8405 
8410 
8351 
8363 
8452 
8476 
8397 
8395 
8460 
8523 
8442 
8416 
8465 
8548 
8461 
8407 
8429 
8492 
8417 
8346 
8345 
8383 
8352 
8271 
8256 
8327 
8309 
8224 
8211 
8285 
8313 
8231 
8211 
8171 
8162 
8127 
8112 
8178 
8258 
8210 
8182 
8210 
8284 
8241 
8199 
8233 
8306 
8273 
8201 
8217 
8315 
8330 
8227 
8224 
8300 
8317 
8234 
8225 
8279 
8326 
8248 
8228 
8274 
8338 
8274 
8234 
8273 
8355 
8313 
8248 
8271 
8361 
8342 
8259 
8258 
8344 
8356 
8268 
8281 
8387 
8393 
8282 
8269 
8323 
8359 
8364 
8388 
8378 
8435 
8345 
8305 
8323 
8389 
8338 
8280 
8307 
8391 
8354 
8286 
8356 
8501 
8550 
8490 
8551 
8644 
8676 
8583 
8557 
8548 
8493 
8324 
8243 
8309 
8389 
8327 
8289 
8335 
8397 
8335 
8293 
8324 
8393 
8360 
8291 
8314 
8393 
8398 
8303 
8316 
8386 
8413 
8333 
8306 
8369 
8444 
8358 
8336 
8370 
8444 
8380 
8334 
8380 
8465 
8411 
8361 
8396 
8473 
8450 
8381 
8406 
8490 
8506 
8432 
8432 
8508 
8558 
8476 
8477 
8543 
8605 
8520 
8512 
8561 
8638 
8567 
8538 
8566 
8639 
8576 
8516 
8529 
8593 
8543 
8445 
8423 
8493 
8485 
8384 
8366 
8379 
8275 
8212 
8234 
8313 
8368 
8290 
8273 
8315 
8390 
8319 
8273 
8312 
8389 
8342 
8285 
8312 
8402 
8378 
8312 
8323 
8379 
8383 
8328 
8325 
8369 
8405 
8320 
8306 
8368 
8419 
8350 
8331 
8369 
8447 
8368 
8318 
8351 
8433 
8372 
8320 
8341 
8414 
8404 
8333 
8342 
8412 
8423 
8332 
8336 
8396 
8427 
8389 
8487 
8530 
8553 
8450 
8425 
8469 
8514 
8431 
8366 
8385 
8457 
8390 
8331 
8358 
8417 
8403 
8331 
8337 
8411 
8423 
8341 
8339 
8401 
8433 
8380 
8442 
8556 
8647 
8606 
8627 
8687 
8754 
8671 
8603 
8531 
8484 
8371 
8315 
8363 
8452 
8428 
8346 
8356 
8428 
8430 
8358 
8350 
8408 
8445 
8363 
8357 
8414 
8453 
8367 
8359 
8413 
8475 
8400 
8358 
8409 
8482 
8420 
8371 
8407 
8479 
8444 
8378 
8404 
8475 
8470 
8399 
8401 
8488 
8518 
8431 
8421 
8490 
8550 
8473 
8471 
8526 
8594 
8531 
8506 
8548 
8624 
8582 
8526 
8556 
8643 
8622 
8565 
8579 
8641 
8625 
8538 
8529 
8583 
8589 
8468 
8438 
8483 
8516 
8416 
8358 
8390 
8318 
8245 
8246 
8291 
8395 
8330 
8294 
8320 
8393 
8344 
8288 
8314 
8384 
8386 
8301 
8317 
8373 
8404 
8328 
8323 
8382 
8420 
8339 
8336 
8370 
8434 
8359 
8308 
8364 
8456 
8395 
8327 
8339 
8429 
8401 
8315 
8342 
8427 
8430 
8331 
8333 
8396 
8431 
8361 
8348 
8403 
8428 
8339 
8326 
8385 
8465 
8491 
8473 
8494 
8563 
8503 
8414 
8436 
8492 
8431 
8348 
8364 
8438 
8442 
8351 
8342 
8399 
8425 
8342 
8332 
8388 
8434 
8349 
8340 
8394 
8531 
8544 
8561 
8619 
8750 
8723 
8650 
8693 
8759 
8626 
8402 
8308 
8372 
8413 
8355 
8361 
8438 
8453 
8357 
8341 
8416 
8470 
8391 
8371 
8400 
8467 
8399 
8350 
8397 
8470 
8400 
8352 
8387 
8471 
8422 
8352 
8361 
8444 
8455 
8372 
8396 
8461 
8477 
8409 
8412 
8479 
8530 
8454 
8447 
8490 
8558 
8489 
8470 
8503 
8592 
8537 
8491 
8541 
8614 
8597 
8548 
8574 
8655 
8640 
8565 
8587 
8652 
8681 
8582 
8573 
8634 
8665 
8561 
8507 
8532 
8562 
8478 
8415 
8432 
8497 
8447 
8353 
8259 
8336 
8329 
8280 
8293 
8363 
8365 
8295 
8298 
8384 
8401 
8314 
8299 
8362 
8432 
8335 
8308 
8362 
8449 
8369 
8330 
8368 
8450 
8390 
8355 
8377 
8433 
8392 
8336 
8333 
8414 
8421 
8329 
8330 
8403 
8448 
8373 
8367 
8424 
8467 
8360 
8326 
8397 
8472 
8372 
8333 
8379 
8442 
8387 
8336 
8456 
8611 
8519 
8420 
8427 
8515 
8488 
8379 
8406 
8462 
8494 
8415 
8386 
8453 
8485 
8364 
8331 
8361 
8449 
8405 
8334 
8344 
8426 
8395 
8352 
8376 
8474 
8424 
8341 
8353 
8489 
8554 
8510 
8538 
8664 
8731 
8633 
8641 
8714 
8653 
8453 
8347 
8369 
8441 
8370 
8350 
8396 
8466 
8401 
8349 
8373 
8447 
8411 
8343 
8365 
8436 
8436 
8360 
8358 
8420 
8437 
8358 
8358 
8414 
8458 
8376 
8360 
8391 
8445 
8391 
8364 
8415 
8487 
8405 
8352 
8385 
8461 
8437 
8387 
8412 
8473 
8483 
8415 
8426 
8493 
8528 
8450 
8462 
8526 
8570 
8498 
8481 
8551 
8620 
8527 
8505 
8575 
8640 
8573 
8519 
8537 
8606 
8534 
8462 
8445 
8513 
8488 
8394 
8373 
8323 
8257 
8212 
8219 
8286 
8337 
8270 
8246 
8294 
8359 
8283 
8243 
8277 
8373 
8322 
8264 
8284 
8376 
8344 
8254 
8283 
8377 
8356 
8274 
8280 
8349 
8371 
8291 
8269 
8332 
8384 
8310 
8290 
8334 
8381 
8305 
8284 
8336 
8409 
8331 
8279 
8318 
8406 
8356 
8278 
8303 
8384 
8369 
8281 
8295 
8365 
8385 
8301 
8283 
8382 
8548 
8435 
8388 
8399 
8455 
8373 
8320 
8360 
8434 
8360 
8295 
8331 
8423 
8374 
8319 
8331 
8399 
8388 
8306 
8308 
8397 
8409 
8298 
8312 
8398 
8450 
8353 
8314 
8341 
8397 
8324 
8275 
8296 
8400 
8352 
8278 
8301 
8402 
8369 
8296 
8317 
8378 
8369 
8306 
8356 
8502 
8587 
8527 
8546 
8619 
8667 
8603 
8562 
8547 
8513 
8345 
8270 
8308 
8418 
8369 
8325 
8361 
8417 
8376 
8307 
8341 
8421 
8406 
8324 
8338 
8411 
8421 
8338 
8325 
8396 
8439 
8338 
8331 
8398 
8451 
8367 
8337 
8375 
8455 
8389 
8332 
8390 
8463 
8428 
8374 
8393 
8458 
8476 
8405 
8412 
8485 
8513 
8413 
8430 
8519 
8562 
8474 
8488 
8546 
8607 
8539 
8506 
8559 
8631 
8586 
8542 
8570 
8653 
8607 
8541 
8560 
8607 
8592 
8484 
8472 
8523 
8505 
8363 
8242 
8313 
8377 
8300 
8292 
8350 
8406 
8328 
8298 
8340 
8413 
8357 
8305 
8336 
8413 
8372 
8306 
8332 
8419 
8410 
8333 
8316 
8393 
8414 
8331 
8332 
8396 
8429 
8347 
8332 
8391 
8438 
8348 
8345 
8391 
8447 
8379 
8346 
8374 
8454 
8415 
8344 
8354 
8442 
8435 
8353 
8353 
8424 
8458 
8361 
8371 
8534 
8601 
8477 
8431 
8470 
8522 
8434 
8391 
8432 
8493 
8437 
8382 
8407 
8485 
8439 
8371 
8387 
8458 
8458 
8393 
8374 
8454 
8498 
8400 
8364 
8426 
8487 
8401 
8386 
8451 
8506 
8414 
8369 
8415 
8490 
8430 
8370 
8401 
8492 
8451 
8394 
8420 
8520 
8493 
8414 
8421 
8466 
8480 
8392 
8390 
8440 
8479 
8382 
8354 
8416 
8478 
8405 
8377 
8399 
8482 
8426 
8374 
8462 
8625 
8633 
8585 
8656 
8757 
8726 
8619 
8626 
8656 
8579 
8388 
8355 
8415 
8486 
8424 
8409 
8442 
8503 
8415 
8383 
8431 
8500 
8450 
8410 
8430 
8510 
8472 
8413 
8419 
8486 
8486 
8411 
8420 
8495 
8518 
8439 
8419 
8472 
8524 
8431 
8426 
8483 
8537 
8458 
8435 
8473 
8555 
8493 
8451 
8495 
8588 
8544 
8475 
8514 
8628 
8614 
8524 
8549 
8642 
8647 
8559 
8574 
8647 
8696 
8606 
8590 
8656 
8716 
8624 
8604 
8634 
8691 
8623 
8548 
8564 
8607 
8547 
8405 
8313 
8415 
8406 
8329 
8347 
8428 
8449 
8370 
8343 
8409 
8467 
8384 
8353 
8396 
8473 
8403 
8366 
8400 
8470 
8410 
8354 
8386 
8473 
8427 
8363 
8377 
8453 
8448 
8371 
8385 
8459 
8460 
8362 
8369 
8444 
8479 
8383 
8357 
8422 
8497 
8418 
8388 
8421 
8476 
8435 
8368 
8391 
8470 
8444 
8382 
8403 
8477 
8469 
8389 
8386 
8445 
8566 
8544 
8478 
8511 
8535 
8449 
8424 
8460 
8526 
8439 
8405 
8446 
8509 
8441 
8388 
8428 
8508 
8464 
8387 
8422 
8505 
8497 
8418 
8418 
8479 
8504 
8404 
8388 
8451 
8506 
8436 
8403 
8469 
8549 
8465 
8420 
8450 
8516 
8450 
8384 
8409 
8492 
8460 
8379 
8406 
8489 
8473 
8377 
8381 
8487 
8501 
8411 
8401 
8526 
8672 
8626 
8625 
8715 
8818 
8701 
8671 
8687 
8686 
8491 
8350 
8390 
8496 
8484 
8417 
8441 
8514 
8503 
8412 
8421 
8491 
8522 
8438 
8431 
8483 
8542 
8468 
8440 
8481 
8545 
8481 
8441 
8483 
8558 
8502 
8449 
8479 
8558 
8529 
8452 
8470 
8560 
8557 
8482 
8483 
8560 
8577 
8507 
8504 
8580 
8637 
8550 
8533 
8599 
8672 
8602 
8575 
8616 
8702 
8660 
8608 
8631 
8733 
8712 
8640 
8651 
8746 
8746 
8671 
8649 
8709 
8727 
8609 
8588 
8637 
8666 
8563 
8510 
8548 
8606 
8446 
8283 
8358 
8461 
8409 
8356 
8382 
8483 
8471 
8386 
8412 
8487 
8487 
8416 
8426 
8499 
8523 
8423 
8414 
8475 
8541 
8455 
8420 
8471 
8548 
8475 
8415 
8447 
8539 
8490 
8409 
8449 
8551 
8508 
8432 
8451 
8521 
8528 
8451 
8438 
8512 
8540 
8451 
8435 
8502 
8551 
8460 
8442 
8494 
8560 
8470 
8421 
8460 
8566 
8512 
8452 
8477 
8560 
8529 
8431 
8524 
8706 
8660 
8543 
8534 
8591 
8627 
8545 
8525 
8587 
8634 
8521 
8474 
8527 
8593 
8503 
8444 
8482 
8582 
8519 
8427 
8460 
8578 
8544 
8468 
8479 
8574 
8576 
8521 
8598 
8720 
8764 
8713 
8758 
8850 
8849 
8752 
8655 
8588 
8543 
8423 
8388 
8457 
8567 
8516 
8453 
8470 
8570 
8530 
8459 
8470 
8556 
8564 
8474 
8466 
8559 
8599 
8484 
8461 
8536 
8621 
8521 
8453 
8533 
8624 
8532 
8475 
8512 
8621 
8569 
8482 
8519 
8638 
8609 
8526 
8538 
8633 
8642 
8533 
8549 
8647 
8677 
8581 
8563 
8636 
8710 
8635 
8587 
8657 
8731 
8663 
8621 
8679 
8780 
8731 
8679 
8702 
8780 
8746 
8657 
8641 
8724 
8716 
8571 
8538 
8603 
8611 
8502 
8467 
8529 
8581 
8466 
8417 
8453 
8415 
8316 
8294 
8365 
8456 
8399 
8355 
8391 
8492 
8462 
8356 
8360 
8481 
8510 
8410 
8393 
8478 
8517 
8406 
8390 
8454 
8523 
8435 
8396 
8449 
8539 
8461 
8395 
8446 
8537 
8470 
8383 
8433 
8519 
8481 
8396 
8412 
8501 
8522 
8413 
8399 
8486 
8521 
8405 
8392 
8472 
8540 
8432 
8400 
8474 
8541 
8441 
8387 
8434 
8545 
8486 
8417 
8442 
8534 
8508 
8510 
8608 
8667 
8645 
8508 
8467 
8532 
8562 
8462 
8438 
8489 
8546 
8440 
8392 
8470 
8541 
8454 
8397 
8432 
8520 
8468 
8416 
8522 
8688 
8701 
8636 
8684 
8808 
8788 
8700 
8643 
8613 
8528 
8367 
8374 
8469 
8541 
8437 
8396 
8452 
8537 
8458 
8397 
8440 
8539 
8483 
8402 
8450 
8541 
8517 
8425 
8431 
8518 
8528 
8436 
8444 
8514 
8552 
8464 
8442 
8515 
8569 
8481 
8457 
8513 
8588 
8507 
8453 
8515 
8607 
8552 
8478 
8515 
8616 
8599 
8510 
8539 
8659 
8668 
8567 
8567 
8656 
8696 
8591 
8593 
8673 
8755 
8659 
8607 
8653 
8748 
8682 
8629 
8640 
8706 
8647 
8556 
8548 
8613 
8577 
8477 
8455 
8505 
8388 
8297 
8320 
8404 
8437 
8346 
8346 
8429 
8496 
8398 
8359 
8408 
8488 
8422 
8365 
8407 
8490 
8450 
8378 
8414 
8508 
8487 
8384 
8395 
8484 
8498 
8400 
8408 
8474 
8523 
8432 
8393 
8449 
8506 
8432 
8410 
8440 
8519 
8459 
8404 
8432 
8523 
8481 
8396 
8412 
8524 
8497 
8395 
8409 
8478 
8510 
8410 
8411 
8582 
8668 
8523 
8477 
8516 
8579 
8484 
8431 
8471 
8562 
8508 
8462 
8492 
8568 
8522 
8415 
8418 
8517 
8482 
8403 
8432 
8504 
8496 
8407 
8396 
8455 
8503 
8427 
8403 
8467 
8519 
8465 
8516 
8627 
8736 
8701 
8682 
8719 
8795 
8749 
8613 
8525 
8512 
8461 
8384 
8400 
8497 
8527 
8424 
8415 
8499 
8539 
8419 
8405 
8461 
8524 
8451 
8416 
8462 
8537 
8465 
8419 
8458 
8537 
8505 
8446 
8457 
8537 
8530 
8447 
8444 
8526 
8547 
8461 
8457 
8524 
8563 
8471 
8467 
8527 
8596 
8519 
8486 
8537 
8626 
8558 
8503 
8568 
8649 
8605 
8555 
8579 
8659 
8662 
8583 
8598 
8668 
8698 
8618 
8612 
8675 
8720 
8607 
8576 
8607 
8647 
8546 
8493 
8535 
8583 
8503 
8311 
8285 
8410 
8397 
8342 
8353 
8430 
8425 
8349 
8347 
8437 
8449 
8356 
8364 
8435 
8485 
8383 
8344 
8405 
8479 
8401 
8368 
8402 
8479 
8445 
8388 
8387 
8472 
8452 
8372 
8401 
8475 
8462 
8389 
8389 
8464 
8476 
8391 
8384 
8451 
8504 
8413 
8369 
8415 
8488 
8416 
8378 
8411 
8480 
8432 
8390 
8427 
8503 
8439 
8388 
8478 
8646 
8586 
8465 
8464 
8531 
8533 
8436 
8430 
8498 
8558 
8474 
8448 
8486 
8542 
8445 
8395 
8430 
8513 
8428 
8359 
8391 
8490 
8458 
8372 
8382 
8463 
8470 
8380 
8384 
8467 
8552 
8534 
8570 
8644 
8750 
8687 
8650 
8695 
8745 
8601 
8444 
8412 
8456 
8430 
8384 
8416 
8495 
8459 
8378 
8409 
8499 
8489 
8405 
8396 
8475 
8490 
8393 
8404 
8476 
8516 
8424 
8401 
8447 
8508 
8429 
8410 
8461 
8541 
8473 
8416 
8441 
8532 
8501 
8431 
8459 
8545 
8541 
8460 
8448 
8517 
8549 
8481 
8482 
8546 
8599 
8524 
8513 
8603 
8678 
8592 
8552 
8602 
8678 
8639 
8577 
8589 
8692 
8672 
8595 
8602 
8671 
8652 
8559 
8552 
8605 
8607 
8490 
8441 
8346 
8397 
8331 
8315 
8368 
8442 
8368 
8315 
8351 
8430 
8404 
8353 
8372 
8446 
8416 
8354 
8361 
8445 
8448 
8369 
8372 
8434 
8466 
8387 
8368 
8426 
8478 
8401 
8359 
8429 
8513 
8424 
8382 
8412 
8500 
8453 
8390 
8404 
8480 
8450 
8381 
8398 
8470 
8472 
8369 
8389 
8466 
8497 
8398 
8371 
8441 
8508 
8457 
8522 
8552 
8596 
8487 
8432 
8471 
8549 
8483 
8406 
8412 
8503 
8475 
8412 
8421 
8506 
8526 
8432 
8412 
8476 
8486 
8385 
8360 
8420 
8484 
8395 
8358 
8394 
8470 
8417 
8365 
8401 
8479 
8426 
8366 
8399 
8530 
8589 
8541 
8569 
8702 
8761 
8647 
8617 
8681 
8665 
8460 
8352 
8388 
8461 
8410 
8375 
8417 
8514 
8435 
8373 
8409 
8505 
8455 
8369 
8384 
8490 
8486 
8390 
8417 
8499 
8497 
8397 
8405 
8476 
8535 
8434 
8402 
8473 
8552 
8452 
8416 
8470 
8541 
8472 
8427 
8475 
8564 
8519 
8429 
8462 
8562 
8552 
8466 
8489 
8577 
8596 
8500 
8514 
8602 
8639 
8543 
8534 
8618 
8693 
8596 
8561 
8623 
8709 
8636 
8577 
8604 
8677 
8618 
8528 
8527 
8595 
8494 
8303 
8326 
8408 
8417 
8323 
8313 
8387 
8440 
8337 
8315 
8375 
8442 
8365 
8328 
8367 
8448 
8383 
8319 
8351 
8451 
8404 
8316 
8357 
8456 
8429 
8336 
8349 
8430 
8444 
8343 
8339 
8411 
8458 
8365 
8321 
8386 
8471 
8377 
8334 
8377 
8465 
8397 
8334 
8372 
8469 
8415 
8333 
8346 
8436 
8444 
8480 
8493 
8518 
8515 
8413 
8409 
8461 
8496 
8394 
8363 
8413 
8482 
8397 
8337 
8379 
8479 
8418 
8362 
8397 
8494 
8448 
8363 
8342 
8422 
8417 
8328 
8315 
8407 
8437 
8331 
8316 
8386 
8440 
8349 
8304 
8360 
8452 
8382 
8356 
8481 
8628 
8580 
8559 
8636 
8735 
8681 
8599 
8553 
8519 
8406 
8270 
8304 
8395 
8435 
8339 
8334 
8390 
8444 
8346 
8302 
8369 
8442 
8350 
8309 
8365 
8443 
8386 
8326 
8356 
8439 
8411 
8332 
8358 
8448 
8442 
8350 
8356 
8425 
8451 
8364 
8350 
8423 
8474 
8393 
8352 
8420 
8503 
8426 
8393 
8425 
8510 
8463 
8403 
8436 
8515 
8514 
8455 
8481 
8574 
8569 
8467 
8481 
8565 
8617 
8521 
8511 
8567 
8616 
8522 
8485 
8527 
8576 
8468 
8348 
8263 
8361 
8326 
8251 
8275 
8374 
8348 
8249 
8252 
8346 
8351 
8251 
8260 
8327 
8363 
8270 
8262 
8320 
8381 
8300 
8261 
8299 
8384 
8301 
8262 
8318 
8404 
8354 
8272 
8303 
8385 
8356 
8273 
8284 
8360 
8375 
8290 
8293 
8351 
8371 
8300 
8293 
8347 
8406 
8321 
8278 
8326 
8414 
8333 
8280 
8331 
8462 
8511 
8414 
8412 
8481 
8439 
8325 
8341 
8420 
8426 
8326 
8313 
8386 
8419 
8326 
8311 
8379 
8426 
8332 
8316 
8375 
8453 
8376 
8307 
8323 
8397 
8348 
8274 
8297 
8373 
8362 
8277 
8292 
8368 
8365 
8277 
8276 
8345 
8390 
8295 
8309 
8436 
8570 
8508 
8502 
8614 
8705 
8611 
8552 
8542 
8503 
8341 
8230 
8269 
8383 
8368 
8306 
8299 
8378 
8395 
8290 
8270 
8342 
8401 
8319 
8296 
8351 
8420 
8351 
8305 
8339 
8428 
8359 
8293 
8333 
8423 
8374 
8311 
8343 
8418 
8405 
8336 
8347 
8428 
8442 
8342 
8327 
8405 
8476 
8392 
8372 
8440 
8507 
8437 
8398 
8430 
8515 
8471 
8427 
8475 
8573 
8541 
8461 
8489 
8566 
8569 
8501 
8513 
8580 
8594 
8510 
8487 
8531 
8575 
8440 
8267 
8304 
8375 
8311 
8276 
8310 
8391 
8323 
8255 
8269 
8348 
8335 
8261 
8258 
8333 
8349 
8268 
8261 
8332 
8342 
8259 
8274 
8323 
8369 
8278 
8256 
8319 
8398 
8308 
8260 
8307 
8384 
8335 
8267 
8307 
8384 
8345 
8269 
8283 
8375 
8364 
8280 
8295 
8353 
8371 
8290 
8267 
8318 
8382 
8279 
8251 
8311 
8475 
8463 
8374 
8386 
8463 
8395 
8309 
8329 
8418 
8386 
8309 
8323 
8395 
8385 
8291 
8299 
8391 
8414 
8303 
8283 
8359 
8431 
8348 
8300 
8332 
8403 
8324 
8259 
8299 
8361 
8320 
8266 
8286 
8369 
8349 
8259 
8265 
8337 
8373 
8276 
8270 
8394 
8510 
8459 
8474 
8575 
8677 
8583 
8527 
8573 
8589 
8393 
8246 
8256 
8361 
8334 
8266 
8300 
8382 
8359 
8276 
8295 
8370 
8380 
8285 
8290 
8358 
8395 
8308 
8296 
8347 
8393 
8315 
8291 
8344 
8413 
8350 
8295 
8325 
8418 
8388 
8321 
8339 
8419 
8419 
8329 
8339 
8412 
8440 
8351 
8347 
8429 
8472 
8393 
8355 
8444 
8523 
8438 
8415 
8460 
8541 
8493 
8442 
8471 
8553 
8518 
8468 
8494 
8562 
8438 
8327 
8379 
8446 
8458 
8383 
8344 
8425 
8448 
8333 
8300 
8332 
8393 
8312 
8263 
8287 
8361 
8302 
8239 
8264 
8342 
8313 
8261 
8273 
8332 
8338 
8251 
8262 
8322 
8340 
8265 
8268 
8329 
8384 
8284 
8268 
8309 
8379 
8302 
8261 
8318 
8387 
8325 
8279 
8299 
8389 
8351 
8274 
8293 
8352 
8349 
8271 
8273 
8368 
8522 
8394 
8335 
8390 
8465 
8319 
8272 
8340 
8434 
8327 
8259 
8305 
8426 
8351 
8246 
8292 
8395 
8368 
8253 
8270 
8382 
8391 
8253 
8278 
8395 
8464 
8308 
8285 
8362 
8433 
8303 
8247 
8292 
8394 
8304 
8232 
8280 
8388 
8324 
8234 
8276 
8388 
8361 
8238 
8266 
8426 
8529 
8436 
8462 
8599 
8698 
8551 
8519 
8589 
8614 
8364 
8224 
8262 
8386 
8305 
8236 
8296 
8429 
8366 
8248 
8285 
8396 
8371 
8245 
8282 
8401 
8430 
8294 
8297 
8379 
8451 
8319 
8290 
8344 
8443 
8343 
8309 
8380 
8471 
8376 
8311 
8374 
8484 
8427 
8331 
8362 
8468 
8450 
8358 
8375 
8467 
8490 
8390 
8393 
8478 
8541 
8422 
8404 
8509 
8605 
8500 
8460 
8528 
8614 
8549 
8471 
8510 
8616 
8568 
8466 
8383 
8433 
8444 
8341 
8349 
8428 
8436 
8306 
8311 
8371 
8398 
8281 
8262 
8308 
8392 
8308 
8255 
8294 
8379 
8307 
8260 
8295 
8379 
8343 
8260 
8293 
8383 
8359 
8274 
8284 
8360 
8387 
8274 
8280 
8351 
8405 
8297 
8280 
8324 
8400 
8328 
8281 
8315 
8396 
8339 
8277 
8299 
8397 
8356 
8272 
8295 
8364 
8370 
8325 
8442 
8493 
8478 
8359 
8340 
8384 
8435 
8355 
8314 
8359 
8430 
8346 
8309 
8347 
8432 
8377 
8325 
8349 
8410 
8379 
8295 
8302 
8366 
8364 
8272 
8280 
8353 
8377 
8280 
8265 
8347 
8398 
8303 
8269 
8312 
8404 
8390 
8431 
8507 
8604 
8610 
8584 
8581 
8644 
8623 
8490 
8348 
8329 
8327 
8272 
8304 
8389 
8419 
8312 
8301 
8353 
8415 
8328 
8306 
8352 
8408 
8343 
8318 
8329 
8422 
8381 
8315 
8337 
8428 
8398 
8318 
8338 
8412 
8415 
8332 
8335 
8402 
8450 
8357 
8350 
8411 
8475 
8390 
8360 
8400 
8502 
8427 
8385 
8431 
8517 
8486 
8418 
8467 
8547 
8531 
8448 
8467 
8566 
8585 
8489 
8489 
8560 
8619 
8530 
8503 
8501 
8449 
8391 
8361 
8398 
8487 
8405 
8327 
8346 
8423 
8365 
8291 
8298 
8377 
8369 
8280 
8264 
8355 
8376 
8277 
8260 
8323 
8375 
8273 
8253 
8331 
8401 
8317 
8258 
8305 
8382 
8313 
8279 
8322 
8410 
8355 
8276 
8295 
8386 
8379 
8292 
8299 
8375 
8402 
8295 
8283 
8355 
8404 
8334 
8430 
8477 
8503 
8412 
8362 
8389 
8462 
8385 
8319 
8341 
8435 
8400 
8320 
8332 
8407 
8400 
8325 
8336 
8426 
8455 
8332 
8298 
8348 
8389 
8319 
8280 
8339 
8404 
8322 
8267 
8300 
8392 
8344 
8276 
8306 
8391 
8373 
8305 
8375 
8543 
8575 
8514 
8575 
8676 
8665 
8578 
8535 
8494 
8414 
8248 
8227 
8304 
8399 
8325 
8284 
8319 
8392 
8358 
8288 
8304 
8396 
8388 
8295 
8295 
8368 
8340 
8447 
8481 
8505 
8477 
8392 
8395 
8421 
8434 
8344 
8314 
8333 
8380 
8301 
8263 
8335 
8439 
8415 
8356 
8388 
8499 
8482 
8379 
8393 
8466 
8453 
8349 
8344 
8414 
8466 
8393 
8412 
8485 
8547 
8463 
8435 
8472 
8535 
8455 
8296 
8282 
8391 
8357 
8305 
8335 
8424 
8433 
8335 
8308 
8389 
8392 
8280 
8259 
8302 
8334 
8231 
8199 
8260 
8324 
8240 
8201 
8247 
8327 
8260 
8204 
8230 
8319 
8285 
8195 
8208 
8299 
8309 
8216 
8209 
8291 
8301 
8229 
8219 
8273 
8315 
8223 
8218 
8268 
8332 
8239 
8213 
8251 
8342 
8273 
8228 
8385 
8460 
8397 
8292 
8290 
8363 
8354 
8239 
8243 
8329 
8351 
8246 
8243 
8300 
8343 
8260 
8246 
8269 
8343 
8270 
8224 
8290 
8374 
8324 
8264 
8270 
8333 
8288 
8207 
8202 
8293 
8311 
8189 
8177 
8259 
8292 
8191 
8166 
8247 
8318 
8230 
8186 
8249 
8379 
8384 
8366 
8425 
8568 
8561 
8491 
8526 
8602 
8497 
8308 
8229 
8278 
8308 
8210 
8217 
8315 
8341 
8236 
8212 
8280 
8336 
8244 
8204 
8263 
8348 
8286 
8211 
8257 
8362 
8305 
8235 
8245 
8341 
8319 
8223 
8247 
8336 
8348 
8241 
8223 
8302 
8335 
8241 
8240 
8299 
8343 
8253 
8228 
8290 
8390 
8319 
8271 
8324 
8428 
8392 
8318 
8355 
8467 
8453 
8358 
8393 
8477 
8496 
8417 
8404 
8480 
8500 
8272 
8240 
8333 
8410 
8327 
8274 
8312 
8382 
8286 
8208 
8223 
8295 
8256 
8167 
8181 
8275 
8259 
8161 
8159 
8236 
8261 
8169 
8154 
8225 
8268 
8172 
8146 
8203 
8286 
8195 
8140 
8196 
8280 
8218 
8147 
8171 
8260 
8236 
8135 
8153 
8261 
8250 
8154 
8158 
8237 
8272 
8163 
8179 
8381 
8418 
8283 
8221 
8256 
8332 
8241 
8189 
8224 
8302 
8246 
8164 
8199 
8281 
8245 
8156 
8163 
8253 
8263 
8159 
8161 
8238 
8280 
8197 
8180 
8233 
8270 
8157 
8119 
8184 
8257 
8173 
8120 
8158 
8254 
8169 
8110 
8137 
8228 
8208 
8127 
8142 
8234 
8286 
8251 
8299 
8395 
8494 
8450 
8422 
8466 
8521 
8379 
8222 
8181 
8210 
8150 
8122 
8163 
8269 
8210 
8125 
8157 
8249 
8232 
8147 
8168 
8240 
8247 
8148 
8143 
8226 
8279 
8177 
8142 
8224 
8289 
8191 
8146 
8197 
8275 
8204 
8143 
8192 
8294 
8250 
8169 
8185 
8277 
8262 
8181 
8190 
8283 
8307 
8217 
8203 
8287 
8348 
8276 
8242 
8299 
8378 
8297 
8260 
8337 
8432 
8332 
8163 
8172 
8299 
8287 
8224 
8246 
8317 
8296 
8195 
8179 
8239 
8258 
8147 
8101 
8163 
8191 
8087 
8055 
8099 
8176 
8099 
8048 
8089 
8172 
8114 
8043 
8069 
8160 
8133 
8051 
8057 
8152 
8180 
8078 
8058 
8134 
8169 
8080 
8070 
8132 
8182 
8097 
8063 
8119 
8199 
8112 
8062 
8106 
8188 
8123 
8053 
8084 
8162 
8141 
8052 
8060 
8156 
8160 
8149 
8190 
8235 
8249 
8148 
8105 
8158 
8222 
8123 
8072 
8121 
8197 
8101 
8052 
8087 
8188 
8125 
8019 
8081 
8189 
8153 
8058 
8109 
8184 
8170 
8040 
8027 
8115 
8148 
8031 
8008 
8088 
8168 
8060 
8005 
8049 
8152 
8075 
8021 
8046 
8130 
8107 
8094 
8200 
8327 
8342 
8303 
8330 
8375 
8398 
8315 
8184 
8122 
8112 
8002 
7990 
8075 
8141 
8052 
8005 
8060 
8137 
8062 
7997 
8035 
8125 
8079 
8006 
8026 
8144 
8128 
8033 
8043 
8117 
8133 
8027 
8037 
8122 
8159 
8054 
8034 
8103 
8153 
8077 
8040 
8087 
8171 
8110 
8053 
8087 
8197 
8167 
8082 
8109 
8211 
8201 
8113 
8127 
8213 
8253 
8161 
8157 
8238 
8282 
8192 
8162 
8193 
8159 
8100 
8094 
8149 
8234 
8169 
8096 
8121 
8183 
8137 
8062 
8040 
8107 
8099 
7987 
7974 
8046 
8070 
7971 
7928 
8000 
8062 
7971 
7936 
7990 
8068 
7976 
7931 
7971 
8061 
7995 
7905 
7965 
8064 
8027 
7934 
7936 
8033 
8037 
7940 
7935 
8023 
8048 
7943 
7936 
8003 
8079 
8111 
8067 
8076 
8132 
8060 
7983 
8008 
8104 
8051 
7955 
7976 
8055 
8024 
7952 
7965 
8044 
8039 
7940 
7937 
8012 
8053 
7956 
7944 
8027 
8099 
8029 
7959 
7998 
8060 
7985 
7921 
7957 
8055 
7988 
7907 
7933 
8024 
8001 
7913 
7926 
8023 
8024 
7919 
7936 
8045 
8156 
8116 
8112 
8214 
8335 
8260 
8187 
8237 
8271 
8090 
7897 
7873 
8001 
7991 
7937 
7949 
8030 
8020 
7925 
7938 
8010 
8028 
7944 
7927 
7991 
8039 
7948 
7934 
8008 
8079 
7983 
7927 
7978 
8061 
8014 
7954 
7978 
8072 
8038 
7944 
7970 
8075 
8061 
7977 
7987 
8076 
8109 
8007 
8006 
8078 
8146 
8046 
8011 
8101 
8183 
8108 
8064 
8129 
8217 
8156 
8095 
8145 
8232 
8207 
8081 
7987 
8113 
8153 
8074 
8074 
8148 
8182 
8068 
8027 
8080 
8135 
8017 
7949 
7996 
8064 
7973 
7904 
7951 
8033 
7973 
7905 
7926 
8013 
7980 
7893 
7902 
7990 
8015 
7922 
7902 
7978 
8033 
7931 
7906 
7981 
8039 
7941 
7916 
7968 
8047 
7971 
7919 
7955 
8036 
7995 
7928 
8067 
8159 
8116 
8007 
8005 
8095 
8087 
7975 
7963 
8019 
8061 
7989 
7951 
8002 
8072 
7985 
7940 
7980 
8043 
7982 
7921 
7951 
8052 
8008 
7931 
7945 
8018 
8014 
7949 
7961 
8037 
8041 
7930 
7918 
7981 
8019 
7911 
7884 
7937 
8011 
7924 
7895 
7946 
8015 
7949 
7907 
7947 
8000 
7958 
7932 
8019 
8165 
8182 
8129 
8182 
8263 
8264 
8155 
8103 
8074 
8006 
7881 
7873 
7944 
8026 
7942 
7888 
7940 
8024 
7958 
7892 
7924 
8023 
7978 
7892 
7902 
7997 
8004 
7909 
7907 
7998 
8035 
7926 
7928 
7997 
8032 
7941 
7915 
7970 
8051 
7981 
7928 
7972 
8076 
7986 
7934 
7980 
8082 
8052 
7965 
7981 
8077 
8090 
8006 
8003 
8086 
8119 
8045 
8031 
8109 
8167 
8084 
8078 
8126 
8173 
7977 
7928 
8001 
8125 
8071 
7996 
8020 
8096 
8067 
7952 
7948 
8009 
7996 
7878 
7864 
7946 
7977 
7866 
7849 
7896 
7963 
7872 
7827 
7867 
7952 
7885 
7829 
7882 
7971 
7907 
7828 
7861 
7949 
7921 
7844 
7872 
7941 
7955 
7879 
7864 
7941 
7977 
7873 
7853 
7917 
7981 
7897 
7849 
7905 
7996 
7919 
7848 
7901 
7997 
7931 
7856 
7876 
7964 
7967 
7874 
7954 
8095 
8087 
7970 
7953 
8015 
8053 
7929 
7891 
7950 
8008 
7927 
7882 
7935 
8010 
7939 
7880 
7917 
8027 
7975 
7872 
7890 
7957 
7936 
7855 
7842 
7928 
7952 
7852 
7837 
7905 
7954 
7868 
7835 
7896 
7962 
7884 
7849 
7920 
8089 
8090 
8032 
8124 
8266 
8219 
8131 
8141 
8186 
8056 
7856 
7823 
7915 
7954 
7864 
7854 
7935 
7984 
7890 
7842 
7902 
7998 
7910 
7843 
7881 
7984 
7932 
7846 
7886 
7988 
7946 
7858 
7889 
7982 
7972 
7871 
7879 
7957 
7989 
7893 
7877 
7945 
7994 
7902 
7882 
7951 
8024 
7964 
7911 
7958 
8031 
7984 
7915 
7944 
8065 
8039 
7970 
7991 
8083 
8088 
8003 
8016 
8097 
8129 
7942 
7860 
7968 
8051 
7983 
7948 
7991 
8066 
7966 
7891 
7929 
7983 
7919 
7835 
7830 
7898 
7888 
7787 
7805 
7898 
7894 
7802 
7793 
7853 
7898 
7804 
7778 
7842 
7904 
7816 
7773 
7834 
7912 
7842 
7774 
7813 
7928 
7872 
7795 
7807 
7905 
7886 
7796 
7801 
7876 
7903 
7808 
7800 
7878 
7919 
7822 
7802 
7856 
7945 
7987 
7949 
7956 
8010 
7920 
7847 
7876 
7958 
7906 
7824 
7844 
7928 
7914 
7819 
7825 
7901 
7930 
7826 
7791 
7859 
7912 
7804 
7797 
7866 
7938 
7838 
7794 
7849 
7952 
7897 
7814 
7827 
7903 
7871 
7787 
7797 
7878 
7860 
7761 
7775 
7851 
7877 
7778 
7760 
7833 
7900 
7797 
7761 
7867 
8006 
7985 
7978 
8076 
8203 
8137 
8058 
8082 
8112 
7954 
7753 
7741 
7849 
7872 
7792 
7792 
7877 
7887 
7777 
7782 
7843 
7899 
7804 
7770 
7842 
7904 
7829 
7781 
7807 
7906 
7848 
7771 
7810 
7894 
7875 
7792 
7810 
7900 
7889 
7802 
7816 
7900 
7926 
7836 
7817 
7899 
7950 
7855 
7823 
7888 
7973 
7913 
7855 
7906 
8008 
7964 
7906 
7921 
8023 
8010 
7935 
7946 
8033 
8056 
7971 
7963 
8020 
7951 
7815 
7837 
7928 
7991 
7880 
7828 
7851 
7934 
7848 
7758 
7784 
7887 
7813 
7710 
7737 
7828 
7805 
7714 
7732 
7813 
7828 
7726 
7709 
7789 
7850 
7753 
7709 
7777 
7851 
7765 
7711 
7761 
7851 
7793 
7715 
7737 
7863 
7808 
7714 
7726 
7822 
7826 
7732 
7741 
7819 
7839 
7717 
7730 
7808 
7862 
7762 
7717 
7883 
8017 
7887 
7801 
7848 
7935 
7859 
7767 
7793 
7892 
7864 
7758 
7757 
7854 
7872 
7770 
7762 
7859 
7911 
7799 
7757 
7820 
7860 
7760 
7715 
7773 
7860 
7770 
7706 
7746 
7850 
7795 
7712 
7729 
7846 
7812 
7720 
7742 
7899 
7994 
7926 
7949 
8099 
8188 
8055 
8021 
8065 
8030 
7803 
7644 
7711 
7864 
7799 
7722 
7764 
7874 
7822 
7731 
7756 
7864 
7834 
7723 
7731 
7826 
7852 
7757 
7742 
7818 
7860 
7764 
7735 
7813 
7909 
7805 
7742 
7802 
7899 
7837 
7760 
7795 
7899 
7862 
7777 
7802 
7906 
7895 
7804 
7809 
7905 
7946 
7848 
7822 
7917 
7991 
7896 
7867 
7934 
8020 
7947 
7906 
7971 
8053 
7981 
7916 
7958 
8054 
7955 
7747 
7783 
7898 
7914 
7806 
7792 
7861 
7863 
7743 
7712 
7791 
7825 
7727 
7690 
7755 
7830 
7725 
7668 
7723 
7814 
7739 
7657 
7678 
7794 
7780 
7671 
7701 
7806 
7803 
7695 
7685 
7786 
7815 
7708 
7688 
7757 
7828 
7728 
7682 
7744 
7821 
7739 
7659 
7708 
7838 
7777 
7684 
7700 
7809 
7796 
7793 
7854 
7919 
7896 
7770 
7749 
7833 
7873 
7755 
7715 
7795 
7865 
7757 
7704 
7768 
7871 
7782 
7714 
7769 
7855 
7776 
7678 
7699 
7805 
7779 
7680 
7680 
7784 
7808 
7675 
7670 
7763 
7787 
7698 
7674 
7758 
7851 
7812 
7838 
7940 
8079 
8050 
7989 
7998 
8100 
8014 
7789 
7698 
7747 
7751 
7666 
7674 
7788 
7811 
7696 
7680 
7761 
7817 
7711 
7665 
7753 
7831 
7740 
7684 
7734 
7829 
7752 
7677 
7720 
7819 
7783 
7683 
7706 
7818 
7809 
7708 
7705 
7817 
7831 
7715 
7705 
7792 
7864 
7758 
7719 
7800 
7889 
7793 
7729 
7792 
7906 
7861 
7780 
7803 
7929 
7915 
7820 
7834 
7953 
7960 
7855 
7824 
7794 
7851 
7773 
7759 
7839 
7908 
7800 
7735 
7777 
7856 
7768 
7676 
7696 
7793 
7710 
7619 
7657 
7754 
7717 
7612 
7614 
7718 
7724 
7613 
7610 
7703 
7741 
7636 
7606 
7683 
7755 
7659 
7613 
7662 
7750 
7682 
7627 
7673 
7769 
7704 
7623 
7655 
7762 
7734 
7620 
7631 
7739 
7754 
7646 
7632 
7723 
7759 
7652 
7655 
7849 
7896 
7762 
7685 
7725 
7820 
7746 
7653 
7691 
7786 
7731 
7648 
7668 
7766 
7747 
7651 
7654 
7762 
7796 
7688 
7654 
7727 
7754 
7635 
7596 
7668 
7750 
7660 
7586 
7643 
7744 
7654 
7582 
7620 
7728 
7684 
7594 
7621 
7749 
7820 
7763 
7791 
7944 
8034 
7934 
7906 
7982 
7990 
7755 
7627 
7640 
7719 
7647 
7580 
7634 
7746 
7668 
7569 
7611 
7716 
7676 
7581 
7600 
7708 
7709 
7601 
7606 
7703 
7737 
7629 
7600 
7686 
7755 
7642 
7592 
7658 
7745 
7670 
7608 
7662 
7756 
7697 
7618 
7648 
7754 
7732 
7637 
7653 
7759 
7767 
7672 
7682 
7779 
7822 
7705 
7690 
7777 
7863 
7761 
7715 
7772 
7884 
7772 
7583 
7642 
7767 
7726 
7674 
7692 
7791 
7769 
7660 
7645 
7728 
7723 
7600 
7569 
7658 
7692 
7571 
7529 
7584 
7665 
7566 
7513 
7574 
7667 
7594 
7527 
7556 
7646 
7623 
7538 
7553 
7667 
7638 
7536 
7532 
7638 
7648 
7532 
7523 
7622 
7663 
7558 
7523 
7594 
7679 
7588 
7524 
7569 
7667 
7602 
7517 
7564 
7708 
7777 
7656 
7653 
7745 
7713 
7595 
7591 
7685 
7706 
7590 
7562 
7639 
7682 
7586 
7545 
7613 
7693 
7602 
7565 
7623 
7727 
7667 
7565 
7588 
7686 
7645 
7533 
7534 
7642 
7638 
7528 
7523 
7604 
7638 
7530 
7507 
7580 
7652 
7551 
7502 
7583 
7722 
7708 
7688 
7774 
7946 
7918 
7816 
7849 
7948 
7831 
7590 
7510 
7590 
7612 
7525 
7528 
7622 
7646 
7539 
7519 
7590 
7650 
7555 
7520 
7574 
7649 
7583 
7517 
7574 
7680 
7612 
7506 
7545 
7646 
7633 
7533 
7546 
7649 
7659 
7551 
7544 
7636 
7677 
7582 
7553 
7628 
7702 
7608 
7564 
7628 
7732 
7647 
7585 
7631 
7736 
7701 
7624 
7658 
7768 
7740 
7654 
7675 
7782 
7776 
7553 
7544 
7669 
7730 
7643 
7618 
7696 
7764 
7648 
7579 
7614 
7702 
7618 
7522 
7539 
7613 
7565 
7475 
7487 
7585 
7574 
7456 
7446 
7550 
7585 
7475 
7463 
7533 
7582 
7486 
7450 
7512 
7592 
7507 
7446 
7510 
7596 
7521 
7439 
7477 
7582 
7530 
7449 
7476 
7579 
7565 
7463 
7468 
7559 
7590 
7474 
7449 
7527 
7592 
7495 
7464 
7519 
7607 
7509 
7432 
7484 
7594 
7540 
7434 
7493 
7742 
7707 
7572 
7582 
7670 
7674 
7545 
7520 
7584 
7611 
7492 
7455 
7545 
7598 
7492 
7451 
7504 
7587 
7504 
7445 
7490 
7598 
7543 
7449 
7500 
7683 
7725 
7647 
7710 
7854 
7872 
7747 
7736 
7794 
7727 
7458 
7366 
7462 
7569 
7488 
7436 
7490 
7580 
7507 
7439 
7480 
7585 
7536 
7456 
7477 
7568 
7546 
7449 
7466 
7555 
7569 
7469 
7478 
7556 
7573 
7478 
7460 
7553 
7621 
7525 
7475 
7534 
7633 
7567 
7508 
7537 
7639 
7599 
7524 
7554 
7650 
7635 
7559 
7585 
7670 
7694 
7600 
7604 
7682 
7737 
7647 
7625 
7699 
7774 
7680 
7632 
7674 
7775 
7710 
7634 
7648 
7712 
7672 
7529 
7413 
7496 
7473 
7410 
7423 
7488 
7504 
7408 
7397 
7457 
7504 
7395 
7377 
7450 
7513 
7431 
7377 
7427 
7519 
7453 
7367 
7409 
7524 
7489 
7414 
7433 
7515 
7511 
7420 
7423 
7506 
7521 
7427 
7409 
7476 
7549 
7458 
7413 
7522 
7707 
7579 
7493 
7536 
7630 
7546 
7468 
7485 
7566 
7532 
7437 
7453 
7554 
7534 
7436 
7446 
7515 
7549 
7457 
7453 
7511 
7549 
7441 
7405 
7460 
7511 
7433 
7373 
7409 
7495 
7460 
7376 
7397 
7489 
7470 
7388 
7392 
7486 
7522 
7491 
7542 
7666 
7718 
7675 
7686 
7739 
7797 
7677 
7542 
7463 
7470 
7405 
7376 
7424 
7513 
7473 
7400 
7411 
7498 
7481 
7402 
7402 
7483 
7489 
7410 
7413 
7490 
7510 
7403 
7392 
7464 
7525 
7443 
7389 
7448 
7546 
7464 
7402 
7437 
7538 
7512 
7434 
7438 
7530 
7515 
7423 
7442 
7530 
7561 
7475 
7454 
7540 
7598 
7498 
7490 
7564 
7640 
7567 
7520 
7563 
7660 
7615 
7551 
7586 
7675 
7641 
7567 
7573 
7630 
7491 
7376 
7403 
7490 
7516 
7402 
7372 
7436 
7468 
7378 
7332 
7379 
7456 
7368 
7321 
7380 
7462 
7398 
7309 
7334 
7439 
7403 
7321 
7334 
7422 
7437 
7345 
7340 
7407 
7443 
7349 
7331 
7397 
7451 
7353 
7328 
7405 
7458 
7376 
7335 
7375 
7453 
7392 
7334 
7364 
7458 
7427 
7323 
7342 
7469 
7589 
7496 
7448 
7497 
7525 
7423 
7402 
7470 
7521 
7412 
7370 
7442 
7521 
7455 
7391 
7415 
7487 
7429 
7346 
7359 
7447 
7416 
7321 
7325 
7415 
7424 
7325 
7328 
7404 
7449 
7350 
7322 
7379 
7522 
7505 
7501 
7592 
7714 
7683 
7602 
7632 
7715 
7591 
7392 
7336 
7394 
7395 
7314 
7333 
7419 
7433 
7318 
7306 
7393 
7439 
7339 
7312 
7387 
7466 
7364 
7321 
7356 
7445 
7392 
7335 
7363 
7457 
7414 
7330 
7349 
7423 
7415 
7359 
7362 
7434 
7437 
7341 
7342 
7416 
7478 
7397 
7364 
7437 
7513 
7414 
7380 
7434 
7528 
7479 
7409 
7440 
7563 
7538 
7463 
7487 
7583 
7584 
7503 
7503 
7569 
7598 
7507 
7474 
7529 
7577 
7448 
7394 
7395 
7332 
7254 
7217 
7257 
7344 
7297 
7237 
7252 
7361 
7335 
7240 
7249 
7334 
7357 
7268 
7260 
7323 
7359 
7273 
7249 
7306 
7371 
7301 
7247 
7295 
7389 
7308 
7258 
7287 
7370 
7317 
7258 
7282 
7368 
7349 
7264 
7269 
7356 
7371 
7282 
7258 
7329 
7374 
7280 
7266 
7321 
7388 
7293 
7260 
7315 
7396 
7301 
7274 
7454 
7534 
7449 
7343 
7360 
7447 
7440 
7353 
7351 
7411 
7398 
7289 
7291 
7357 
7388 
7283 
7257 
7327 
7384 
7296 
7251 
7289 
7372 
7317 
7260 
7285 
7383 
7413 
7401 
7468 
7591 
7620 
7572 
7569 
7641 
7647 
7464 
7300 
7282 
7331 
7258 
7247 
7309 
7375 
7292 
7251 
7285 
7364 
7308 
7246 
7293 
7386 
7343 
7254 
7274 
7367 
7354 
7268 
7264 
7351 
7379 
7282 
7263 
7341 
7386 
7281 
7262 
7327 
7403 
7331 
7285 
7325 
7410 
7364 
7299 
7343 
7435 
7405 
7323 
7349 
7455 
7458 
7361 
7371 
7466 
7501 
7410 
7416 
7485 
7547 
7441 
7416 
7488 
7567 
7484 
7424 
7475 
7553 
7458 
7364 
7384 
7459 
7409 
7319 
7308 
7368 
7361 
7254 
7247 
7315 
7336 
7251 
7232 
7292 
7350 
7262 
7223 
7287 
7352 
7264 
7221 
7247 
7342 
7290 
7218 
7241 
7333 
7312 
7223 
7237 
7312 
7335 
7243 
7239 
7305 
7335 
7250 
7230 
7292 
7355 
7265 
7219 
7265 
7354 
7284 
7220 
7249 
7348 
7303 
7213 
7226 
7321 
7318 
7224 
7230 
7317 
7326 
7238 
7259 
7344 
7365 
7260 
7212 
7264 
7323 
7231 
7182 
7232 
7319 
7233 
7174 
7213 
7293 
7253 
7189 
7191 
7286 
7282 
7218 
7298 
7447 
7500 
7434 
7482 
7573 
7597 
7520 
7434 
7369 
7313 
7157 
7125 
7208 
7311 
7235 
7162 
7204 
7294 
7258 
7169 
7176 
7273 
7278 
7195 
7187 
7266 
7300 
7202 
7179 
7258 
7315 
7226 
7193 
7245 
7316 
7251 
7213 
7246 
7333 
7280 
7210 
7234 
7344 
7338 
7237 
7235 
7339 
7351 
7259 
7264 
7348 
7393 
7302 
7293 
7370 
7436 
7358 
7330 
7389 
7465 
7394 
7355 
7390 
7477 
7435 
7380 
7397 
7481 
7449 
7342 
7337 
7404 
7403 
7284 
7262 
7312 
7323 
7215 
7185 
7227 
7293 
7205 
7143 
7197 
7277 
7198 
7132 
7171 
7258 
7226 
7139 
7163 
7245 
7241 
7147 
7163 
7243 
7258 
7161 
7149 
7221 
7266 
7173 
7145 
7205 
7278 
7184 
7144 
7198 
7276 
7205 
7146 
7148 
7237 
7226 
7144 
7147 
7250 
7243 
7141 
7140 
7217 
7248 
7156 
7125 
7197 
7246 
7148 
7132 
7209 
7296 
7201 
7143 
7171 
7249 
7182 
7093 
7123 
7202 
7168 
7097 
7105 
7192 
7192 
7093 
7096 
7185 
7220 
7115 
7122 
7257 
7378 
7314 
7332 
7444 
7542 
7430 
7370 
7398 
7388 
7209 
7046 
7085 
7217 
7194 
7100 
7106 
7186 
7200 
7103 
7104 
7175 
7226 
7121 
7108 
7170 
7246 
7160 
7120 
7183 
7267 
7195 
7120 
7151 
7241 
7200 
7125 
7158 
7247 
7221 
7149 
7145 
7227 
7257 
7166 
7154 
7235 
7281 
7180 
7161 
7242 
7322 
7238 
7193 
7257 
7346 
7287 
7243 
7279 
7373 
7345 
7276 
7307 
7396 
7382 
7299 
7310 
7392 
7401 
7291 
7277 
7323 
7347 
7233 
7193 
7225 
7258 
7157 
7113 
7142 
7229 
7147 
7076 
7101 
7187 
7150 
7077 
7082 
7160 
7156 
7089 
7082 
7154 
7163 
7080 
7071 
7135 
7187 
7095 
7072 
7132 
7193 
7121 
7066 
7111 
7200 
7128 
7058 
7085 
7169 
7150 
7068 
7073 
7175 
7179 
7057 
7054 
7138 
7184 
7083 
7064 
7144 
7198 
7094 
7055 
7109 
7190 
7107 
7050 
7093 
7164 
7118 
7046 
7063 
7152 
7142 
7074 
7101 
7190 
7187 
7084 
7080 
7131 
7161 
7059 
7035 
7110 
7156 
7060 
7026 
7066 
7145 
7074 
7013 
7049 
7152 
7110 
7023 
7084 
7255 
7295 
7221 
7279 
7437 
7457 
7334 
7336 
7392 
7321 
7083 
6998 
7068 
7137 
7044 
7008 
7079 
7154 
7084 
7027 
7069 
7146 
7106 
7035 
7060 
7144 
7132 
7046 
7044 
7129 
7160 
7060 
7050 
7124 
7164 
7052 
7037 
7109 
7176 
7100 
7049 
7099 
7187 
7135 
7078 
7099 
7203 
7167 
7093 
7114 
7214 
7215 
7117 
7136 
7236 
7262 
7162 
7157 
7250 
7307 
7222 
7194 
7259 
7341 
7239 
7204 
7255 
7346 
7275 
7206 
7227 
7299 
7243 
7130 
7120 
7200 
7169 
7058 
7047 
7098 
7128 
7038 
7009 
7068 
7121 
7028 
6998 
7046 
7109 
7027 
6973 
7024 
7120 
7063 
6989 
7016 
7106 
7078 
6994 
7002 
7080 
7079 
7000 
7006 
7086 
7108 
7001 
6992 
7062 
7113 
7018 
6975 
7027 
7124 
7059 
6968 
7006 
7107 
7061 
6994 
7004 
7074 
7071 
7002 
7000 
7089 
7100 
7005 
7006 
7082 
7113 
7006 
6982 
7064 
7125 
7015 
6968 
7028 
7123 
7057 
7009 
7056 
7124 
7074 
6983 
6987 
7081 
7061 
6964 
6970 
7057 
7081 
6978 
6957 
7050 
7089 
6995 
6980 
7036 
7102 
7042 
7061 
7174 
7287 
7286 
7269 
7308 
7408 
7364 
7223 
7128 
7094 
7030 
6941 
6960 
7057 
7083 
6965 
6955 
7051 
7090 
6988 
6958 
7027 
7113 
7012 
6950 
7006 
7108 
7037 
6962 
6989 
7083 
7052 
6968 
6970 
7072 
7078 
6985 
6991 
7064 
7093 
6999 
6984 
7061 
7122 
7017 
6981 
7055 
7148 
7074 
7021 
7077 
7167 
7126 
7066 
7101 
7199 
7180 
7094 
7114 
7214 
7227 
7140 
7132 
7215 
7254 
7152 
7135 
7193 
7248 
7153 
7102 
7131 
7182 
7091 
7024 
7047 
7121 
7053 
6968 
6973 
7065 
7041 
6928 
6940 
7037 
7037 
6944 
6932 
7002 
7037 
6940 
6941 
7000 
7044 
6975 
6935 
6979 
7066 
6984 
6933 
6967 
7054 
6999 
6918 
6944 
7034 
7024 
6937 
6930 
7004 
7039 
6935 
6920 
7008 
7043 
6948 
6904 
6964 
7034 
6953 
6906 
6960 
7043 
6971 
6897 
6939 
7030 
6995 
6909 
6909 
7002 
6983 
6903 
6922 
6987 
7010 
6910 
6908 
6987 
7055 
6968 
6911 
6948 
7020 
6937 
6882 
6917 
6991 
6937 
6864 
6886 
6976 
6942 
6851 
6875 
6963 
6950 
6859 
6862 
6980 
7096 
7067 
7081 
7193 
7306 
7219 
7156 
7207 
7237 
7039 
6854 
6838 
6950 
6917 
6854 
6889 
6983 
6941 
6875 
6886 
6977 
6984 
6877 
6884 
6968 
7009 
6895 
6881 
6954 
7015 
6924 
6886 
6936 
7032 
6960 
6889 
6934 
7039 
6995 
6921 
6931 
7015 
7007 
6948 
6945 
7030 
7049 
6956 
6955 
7044 
7080 
6993 
6985 
7053 
7117 
7040 
7007 
7057 
7158 
7092 
7018 
7046 
7170 
7139 
7064 
7085 
7157 
7140 
7060 
7062 
7123 
7127 
7006 
6977 
7026 
7054 
6946 
6902 
6947 
6999 
6910 
6851 
6876 
6962 
6899 
6849 
6877 
6958 
6921 
6827 
6853 
6956 
6940 
6835 
6832 
6912 
6940 
6841 
6833 
6906 
6970 
6867 
6831 
6893 
6957 
6872 
6828 
6883 
6968 
6910 
6819 
6849 
6952 
6918 
6832 
6845 
6918 
6934 
6843 
6834 
6923 
6947 
6835 
6821 
6892 
6935 
6851 
6832 
6876 
6955 
6865 
6811 
6856 
6950 
6910 
6837 
6856 
6933 
6925 
6856 
6861 
6933 
6918 
6820 
6810 
6890 
6924 
6812 
6788 
6870 
6940 
6838 
6786 
6839 
6935 
6864 
6788 
6834 
6964 
6994 
6965 
7028 
7177 
7206 
7118 
7093 
7186 
7175 
6952 
6803 
6833 
6890 
6822 
6802 
6863 
6933 
6841 
6797 
6849 
6937 
6865 
6798 
6852 
6935 
6895 
6814 
6835 
6920 
6891 
6812 
6822 
6916 
6931 
6840 
6832 
6888 
6929 
6842 
6813 
6877 
6950 
6864 
6835 
6871 
6958 
6897 
6826 
6865 
6963 
6941 
6862 
6888 
6973 
6975 
6899 
6909 
6998 
7033 
6932 
6913 
6990 
7060 
6981 
6945 
7015 
7068 
6985 
6940 
6975 
7041 
6962 
6883 
6891 
6956 
6901 
6802 
6809 
6888 
6844 
6746 
6735 
6809 
6834 
6738 
6724 
6783 
6838 
6744 
6719 
6780 
6859 
6774 
6723 
6759 
6848 
6808 
6737 
6762 
6844 
6831 
6752 
6769 
6849 
6852 
6746 
6747 
6819 
6865 
6768 
6742 
6809 
6880 
6790 
6737 
6801 
6879 
6807 
6759 
6797 
6875 
6814 
6746 
6780 
6868 
6840 
6749 
6764 
6839 
6848 
6758 
6760 
6818 
6846 
6751 
6729 
6819 
6884 
6776 
6727 
6775 
6868 
6826 
6783 
6808 
6869 
6808 
6722 
6740 
6827 
6797 
6716 
6724 
6790 
6812 
6709 
6701 
6767 
6821 
6735 
6721 
6782 
6863 
6841 
6882 
6974 
7077 
7059 
7042 
7063 
7146 
7083 
6913 
6805 
6810 
6798 
6707 
6706 
6812 
6833 
6721 
6706 
6774 
6828 
6752 
6717 
6775 
6852 
6767 
6708 
6758 
6853 
6788 
6721 
6748 
6837 
6812 
6729 
6734 
6823 
6826 
6730 
6735 
6825 
6837 
6740 
6749 
6831 
6870 
6775 
6748 
6816 
6895 
6821 
6779 
6826 
6922 
6884 
6819 
6842 
6948 
6936 
6849 
6865 
6965 
6970 
6881 
6894 
6979 
7003 
6898 
6876 
6931 
6997 
6903 
6844 
6860 
6922 
6828 
6746 
6781 
6856 
6797 
6708 
6744 
6833 
6808 
6715 
6716 
6797 
6796 
6704 
6705 
6770 
6824 
6722 
6691 
6753 
6826 
6734 
6686 
6726 
6820 
6735 
6675 
6716 
6796 
6752 
6685 
6704 
6798 
6775 
6666 
6690 
6770 
6795 
6699 
6681 
6749 
6798 
6697 
6670 
6723 
6789 
6710 
6664 
6706 
6779 
6702 
6661 
6707 
6782 
6750 
6668 
6689 
6773 
6751 
6665 
6681 
6749 
6757 
6671 
6680 
6743 
6790 
6700 
6689 
6758 
6816 
6724 
6663 
6692 
6777 
6719 
6645 
6671 
6764 
6724 
6639 
6665 
6743 
6755 
6663 
6667 
6741 
6760 
6669 
6704 
6859 
6956 
6893 
6918 
7034 
7104 
7007 
6948 
6930 
6866 
6702 
6597 
6655 
6758 
6739 
6667 
6675 
6744 
6756 
6676 
6662 
6739 
6785 
6690 
6669 
6739 
6790 
6700 
6683 
6745 
6796 
6731 
6669 
6698 
6786 
6752 
6683 
6707 
6798 
6780 
6696 
6708 
6788 
6800 
6717 
6718 
6788 
6836 
6749 
6730 
6794 
6878 
6795 
6758 
6821 
6901 
6836 
6800 
6848 
6927 
6877 
6809 
6861 
6938 
6929 
6847 
6858 
6945 
6952 
6864 
6837 
6881 
6908 
6793 
6755 
6788 
6844 
6750 
6685 
6711 
6787 
6716 
6640 
6665 
6757 
6724 
6630 
6646 
6736 
6721 
6620 
6642 
6718 
6743 
6645 
6625 
6689 
6767 
6661 
6615 
6679 
6755 
6675 
6628 
6676 
6743 
6681 
6623 
6662 
6748 
6702 
6634 
6652 
6718 
6713 
6628 
6629 
6711 
6734 
6645 
6629 
6685 
6739 
6647 
6612 
6673 
6758 
6682 
6607 
6638 
6728 
6682 
6614 
6644 
6729 
6703 
6632 
6633 
6717 
6751 
6657 
6643 
6718 
6747 
6636 
6601 
6658 
6716 
6620 
6581 
6626 
6704 
6645 
6598 
6620 
6691 
6640 
6574 
6606 
6739 
6798 
6779 
6811 
6932 
7003 
6932 
6896 
6971 
6962 
6730 
6578 
6592 
6675 
6627 
6591 
6630 
6719 
6642 
6591 
6623 
6699 
6656 
6591 
6618 
6706 
6703 
6619 
6617 
6696 
6707 
6612 
6619 
6685 
6724 
6628 
6610 
6672 
6736 
6661 
6625 
6663 
6749 
6688 
6640 
6671 
6747 
6723 
6664 
6693 
6766 
6769 
6687 
6698 
6781 
6798 
6721 
6729 
6806 
6858 
6778 
6758 
6816 
6890 
6818 
6787 
6821 
6902 
6850 
6775 
6799 
6876 
6822 
6719 
6713 
6774 
6759 
6651 
6636 
6698 
6715 
6607 
6585 
6645 
6704 
6607 
6564 
6598 
6679 
6609 
6542 
6587 
6688 
6630 
6562 
6575 
6663 
6640 
6555 
6573 
6655 
6668 
6573 
6567 
6639 
6669 
6578 
6565 
6609 
6669 
6585 
6561 
6590 
6665 
6603 
6561 
6595 
6664 
6612 
6555 
6581 
6646 
6629 
6546 
6553 
6625 
6653 
6562 
6547 
6613 
6665 
6584 
6565 
6634 
6699 
6596 
6542 
6575 
6650 
6567 
6504 
6538 
6623 
6595 
6516 
6540 
6621 
6594 
6515 
6519 
6596 
6629 
6571 
6631 
6760 
6846 
6802 
6837 
6904 
6944 
6856 
6739 
6672 
6620 
6515 
6466 
6538 
6647 
6613 
6517 
6529 
6610 
6601 
6510 
6520 
6613 
6631 
6530 
6522 
6600 
6658 
6558 
6514 
6579 
6668 
6583 
6536 
6570 
6646 
6592 
6533 
6569 
6658 
6630 
6541 
6564 
6665 
6664 
6570 
6584 
6669 
6704 
6615 
6600 
6667 
6736 
6657 
6627 
6691 
6782 
6728 
6679 
6706 
6806 
6781 
6713 
6736 
6835 
6814 
6718 
6720 
6805 
6799 
6697 
6667 
6704 
6735 
6620 
6575 
6615 
6666 
6569 
6526 
6565 
6637 
6559 
6493 
6530 
6603 
6555 
6486 
6512 
6597 
6589 
6486 
6484 
6574 
6606 
6497 
6482 
6557 
6618 
6511 
6480 
6535 
6611 
6531 
6465 
6363 
6465 
6438 
6385 
6423 
6522 
6488 
6407 
6443 
6536 
6528 
6444 
6443 
6516 
6555 
6457 
6448 
6513 
6562 
6468 
6442 
6488 
6581 
6509 
6443 
6486 
6589 
6528 
6464 
6508 
6588 
6541 
6453 
6450 
6535 
6539 
6440 
6438 
6510 
6550 
6450 
6431 
6492 
6556 
6470 
6420 
6477 
6566 
6509 
6522 
6632 
6750 
6756 
6719 
6756 
6848 
6899 
6886 
6765 
6695 
6607 
6492 
6494 
6575 
6630 
6513 
6488 
6541 
6615 
6513 
6466 
6510 
6599 
6533 
6477 
6494 
6581 
6552 
6478 
6496 
6575 
6569 
6491 
6503 
6578 
6594 
6504 
6496 
6567 
6612 
6512 
6489 
6545 
6613 
6536 
6506 
6555 
6641 
6581 
6517 
6567 
6663 
6624 
6564 
6595 
6691 
6687 
6599 
6621 
6694 
6722 
6634 
6632 
6705 
6758 
6669 
6641 
6689 
6742 
6655 
6597 
6608 
6673 
6608 
6515 
6521 
6600 
6543 
6462 
6475 
6559 
6533 
6417 
6444 
6509 
6535 
6446 
6428 
6484 
6527 
6446 
6409 
6351 
6373 
6343 
6322 
6378 
6467 
6426 
6365 
6403 
6486 
6469 
6385 
6394 
6478 
6495 
6404 
6415 
6478 
6520 
6417 
6386 
6463 
6529 
6440 
6410 
6456 
6536 
6457 
6399 
6458 
6533 
6463 
6394 
6434 
6525 
6494 
6404 
6428 
6511 
6520 
6434 
6425 
6517 
6569 
6444 
6398 
6455 
6520 
6428 
6388 
6443 
6531 
6448 
6357 
6420 
6514 
6472 
6387 
6409 
6506 
6502 
6403 
6462 
6618 
6682 
6607 
6646 
6764 
6896 
6880 
6798 
6785 
6722 
6516 
6435 
6479 
6570 
6515 
6456 
6474 
6553 
6517 
6428 
6453 
6553 
6540 
6440 
6436 
6519 
6554 
6465 
6454 
6520 
6577 
6477 
6439 
6504 
6599 
6500 
6446 
6491 
6577 
6523 
6468 
6486 
6590 
6575 
6482 
6491 
6584 
6601 
6508 
6504 
6589 
6647 
6558 
6530 
6618 
6705 
6620 
6593 
6637 
6722 
6649 
6609 
6656 
6745 
6707 
6629 
6649 
6739 
6700 
6619 
6620 
6681 
6656 
6532 
6505 
6576 
6599 
6494 
6450 
6501 
6557 
6454 
6405 
6445 
6530 
6464 
6398 
6435 
6529 
6484 
6341 
6244 
6361 
6396 
6326 
6332 
6421 
6463 
6369 
6366 
6440 
6487 
6399 
6365 
6415 
6493 
6422 
6384 
6418 
6502 
6444 
6382 
6408 
6504 
6472 
6396 
6409 
6499 
6502 
6407 
6418 
6499 
6522 
6419 
6414 
6475 
6522 
6436 
6406 
6456 
6530 
6454 
6427 
6463 
6553 
6498 
6423 
6438 
6628 
6646 
6505 
6488 
6545 
6545 
6436 
6441 
6519 
6544 
6442 
6413 
6467 
6543 
6448 
6427 
6549 
6721 
6679 
6654 
6746 
6845 
6778 
6693 
6684 
6668 
6504 
6355 
6378 
6497 
6510 
6420 
6408 
6484 
6522 
6418 
6395 
6467 
6531 
6430 
6374 
6447 
6541 
6460 
6400 
6436 
6518 
6482 
6408 
6432 
6528 
6510 
6416 
6430 
6526 
6538 
6444 
6427 
6504 
6569 
6488 
6453 
6502 
6572 
6499 
6470 
6506 
6600 
6540 
6493 
6529 
6631 
6614 
6533 
6562 
6658 
6641 
6561 
6573 
6666 
6699 
6604 
6594 
6665 
6710 
6601 
6554 
6582 
6655 
6546 
6477 
6494 
6558 
6487 
6415 
6428 
6509 
6472 
6380 
6382 
6395 
6293 
6241 
6268 
6358 
6411 
6318 
6306 
6375 
6445 
6342 
6311 
6377 
6451 
6380 
6325 
6373 
6467 
6421 
6345 
6369 
6457 
6451 
6355 
6356 
6448 
6482 
6376 
6358 
6433 
6490 
6386 
6361 
6427 
6491 
6414 
6360 
6390 
6479 
6406 
6360 
6407 
6486 
6444 
6378 
6400 
6496 
6489 
6405 
6410 
6514 
6644 
6508 
6456 
6506 
6533 
6441 
6394 
6448 
6527 
6430 
6369 
6429 
6504 
6430 
6368 
6399 
6514 
6566 
6555 
6587 
6710 
6762 
6700 
6670 
6742 
6734 
6528 
6391 
6384 
6448 
6400 
6384 
6420 
6494 
6403 
6355 
6416 
6495 
6445 
6376 
6394 
6480 
6472 
6387 
6402 
6479 
6490 
6405 
6401 
6466 
6502 
6414 
6401 
6465 
6521 
6433 
6395 
6446 
6547 
6474 
6403 
6453 
6541 
6499 
6433 
6466 
6559 
6559 
6486 
6488 
6566 
6590 
6515 
6526 
6602 
6652 
6555 
6534 
6602 
6689 
6598 
6568 
6626 
6693 
6616 
6561 
6578 
6660 
6599 
6504 
6496 
6570 
6536 
6422 
6407 
6472 
6477 
6262 
6205 
6301 
6364 
6302 
6290 
6340 
6417 
6344 
6312 
6343 
6421 
6364 
6308 
6333 
6425 
6410 
6328 
6353 
6432 
6445 
6339 
6335 
6421 
6455 
6375 
6351 
6405 
6449 
6364 
6343 
6395 
6464 
6386 
6345 
6385 
6470 
6411 
6345 
6380 
6465 
6434 
6365 
6366 
6443 
6452 
6371 
6375 
6439 
6471 
6399 
6507 
6631 
6617 
6498 
6424 
6466 
6521 
6443 
6376 
6399 
6477 
6443 
6371 
6383 
6463 
6448 
6362 
6377 
6452 
6471 
6414 
6481 
6612 
6677 
6640 
6662 
6715 
6760 
6674 
6576 
6506 
6471 
6376 
6344 
6391 
6485 
6460 
6380 
6395 
6469 
6469 
6391 
6400 
6474 
6492 
6391 
6383 
6458 
6496 
6423 
6399 
6445 
6509 
6437 
6410 
6446 
6523 
6467 
6412 
6428 
6525 
6501 
6422 
6445 
6525 
6531 
6455 
6457 
6508 
6555 
6477 
6456 
6531 
6602 
6518 
6483 
6538 
6632 
6567 
6523 
6567 
6665 
6609 
6548 
6573 
6658 
6647 
6562 
6571 
6654 
6636 
6521 
6500 
6558 
6575 
6433 
6256 
6303 
6387 
6320 
6273 
6328 
6416 
6339 
6294 
6328 
6405 
6352 
6280 
6309 
6409 
6398 
6309 
6317 
6397 
6413 
6316 
6309 
6381 
6420 
6337 
6320 
6380 
6453 
6364 
6322 
6365 
6453 
6385 
6317 
6341 
6453 
6424 
6327 
6349 
6427 
6434 
6337 
6325 
6399 
6430 
6334 
6337 
6404 
6451 
6366 
6338 
6509 
6602 
6466 
6405 
6449 
6504 
6451 
6380 
6403 
6476 
6446 
6385 
6407 
6464 
6461 
6352 
6336 
6412 
6432 
6337 
6312 
6369 
6428 
6337 
6308 
6372 
6440 
6350 
6313 
6341 
6418 
6388 
6381 
6470 
6609 
6626 
6594 
6642 
6711 
6708 
6608 
6521 
6440 
6394 
6311 
6313 
6386 
6453 
6354 
6307 
6359 
6436 
6371 
6322 
6343 
6415 
6378 
6325 
6352 
6434 
6419 
6330 
6352 
6425 
6448 
6358 
6351 
6403 
6450 
6379 
6358 
6404 
6470 
6408 
6375 
6413 
6475 
6425 
6374 
6412 
6491 
6467 
6397 
6425 
6514 
6525 
6465 
6449 
6526 
6572 
6497 
6488 
6551 
6602 
6528 
6516 
6564 
6641 
6563 
6525 
6538 
6612 
6544 
6399 
6291 
6399 
6381 
6310 
6328 
6374 
6362 
6272 
6267 
6341 
6375 
6279 
6270 
6327 
6379 
6298 
6272 
6305 
6375 
6309 
6260 
6286 
6369 
6356 
6273 
6289 
6374 
6346 
6254 
6272 
6361 
6374 
6275 
6268 
6349 
6393 
6293 
6266 
6333 
6394 
6302 
6270 
6318 
6399 
6332 
6267 
6301 
6388 
6356 
6275 
6293 
6405 
6523 
6425 
6402 
6444 
6463 
6355 
6335 
6382 
6409 
6344 
6317 
6363 
6412 
6345 
6323 
6371 
6444 
6380 
6287 
6304 
6378 
6340 
6266 
6268 
6352 
6353 
6265 
6257 
6328 
6372 
6260 
6253 
6320 
6376 
6293 
6290 
6413 
6555 
6499 
6499 
6607 
6700 
6641 
6567 
6552 
6516 
6372 
6241 
6261 
6346 
6352 
6262 
6275 
6344 
6380 
6270 
6247 
6320 
6388 
6292 
6266 
6315 
6388 
6330 
6269 
6308 
6394 
6347 
6281 
6320 
6393 
6371 
6299 
6313 
6378 
6416 
6334 
6313 
6374 
6434 
6348 
6319 
6385 
6457 
6384 
6346 
6399 
6481 
6423 
6366 
6426 
6510 
6476 
6401 
6438 
6545 
6539 
6453 
6471 
6540 
6576 
6481 
6466 
6533 
6581 
6492 
6438 
6441 
6375 
6290 
6234 
6273 
6377 
6311 
6230 
6261 
6348 
6315 
6216 
6233 
6323 
6341 
6231 
6205 
6291 
6340 
6235 
6219 
6285 
6353 
6266 
6221 
6274 
6359 
6286 
6210 
6258 
6356 
6312 
6237 
6255 
6339 
6328 
6238 
6247 
6336 
6346 
6238 
6241 
6316 
6370 
6263 
6239 
6295 
6377 
6265 
6218 
6275 
6371 
6372 
6404 
6403 
6470 
6399 
6297 
6320 
6399 
6372 
6282 
6283 
6369 
6408 
6313 
6295 
6345 
6384 
6290 
6248 
6273 
6358 
6280 
6216 
6264 
6349 
6292 
6213 
6246 
6341 
6300 
6208 
6229 
6346 
6404 
6383 
6430 
6556 
6645 
6577 
6551 
6609 
6676 
6490 
6324 
6268 
6328 
6292 
6269 
6287 
6379 
6345 
6270 
6265 
6355 
6343 
6264 
6278 
6357 
6381 
6280 
6260 
6348 
6398 
6302 
6277 
6334 
6403 
6325 
6280 
6333 
6416 
6338 
6273 
6326 
6416 
6359 
6279 
6315 
6417 
6413 
6312 
6309 
6421 
6466 
6362 
6358 
6446 
6507 
6413 
6380 
6460 
6553 
6470 
6424 
6477 
6571 
6503 
6445 
6483 
6582 
6546 
6456 
6452 
6535 
6516 
6280 
6224 
6326 
6375 
6273 
6230 
6282 
6360 
6260 
6203 
6243 
6330 
6260 
6202 
6238 
6315 
6271 
6221 
6234 
6333 
6315 
6218 
6229 
6330 
6341 
6232 
6225 
6308 
6363 
6266 
6229 
6301 
6366 
6281 
6240 
6294 
6371 
6297 
6259 
6272 
6361 
6335 
6252 
6273 
6377 
6360 
6268 
6273 
6356 
6381 
6284 
6275 
6457 
6541 
6404 
6351 
6410 
6469 
6376 
6312 
6357 
6460 
6406 
6351 
6341 
6412 
6382 
6292 
6303 
6376 
6373 
6281 
6288 
6345 
6366 
6283 
6271 
6326 
6382 
6313 
6275 
6344 
6439 
6426 
6455 
6541 
6660 
6642 
6585 
6596 
6700 
6621 
6411 
6287 
6313 
6347 
6295 
6288 
6357 
6402 
6312 
6290 
6359 
6416 
6312 
6289 
6348 
6424 
6351 
6280 
6330 
6419 
6376 
6306 
6341 
6409 
6389 
6300 
6325 
6405 
6433 
6334 
6320 
6377 
6440 
6350 
6336 
6398 
6480 
6400 
6346 
6398 
6485 
6419 
6376 
6423 
6512 
6490 
6424 
6440 
6533 
6551 
6469 
6469 
6547 
6602 
6505 
6501 
6575 
6620 
6516 
6486 
6427 
6403 
6357 
6306 
6334 
6417 
6366 
6283 
6294 
6371 
6333 
6237 
6240 
6345 
6353 
6235 
6225 
6313 
6362 
6263 
6235 
6304 
6371 
6282 
6246 
6303 
6380 
6299 
6234 
6279 
6388 
6336 
6245 
6269 
6381 
6371 
6284 
6288 
6379 
6383 
6275 
6279 
6364 
6396 
6312 
6269 
6333 
6417 
6306 
6252 
6332 
6554 
6507 
6384 
6389 
6475 
6429 
6337 
6346 
6446 
6439 
6320 
6316 
6399 
6437 
6324 
6320 
6405 
6414 
6324 
6320 
6383 
6473 
6393 
6336 
6372 
6452 
6366 
6274 
6311 
6412 
6384 
6289 
6292 
6381 
6386 
6291 
6299 
6390 
6428 
6293 
6277 
6390 
6538 
6510 
6490 
6593 
6721 
6669 
6609 
6643 
6704 
6549 
6336 
6302 
6393 
6390 
6293 
6314 
6397 
6414 
6330 
6319 
6395 
6428 
6330 
6301 
6381 
6471 
6369 
6317 
6363 
6459 
6391 
6326 
6363 
6470 
6424 
6334 
6339 
6438 
6437 
6363 
6363 
6449 
6478 
6376 
6371 
6434 
6500 
6413 
6376 
6436 
6534 
6453 
6400 
6447 
6565 
6508 
6438 
6472 
6575 
6561 
6476 
6506 
6614 
6615 
6509 
6518 
6602 
6562 
6363 
6379 
6453 
6513 
6414 
6356 
6402 
6483 
6379 
6307 
6340 
6403 
6352 
6294 
6312 
6403 
6374 
6281 
6288 
6376 
6389 
6282 
6280 
6360 
6408 
6314 
6288 
6333 
6421 
6341 
6287 
6341 
6426 
6357 
6295 
6341 
6431 
6384 
6304 
6319 
6426 
6411 
6305 
6316 
6412 
6434 
6323 
6316 
6405 
6442 
6360 
6460 
6520 
6556 
6451 
6395 
6418 
6501 
6429 
6360 
6386 
6482 
6441 
6351 
6365 
6448 
6449 
6349 
6349 
6444 
6474 
6358 
6347 
6449 
6515 
6398 
6365 
6421 
6483 
6379 
6311 
6355 
6447 
6398 
6326 
6353 
6437 
6428 
6329 
6333 
6430 
6444 
6336 
6351 
6477 
6589 
6527 
6549 
6676 
6788 
6690 
6649 
6683 
6674 
6469 
6327 
6345 
6447 
6429 
6353 
6371 
6467 
6443 
6351 
6356 
6448 
6462 
6357 
6354 
6429 
6481 
6400 
6355 
6408 
6480 
6408 
6377 
6422 
6500 
6423 
6379 
6407 
6487 
6458 
6385 
6400 
6497 
6482 
6397 
6426 
6505 
6530 
6444 
6445 
6514 
6575 
6485 
6454 
6514 
6609 
6539 
6512 
6567 
6647 
6601 
6537 
6565 
6660 
6646 
6565 
6580 
6668 
6569 
6407 
6439 
6516 
6547 
6438 
6408 
6464 
6503 
6407 
6375 
6395 
6461 
6385 
6332 
6367 
6454 
6410 
6325 
6345 
6417 
6398 
6337 
6352 
6433 
6452 
6354 
6353 
6422 
6456 
6369 
6361 
6410 
6474 
6388 
6355 
6402 
6478 
6424 
6354 
6389 
6472 
6446 
6377 
6383 
6453 
6442 
6363 
6376 
6465 
6488 
6501 
6550 
6566 
6581 
6479 
6432 
6475 
6543 
6458 
6406 
6463 
6542 
6483 
6401 
6417 
6520 
6491 
6395 
6392 
6497 
6505 
6418 
6419 
6510 
6556 
6459 
6426 
6469 
6504 
6404 
6383 
6429 
6508 
6425 
6371 
6414 
6503 
6462 
6382 
6396 
6480 
6456 
6380 
6409 
6533 
6595 
6573 
6622 
6743 
6813 
6711 
6682 
6737 
6716 
6481 
6322 
6359 
6484 
6443 
6398 
6431 
6516 
6461 
6394 
6419 
6501 
6487 
6394 
6415 
6497 
6507 
6397 
6390 
6456 
6511 
6430 
6407 
6457 
6537 
6458 
6414 
6458 
6544 
6491 
6429 
6468 
6562 
6535 
6448 
6461 
6553 
6556 
6475 
6487 
6560 
6592 
6506 
6498 
6562 
6624 
6560 
6560 
6599 
6669 
6607 
6578 
6627 
6711 
6651 
6597 
6617 
6713 
6669 
6446 
6443 
6531 
6540 
6462 
6452 
6515 
6529 
6418 
6394 
6442 
6492 
6402 
6367 
6415 
6484 
6409 
6355 
6392 
6469 
6423 
6351 
6374 
6464 
6454 
6353 
6362 
6447 
6469 
6367 
6355 
6430 
6503 
6412 
6362 
6425 
6488 
6413 
6392 
6429 
6495 
6434 
6384 
6411 
6493 
6452 
6383 
6411 
6473 
6468 
6383 
6435 
6625 
6653 
6520 
6473 
6527 
6574 
6476 
6443 
6485 
6554 
6479 
6425 
6460 
6549 
6498 
6444 
6467 
6529 
6479 
6393 
6404 
6492 
6495 
6400 
6378 
6453 
6487 
6406 
6383 
6434 
6499 
6421 
6388 
6437 
6521 
6483 
6499 
6579 
6683 
6697 
6689 
6724 
6784 
6765 
6598 
6485 
6455 
6421 
6358 
6388 
6454 
6502 
6420 
6393 
6443 
6520 
6442 
6395 
6433 
6512 
6447 
6396 
6427 
6519 
6476 
6406 
6433 
6513 
6499 
6427 
6433 
6496 
6521 
6427 
6420 
6486 
6539 
6455 
6431 
6488 
6564 
6490 
6440 
6487 
6579 
6537 
6476 
6499 
6595 
6579 
6507 
6520 
6619 
6628 
6552 
6563 
6646 
6667 
6575 
6569 
6642 
6703 
6605 
6569 
6609 
6530 
6432 
6417 
6448 
6502 
6451 
6375 
6385 
6469 
6428 
6332 
6344 
6425 
6433 
6330 
6325 
6402 
6438 
6337 
6321 
6386 
6446 
6363 
6323 
6363 
6455 
6371 
6328 
6349 
6436 
6405 
6334 
6350 
6431 
6433 
6353 
6347 
6420 
6439 
6346 
6342 
6421 
6458 
6370 
6338 
6408 
6482 
6395 
6353 
6391 
6523 
6564 
6465 
6494 
6550 
6495 
6399 
6420 
6498 
6474 
6366 
6396 
6468 
6494 
6403 
6382 
6440 
6489 
6397 
6357 
6401 
6492 
6421 
6364 
6403 
6491 
6450 
6384 
6411 
6486 
6444 
6352 
6356 
6430 
6438 
6362 
6351 
6403 
6443 
6353 
6336 
6393 
6449 
6371 
6324 
6362 
6464 
6475 
6507 
6564 
6666 
6690 
6648 
6654 
6743 
6708 
6520 
6395 
6394 
6400 
6342 
6341 
6413 
6455 
6371 
6352 
6387 
6445 
6372 
6333 
6373 
6453 
6384 
6330 
6362 
6439 
6411 
6337 
6379 
6459 
6437 
6349 
6350 
6426 
6469 
6362 
6362 
6432 
6482 
6390 
6377 
6440 
6504 
6422 
6392 
6423 
6498 
6460 
6419 
6452 
6538 
6523 
6448 
6462 
6550 
6577 
6487 
6503 
6551 
6456 
6377 
6393 
6478 
6549 
6488 
6463 
6511 
6582 
6505 
6428 
6432 
6507 
6444 
6365 
6352 
6420 
6421 
6310 
6306 
6386 
6385 
6294 
6296 
6356 
6398 
6313 
6286 
6341 
6416 
6330 
6298 
6338 
6411 
6348 
6297 
6327 
6406 
6375 
6318 
6317 
6391 
6380 
6301 
6309 
6390 
6398 
6310 
6314 
6370 
6418 
6333 
6306 
6368 
6428 
6356 
6316 
6353 
6437 
6461 
6493 
6472 
6523 
6475 
6388 
6388 
6467 
6440 
6362 
6353 
6420 
6442 
6362 
6344 
6397 
6447 
6367 
6344 
6391 
6460 
6405 
6379 
6417 
6488 
6423 
6346 
6357 
6440 
6402 
6319 
6340 
6429 
6436 
6322 
6319 
6390 
6439 
6345 
6327 
6383 
6448 
6402 
6452 
6560 
6669 
6660 
6663 
6691 
6778 
6732 
6600 
6481 
6437 
6386 
6325 
6349 
6436 
6452 
6348 
6351 
6411 
6457 
6368 
6339 
6392 
6452 
6363 
6328 
6387 
6471 
6418 
6358 
6387 
6474 
6441 
6361 
6385 
6470 
6461 
6366 
6384 
6472 
6486 
6387 
6376 
6445 
6505 
6415 
6378 
6451 
6529 
6460 
6421 
6453 
6559 
6506 
6450 
6482 
6587 
6570 
6491 
6513 
6612 
6631 
6536 
6540 
6600 
6512 
6393 
6414 
6494 
6564 
6468 
6422 
6468 
6525 
6429 
6348 
6378 
6456 
6374 
6313 
6320 
6397 
6381 
6285 
6295 
6371 
6391 
6317 
6291 
6351 
6402 
6315 
6290 
6336 
6401 
6323 
6280 
6326 
6403 
6341 
6275 
6301 
6390 
6360 
6314 
6320 
6400 
6386 
6301 
6311 
6380 
6410 
6324 
6312 
6373 
6421 
6329 
6324 
6362 
6435 
6350 
6373 
6503 
6544 
6469 
6387 
6411 
6486 
6441 
6360 
6376 
6454 
6469 
6380 
6389 
6445 
6453 
6343 
6326 
6387 
6435 
6345 
6302 
6345 
6424 
6350 
6306 
6341 
6427 
6375 
6313 
6336 
6416 
6437 
6449 
6511 
6609 
6678 
6644 
6650 
6669 
6711 
6548 
6405 
6351 
6378 
6317 
6314 
6372 
6450 
6374 
6314 
6346 
6434 
6395 
6320 
6348 
6445 
6436 
6353 
6344 
6415 
6444 
6361 
6352 
6408 
6479 
6388 
6364 
6413 
6472 
6390 
6358 
6413 
6480 
6424 
6372 
6402 
6506 
6468 
6390 
6419 
6503 
6493 
6427 
6444 
6540 
6575 
6483 
6471 
6546 
6615 
6528 
6510 
6581 
6640 
6550 
6510 
6562 
6654 
6585 
6409 
6374 
6498 
6489 
6398 
6403 
6485 
6470 
6367 
6359 
6410 
6436 
6328 
6307 
6378 
6432 
6327 
6291 
6347 
6426 
6356 
6286 
6318 
6415 
6381 
6303 
6326 
6419 
6408 
6329 
6342 
6429 
6442 
6344 
6342 
6404 
6451 
6360 
6337 
6389 
6468 
6382 
6353 
6401 
6483 
6413 
6340 
6371 
6464 
6516 
6519 
6498 
6571 
6555 
6449 
6434 
6503 
6520 
6406 
6384 
6474 
6529 
6423 
6398 
6453 
6546 
6476 
6429 
6454 
6512 
6445 
6372 
6387 
6469 
6439 
6359 
6372 
6448 
6446 
6365 
6353 
6425 
6462 
6373 
6372 
6425 
6487 
6472 
6515 
6597 
6696 
6672 
6668 
6701 
6799 
6718 
6553 
6469 
6479 
6436 
6379 
6405 
6494 
6503 
6406 
6388 
6469 
6516 
6421 
6403 
6453 
6512 
6440 
6409 
6454 
6530 
6472 
6420 
6462 
6563 
6495 
6417 
6454 
6549 
6536 
6449 
6462 
6539 
6553 
6474 
6464 
6530 
6579 
6508 
6483 
6548 
6621 
6550 
6511 
6543 
6643 
6598 
6543 
6591 
6673 
6657 
6597 
6605 
6713 
6706 
6617 
6609 
6693 
6697 
6479 
6485 
6571 
6628 
6549 
6505 
6539 
6594 
6512 
6462 
6476 
6550 
6478 
6415 
6432 
6521 
6484 
6416 
6437 
6515 
6510 
6419 
6426 
6505 
6530 
6433 
6418 
6481 
6551 
6468 
6430 
6485 
6569 
6484 
6447 
6485 
6556 
6512 
6452 
6473 
6569 
6563 
6478 
6483 
6569 
6578 
6482 
6614 
6720 
6723 
6609 
6579 
6633 
6676 
6594 
6561 
6602 
6662 
6586 
6525 
6575 
6675 
6631 
6545 
6554 
6646 
6656 
6583 
6582 
6656 
6652 
6555 
6533 
6592 
6647 
6557 
6517 
6565 
6633 
6563 
6534 
6561 
6637 
6585 
6518 
6556 
6653 
6661 
6672 
6742 
6850 
6886 
6837 
6832 
6886 
6925 
6779 
6638 
6615 
6626 
6553 
6541 
6595 
6676 
6594 
6547 
6584 
6663 
6610 
6550 
6570 
6649 
6628 
6549 
6571 
6654 
6656 
6591 
6584 
6636 
6683 
6589 
6584 
6651 
6710 
6632 
6600 
6644 
6720 
6664 
6616 
6650 
6752 
6699 
6636 
6662 
6759 
6756 
6684 
6702 
6795 
6808 
6718 
6728 
6814 
6868 
6775 
6762 
6832 
6915 
6837 
6798 
6835 
6880 
6694 
6654 
6715 
6809 
6767 
6684 
6687 
6761 
6720 
6631 
6626 
6692 
6694 
6594 
6586 
6645 
6684 
6620 
6587 
6650 
6708 
6600 
6582 
6630 
6707 
6649 
6584 
6619 
6706 
6677 
6599 
6624 
6716 
6707 
6618 
6629 
6699 
6726 
6648 
6646 
6709 
6751 
6665 
6646 
6694 
6760 
6687 
6644 
6668 
6767 
6726 
6750 
6855 
6898 
6849 
6745 
6734 
6799 
6823 
6708 
6707 
6784 
6822 
6722 
6709 
6783 
6836 
6756 
6721 
6757 
6832 
6741 
6680 
6709 
6791 
6737 
6678 
6704 
6769 
6754 
6668 
6686 
6789 
6780 
6696 
6702 
6783 
6889 
6870 
6896 
6991 
7109 
7059 
7003 
7045 
7126 
6991 
6796 
6726 
6799 
6779 
6724 
6750 
6844 
6832 
6737 
6747 
6824 
6839 
6746 
6758 
6828 
6878 
6787 
6752 
6808 
6880 
6801 
6777 
6816 
6899 
6846 
6788 
6815 
6909 
6882 
6803 
6826 
6920 
6911 
6822 
6832 
6911 
6949 
6872 
6865 
6932 
6999 
6920 
6903 
6962 
7050 
6991 
6949 
6997 
7071 
7034 
6984 
7026 
7113 
7106 
7038 
7046 
7125 
7090 
6856 
6874 
6976 
7001 
6913 
6894 
6943 
6985 
6874 
6827 
6870 
6948 
6879 
6814 
6844 
6928 
6882 
6824 
6847 
6928 
6909 
6829 
6841 
6909 
6916 
6837 
6850 
6927 
6965 
6884 
6863 
6922 
6993 
6905 
6881 
6921 
6993 
6919 
6878 
6918 
7004 
6965 
6893 
6908 
6999 
6996 
6899 
6908 
6988 
7006 
6925 
6921 
6998 
7155 
7098 
7041 
7062 
7104 
7016 
6991 
7024 
7078 
7009 
6992 
7015 
7102 
7070 
6982 
6984 
7051 
7026 
6936 
6951 
7017 
7033 
6938 
6938 
6992 
7025 
6948 
6944 
6993 
7057 
6987 
6930 
7006 
7178 
7181 
7145 
7226 
7363 
7327 
7232 
7247 
7290 
7158 
6946 
6917 
7011 
7071 
6975 
6972 
7041 
7086 
6981 
6965 
7027 
7099 
7030 
6972 
7012 
7105 
7054 
6983 
7013 
7109 
7078 
6998 
7017 
7102 
7092 
7008 
7023 
7101 
7132 
7022 
7019 
7093 
7147 
7066 
7044 
7095 
7168 
7111 
7062 
7100 
7193 
7158 
7094 
7128 
7208 
7210 
7158 
7173 
7257 
7276 
7185 
7194 
7281 
7307 
7217 
7180 
7112 
7168 
7108 
7090 
7135 
7202 
7124 
7045 
7086 
7147 
7067 
6983 
7009 
7093 
7079 
6994 
6993 
7070 
7091 
6990 
6981 
7054 
7094 
7010 
6986 
7028 
7095 
7015 
6981 
7016 
7106 
7050 
6984 
7022 
7112 
7071 
7000 
7027 
7100 
7094 
7020 
7018 
7099 
7124 
7031 
7019 
7086 
7148 
7052 
7023 
7069 
7222 
7238 
7145 
7170 
7237 
7166 
7081 
7091 
7177 
7149 
7067 
7080 
7166 
7157 
7055 
7060 
7133 
7155 
7059 
7043 
7113 
7173 
7088 
7084 
7141 
7203 
7102 
7033 
7064 
7151 
7099 
7028 
7040 
7129 
7117 
7039 
7050 
7135 
7127 
7039 
7034 
7108 
7149 
7067 
7099 
7226 
7351 
7278 
7299 
7400 
7471 
7388 
7309 
7295 
7254 
7111 
7008 
7046 
7153 
7142 
7051 
7063 
7146 
7169 
7072 
7066 
7137 
7177 
7078 
7061 
7114 
7171 
7100 
7078 
7097 
7190 
7117 
7064 
7108 
7196 
7158 
7095 
7116 
7196 
7192 
7114 
7119 
7209 
7233 
7135 
7120 
7191 
7254 
7170 
7149 
7202 
7270 
7203 
7170 
7236 
7328 
7273 
7233 
7254 
7341 
7323 
7252 
7275 
7348 
7213 
7113 
7156 
7254 
7287 
7185 
7174 
7224 
7265 
7158 
7115 
7157 
7218 
7125 
7054 
7105 
7178 
7104 
7046 
7077 
7158 
7126 
7045 
7057 
7153 
7151 
7051 
7059 
7133 
7164 
7057 
7049 
7126 
7199 
7100 
7063 
7112 
7188 
7122 
7068 
7104 
7182 
7143 
7070 
7107 
7195 
7172 
7084 
7090 
7178 
7175 
7093 
7094 
7186 
7225 
7230 
7249 
7272 
7316 
7219 
7157 
7201 
7285 
7212 
7144 
7169 
7253 
7200 
7128 
7164 
7233 
7209 
7129 
7135 
7230 
7243 
7149 
7133 
7207 
7267 
7182 
7168 
7224 
7282 
7175 
7116 
7171 
7246 
7172 
7100 
7121 
7233 
7205 
7132 
7135 
7230 
7213 
7108 
7117 
7196 
7247 
7205 
7267 
7375 
7474 
7432 
7433 
7480 
7538 
7433 
7310 
7222 
7240 
7173 
7105 
7154 
7275 
7231 
7142 
7159 
7249 
7248 
7147 
7142 
7237 
7272 
7179 
7159 
7227 
7281 
7193 
7160 
7233 
7315 
7224 
7179 
7228 
7319 
7258 
7185 
7219 
7315 
7290 
7214 
7215 
7309 
7335 
7241 
7235 
7339 
7364 
7268 
7262 
7352 
7419 
7339 
7303 
7371 
7463 
7384 
7335 
7387 
7489 
7457 
7389 
7410 
7474 
7330 
7247 
7291 
7397 
7410 
7296 
7288 
7360 
7380 
7276 
7235 
7275 
7329 
7230 
7192 
7240 
7322 
7231 
7163 
7197 
7296 
7245 
7161 
7183 
7286 
7274 
7180 
7207 
7292 
7302 
7204 
7197 
7281 
7328 
7225 
7188 
7262 
7329 
7231 
7209 
7261 
7338 
7269 
7203 
7235 
7345 
7306 
7222 
7237 
7323 
7318 
7227 
7239 
7326 
7353 
7261 
7365 
7473 
7499 
7369 
7307 
7351 
7432 
7340 
7280 
7328 
7415 
7345 
7271 
7302 
7406 
7364 
7270 
7287 
7381 
7378 
7283 
7280 
7369 
7421 
7330 
7314 
7371 
7424 
7315 
7279 
7315 
7388 
7305 
7254 
7307 
7402 
7341 
7266 
7298 
7391 
7369 
7274 
7282 
7375 
7416 
7400 
7468 
7580 
7674 
7637 
7596 
7644 
7711 
7554 
7392 
7325 
7369 
7307 
7283 
7336 
7434 
7386 
7310 
7330 
7427 
7403 
7320 
7341 
7424 
7432 
7335 
7342 
7423 
7464 
7367 
7356 
7441 
7493 
7395 
7350 
7398 
7489 
7413 
7356 
7410 
7516 
7465 
7384 
7409 
7515 
7515 
7414 
7409 
7525 
7550 
7450 
7444 
7528 
7585 
7502 
7493 
7558 
7606 
7526 
7502 
7565 
7666 
7602 
7542 
7581 
7671 
7578 
7375 
7427 
7542 
7524 
7419 
7423 
7494 
7498 
7371 
7356 
7425 
7464 
7369 
7321 
7364 
7437 
7351 
7300 
7343 
7430 
7380 
7316 
7337 
7433 
7404 
7316 
7334 
7430 
7429 
7326 
7341 
7420 
7440 
7348 
7330 
7408 
7472 
7383 
7341 
7389 
7469 
7389 
7334 
7379 
7475 
7423 
7339 
7369 
7477 
7449 
7444 
7555 
7609 
7581 
7455 
7439 
7505 
7528 
7423 
7395 
7461 
7522 
7427 
7389 
7429 
7515 
7445 
7371 
7404 
7499 
7454 
7376 
7418 
7509 
7477 
7384 
7399 
7480 
7487 
7382 
7383 
7457 
7499 
7410 
7406 
7469 
7537 
7450 
7402 
7438 
7511 
7422 
7339 
7376 
7479 
7432 
7355 
7373 
7462 
7435 
7342 
7367 
7462 
7467 
7367 
7393 
7524 
7649 
7589 
7605 
7724 
7809 
7699 
7651 
7661 
7643 
7454 
7331 
7365 
7482 
7451 
7381 
7404 
7494 
7480 
7383 
7394 
7488 
7501 
7409 
7385 
7460 
7527 
7425 
7389 
7453 
7531 
7452 
7398 
7453 
7547 
7471 
7402 
7455 
7547 
7512 
7428 
7452 
7551 
7549 
7447 
7455 
7544 
7572 
7482 
7467 
7547 
7623 
7532 
7496 
7567 
7666 
7581 
7535 
7595 
7682 
7626 
7571 
7599 
7696 
7655 
7435 
7454 
7596 
7612 
7517 
7512 
7621 
7618 
7483 
7457 
7529 
7577 
7456 
7391 
7431 
7508 
7422 
7369 
7417 
7486 
7429 
7355 
7379 
7474 
7450 
7362 
7372 
7466 
7481 
7381 
7367 
7449 
7493 
7384 
7358 
7435 
7504 
7412 
7365 
7412 
7503 
7436 
7375 
7404 
7502 
7450 
7368 
7406 
7499 
7484 
7402 
7403 
7486 
7506 
7410 
7389 
7464 
7511 
7434 
7540 
7597 
7624 
7492 
7451 
7514 
7570 
7479 
7411 
7457 
7547 
7487 
7408 
7431 
7532 
7519 
7420 
7414 
7492 
7521 
7420 
7406 
7481 
7528 
7427 
7407 
7479 
7568 
7484 
7417 
7461 
7541 
7447 
7371 
7411 
7491 
7455 
7370 
7399 
7490 
7477 
7382 
7386 
7482 
7508 
7398 
7390 
7482 
7612 
7594 
7597 
7697 
7814 
7749 
7681 
7696 
7743 
7578 
7388 
7371 
7481 
7454 
7384 
7412 
7498 
7482 
7390 
7388 
7472 
7501 
7394 
7377 
7456 
7510 
7409 
7385 
7434 
7507 
7442 
7408 
7432 
7533 
7472 
7392 
7420 
7521 
7481 
7393 
7420 
7531 
7530 
7420 
7423 
7523 
7564 
7450 
7437 
7520 
7595 
7513 
7482 
7552 
7645 
7560 
7498 
7539 
7657 
7620 
7554 
7573 
7673 
7654 
7566 
7575 
7662 
7669 
7483 
7405 
7506 
7557 
7456 
7420 
7473 
7528 
7426 
7374 
7415 
7498 
7410 
7329 
7367 
7452 
7411 
7345 
7372 
7460 
7419 
7339 
7359 
7438 
7444 
7354 
7359 
7435 
7472 
7367 
7345 
7418 
7486 
7398 
7348 
7413 
7507 
7424 
7365 
7399 
7492 
7450 
7366 
7395 
7488 
7470 
7375 
7460 
7666 
7644 
7493 
7450 
7532 
7569 
7463 
7434 
7487 
7558 
7450 
7400 
7446 
7523 
7446 
7394 
7422 
7507 
7469 
7400 
7409 
7482 
7495 
7400 
7385 
7463 
7487 
7393 
7387 
7449 
7503 
7417 
7390 
7441 
7528 
7458 
7402 
7430 
7506 
7428 
7369 
7397 
7477 
7440 
7359 
7369 
7448 
7452 
7367 
7374 
7446 
7475 
7386 
7369 
7460 
7584 
7574 
7581 
7664 
7815 
7745 
7673 
7688 
7740 
7585 
7397 
7367 
7460 
7452 
7387 
7395 
7490 
7488 
7387 
7390 
7458 
7503 
7426 
7398 
7445 
7501 
7409 
7386 
7444 
7523 
7449 
7391 
7427 
7517 
7475 
7404 
7443 
7526 
7498 
7412 
7422 
7534 
7560 
7461 
7451 
7535 
7591 
7519 
7478 
7536 
7608 
7534 
7501 
7560 
7657 
7597 
7540 
7578 
7682 
7652 
7572 
7611 
7713 
7699 
7601 
7625 
7722 
7748 
7635 
7617 
7683 
7712 
7570 
7402 
7433 
7514 
7424 
7385 
7435 
7507 
7425 
7341 
7380 
7480 
7432 
7359 
7379 
7468 
7455 
7365 
7363 
7458 
7497 
7391 
7374 
7431 
7488 
7415 
7385 
7438 
7518 
7438 
7389 
7423 
7509 
7459 
7396 
7419 
7498 
7470 
7396 
7413 
7505 
7500 
7409 
7403 
7489 
7499 
7416 
7405 
7475 
7529 
7471 
7571 
7611 
7653 
7548 
7480 
7522 
7612 
7531 
7454 
7488 
7586 
7545 
7438 
7448 
7548 
7548 
7438 
7444 
7536 
7553 
7457 
7450 
7541 
7605 
7499 
7439 
7468 
7542 
7461 
7400 
7431 
7516 
7461 
7403 
7430 
7496 
7473 
7400 
7406 
7486 
7498 
7398 
7398 
7539 
7671 
7613 
7612 
7737 
7836 
7730 
7678 
7721 
7706 
7491 
7368 
7387 
7505 
7477 
7406 
7429 
7512 
7488 
7420 
7421 
7502 
7509 
7412 
7409 
7486 
7541 
7438 
7416 
7479 
7550 
7462 
7437 
7490 
7557 
7492 
7440 
7485 
7567 
7516 
7457 
7485 
7565 
7534 
7464 
7484 
7569 
7593 
7511 
7491 
7561 
7622 
7539 
7518 
7576 
7651 
7588 
7553 
7605 
7692 
7634 
7590 
7622 
7705 
7682 
7619 
7638 
7730 
7706 
7602 
7623 
7675 
7670 
7561 
7534 
7591 
7615 
7514 
7476 
7511 
7556 
7475 
7425 
7468 
7516 
7322 
7253 
7321 
7417 
7399 
7332 
7369 
7458 
7456 
7359 
7372 
7457 
7487 
7384 
7380 
7463 
7514 
7411 
7396 
7449 
7531 
7444 
7403 
7448 
7529 
7460 
7408 
7441 
7532 
7504 
7426 
7442 
7519 
7509 
7428 
7430 
7513 
7548 
7453 
7434 
7500 
7561 
7463 
7436 
7488 
7560 
7488 
7440 
7473 
7551 
7487 
7428 
7459 
7539 
7522 
7440 
7451 
7544 
7566 
7559 
7639 
7690 
7683 
7550 
7511 
7560 
7608 
7506 
7466 
7516 
7584 
7510 
7454 
7491 
7569 
7513 
7447 
7469 
7569 
7563 
7535 
7623 
7749 
7807 
7750 
7782 
7833 
7861 
7735 
7628 
7557 
7549 
7465 
7456 
7503 
7577 
7511 
7472 
7492 
7572 
7528 
7458 
7482 
7574 
7544 
7477 
7477 
7561 
7587 
7499 
7479 
7543 
7576 
7484 
7485 
7541 
7609 
7548 
7513 
7556 
7625 
7571 
7510 
7542 
7634 
7598 
7525 
7549 
7649 
7635 
7558 
7565 
7650 
7680 
7592 
7610 
7698 
7742 
7645 
7630 
7696 
7768 
7697 
7646 
7698 
7784 
7715 
7667 
7701 
7770 
7720 
7638 
7635 
7694 
7656 
7550 
7549 
7604 
7615 
7512 
7482 
7542 
7582 
7486 
7460 
7496 
7566 
7491 
7433 
7483 
7571 
7498 
7444 
7462 
7535 
7507 
7453 
7467 
7550 
7537 
7456 
7461 
7533 
7561 
7469 
7455 
7525 
7590 
7490 
7453 
7511 
7575 
7498 
7455 
7503 
7594 
7537 
7460 
7503 
7586 
7549 
7466 
7483 
7560 
7565 
7472 
7476 
7542 
7570 
7492 
7479 
7533 
7597 
7508 
7461 
7516 
7606 
7538 
7504 
7559 
7634 
7567 
7487 
7504 
7574 
7543 
7466 
7468 
7554 
7554 
7456 
7467 
7534 
7563 
7481 
7470 
7529 
7589 
7524 
7566 
7694 
7804 
7767 
7766 
7823 
7885 
7835 
7730 
7641 
7591 
7506 
7435 
7479 
7554 
7566 
7498 
7499 
7549 
7591 
7499 
7482 
7534 
7608 
7537 
7480 
7521 
7610 
7547 
7508 
7539 
7613 
7563 
7489 
7517 
7624 
7622 
7533 
7530 
7617 
7641 
7548 
7535 
7607 
7665 
7569 
7546 
7612 
7682 
7606 
7581 
7632 
7711 
7654 
7590 
7646 
7755 
7708 
7638 
7666 
7762 
7766 
7682 
7697 
7771 
7794 
7702 
7699 
7765 
7800 
7697 
7643 
7679 
7732 
7621 
7558 
7590 
7662 
7580 
7506 
7524 
7605 
7567 
7484 
7495 
7571 
7566 
7466 
7472 
7539 
7560 
7463 
7450 
7523 
7567 
7482 
7468 
7511 
7582 
7508 
7454 
7492 
7584 
7524 
7461 
7498 
7571 
7551 
7474 
7488 
7572 
7572 
7470 
7463 
7532 
7585 
7495 
7477 
7530 
7577 
7477 
7457 
7512 
7584 
7508 
7455 
7473 
7564 
7514 
7446 
7472 
7559 
7547 
7472 
7492 
7592 
7597 
7488 
7492 
7528 
7541 
7445 
7426 
7493 
7554 
7457 
7422 
7475 
7549 
7470 
7418 
7457 
7543 
7510 
7454 
7518 
7680 
7705 
7653 
7719 
7840 
7849 
7746 
7723 
7703 
7611 
7418 
7387 
7471 
7548 
7482 
7454 
7504 
7573 
7501 
7447 
7486 
7573 
7524 
7457 
7475 
7559 
7550 
7477 
7499 
7572 
7574 
7484 
7477 
7555 
7609 
7521 
7491 
7542 
7618 
7543 
7489 
7535 
7640 
7557 
7502 
7538 
7634 
7600 
7538 
7558 
7642 
7654 
7574 
7599 
7672 
7705 
7626 
7626 
7696 
7743 
7671 
7664 
7718 
7793 
7722 
7678 
7706 
