55317.12535823886,55314.66666634878,55304.34016041043,55327.36245719939,55357.96199535871,55387.6227602509,55417.61880130992,55456.712002362256,55483.73526140872,55550.18699767435,55671.601673555575,55783.22628536538,55877.908274878064,56001.088738571256,56156.79099044693,56254.60222418335,56360.16951324577,56452.66103180183,56544.504349768686,56655.3242987781,56832.528928819775,57010.33705596174,57166.73221191552,57303.234315304086,57376.21276095066,57428.64995344281,57516.939344041275,57606.81570849606,57669.24413075973,57711.623038246995,57809.523678961246,57929.86547110861,58039.14314975061,58133.959249730025,58223.70150371808,58276.65278633271,58286.82283005987,58362.55054027445,58418.42990141272,58441.47454994614,58472.92345439475,58511.36845485788,58533.72019931319,58535.06130398051,58535.53069061407,58490.1566493698,58459.601814699396,58452.80688438498,58471.67175670526,58544.20316746273,58603.23412456919,58648.78697976911,58680.437049917826,58712.444747977825,58704.50987869619,58740.22796633578,58734.59532673303,58684.1027360085,58688.08134652154,58720.71489342629,58783.43388836788,58843.82830188612,58853.88658689101,58869.01871788725,58896.46666007837,58890.56579954217,58922.3052766687,58986.03010011079,59040.188376925995,59095.73246189743,59142.402904320115,59207.60294289624,59257.80496094286,59257.64849873168,59290.93024622563,59375.88922690025,59420.68212278868,59450.36523942534,59430.91922174922,59403.314817346916,59401.01258766802,59420.1233291773,59474.4380682037,59512.05605412198,59497.750937670586,59520.10268212589,59548.26588013958,59541.04626668052,59586.2638457136,59615.254058272134,59657.543558781574,59738.56863243206,59827.305057919635,59913.04634965019,59988.707004631404,60059.65144153255,60155.875701412646,60179.81441972428,60177.735707489934,60163.631756738636,60164.01173639438,60196.1088414322,60164.03408813883,60165.12932361714,60208.514059604895,60240.14177800915,60237.83954833026,60237.459568674516,60260.7724381414,60208.98344623845,60211.44213812854,60204.02135896938,60196.60057981021,60224.1155772347,60188.68806227304,60107.30536071127,59968.4563241549,59846.48285466229,59728.95738231628,59595.495116173646,59421.91146873373,59214.554335421846,59007.53247827679,58785.11026920203,58624.66944750184,58423.90607880427,58218.44884377108,57978.36875657663,57752.77259978922,57521.14147199887,57314.92427765421,57097.03947270387,56913.44224374798,56781.85752413959,56624.03185654066,56487.41799442983,56322.462120349664,56199.706339801116,56076.14589645218,55963.91778754209,55860.11628629164,55720.46258693488,55607.988608835774,55514.98300015724,55430.20283343826,55345.199149274726,55323.20503273071,55292.09140444892,55259.74843022209,55260.620148255846,55295.93590449523,55310.12926222435,55357.42555349178,55405.48180407069,55445.044391756586,55497.101604592994,55594.19758250685,55707.610333873075,55819.77138754981,55929.80902550329,56018.634857968675,56172.571322032374,56287.97337865512,56377.78268787655,56496.671616634325,56589.92309450187,56726.112273468054,56891.44812720396,56991.15925921909,57145.095723282786,57317.67354222221,57498.9238380103,57695.4180235169,57859.03279292975,57979.21812286593,58049.06732428877,58146.811502791825,58201.975608107525,58298.84806857682,58402.71662506064,58455.35498325289,58495.610475016896,58534.05547548002,58575.16033353333,58620.0873398885,58711.48362296625,58803.43869965538,58815.218068983326,58815.79921433917,58858.08871484861,58926.9097360265,58962.24784401034,58934.7104948414,58925.72509357036,58940.65605886651,58985.53836173277,58956.39168696305,58924.22752669186,58936.47628265337,58964.415963222506,58961.80080912123,58968.23811152436,58985.650120455044,58965.466495211906,58938.84556756563,58928.98844826084,58938.7114570989,58962.650175410534,58955.43056195147,58949.95438455992,58956.995184063344,58951.20608224942,58979.83866689666,59011.01935041182,59027.738455264385,59049.151426452576,59056.28163293382,59088.69166239401,59098.23585727643,59157.222110893985,59191.08500374377,59182.54663736185,59197.47760265799,59267.08093489182,59296.78640327292,59315.003075003995,59353.02339232247,59396.028148654485,59431.254497916045,59520.460310037175,59598.333787719464,59592.63409288337,59629.96150612373,59720.888402567914,59827.32740966409,59870.220407273824,59919.438948564406,60015.61850495559,60103.77378508732,60188.06221342829,60256.52560669489,60316.27181962393,60343.585651348316,60367.88199757123,60435.18310012616,60527.02641809302,60576.379069850336,60649.58103294147,60696.564399786526,60779.55642694908,60827.12093914997,60854.814750530095,60884.22964623328,60902.89335285346,60948.66972549793,60984.47722011533,61006.650150615,61043.06114233269,61059.62378497408,61058.126218095575,61063.13300885356,61096.41475634751,61144.739227859885,61174.13177181862,61119.638218836575,61019.21183099888,60981.839714269605,60928.17317583242,60830.8089769851,60678.303024566536,60527.987543104595,60375.36983196376,60172.12541963165,59903.88213442351,59663.04208791758,59422.09028268937,59199.55631489233,58974.3177860162,58765.26192012572,58571.516999187115,58349.40771453473,58180.49558168597,58011.06935871475,57822.219469811855,57673.960348839806,57547.24830952267,57435.333125034944,57323.976734158605,57208.641732769225,57126.61083061824,57068.76451596791,57051.888948904154,57020.507099688904,57019.255401999406,57074.64302475966,57120.5311561264,57154.103476298274,57169.414421250156,57209.42404382516,57255.46863740309,57332.515100540535,57413.94250559122,57504.19884970175,57562.58160621901,57691.37235777049,57850.42737131446,57971.10443962866,58085.88064740666,58258.99490821301,58452.65042217379,58647.915261735354,58822.21416499784,59000.692844473466,59213.39204471017,59414.02130294101,59591.136526004855,59739.48505395473,59885.97838711481,60027.084949861164,60210.05632997231,60371.681794128635,60511.76017663004,60621.57429713897,60749.202757978775,60905.66496916592,61040.781264398254,61144.33689645969,61302.76606115891,61452.92508040966,61577.133724347805,61670.07227779297,61718.82143244999,61767.74940106266,61854.09418989351,61930.04541755265,61996.228932884806,62065.295823251705,62069.2520820203,62120.79520473423,62165.7222110894,62147.14791144704,62136.53083283077,62117.35303608812,62100.276303324266,62105.46190803789,62116.682483754455,62149.606603337124,62106.15481211601,62080.6514716925,62064.17823602894,62007.67302604592,61984.22604611231,61936.326257744586,61933.48758619876,61943.74703690375,61915.9638185458,61880.20102741731,61834.49171000621,61810.50828820566,61813.10109056248,61811.536468450606,61800.15943052286,61764.59780509446,61776.04189825558,61836.57042224055,61837.71036120777,61845.33230606703,61859.90564345189,61821.30418077757,61795.33145372051,61785.00494778216,61785.60844488245,61792.04574728558,61788.91650306184,61805.21092476975,61819.42663424333,61783.641491370385,61777.338299433985,61777.74063083418,61750.18092992079,61740.61438329392,61777.98650002319,61759.90393875885,61746.60465080794,61756.26060441263,61770.0292789971,61826.780358169126,61827.78618666961,61802.931046835314,61823.986390112215,61827.62972445843,61812.27407601763,61851.99312591471,61874.5013325812,61847.254556090185,61793.140982763885,61719.73785397266,61684.91383611129,61729.460862810716,61815.00098884118,61870.94740521281,61840.884308920424,61822.175898811336,61845.444064789306,61843.56651825506,61865.60533828799,61882.23503616274,61868.86869297847,61847.81334970157,61876.98237621575,61927.7655396182,61909.14653648693,61858.40807657339,61836.59277398501,61803.355729979965,61757.55700559104,61725.45990055322,61700.940036885746,61692.133449570356,61617.456271345174,61456.21078684459,61360.32180313132,61233.85563300319,61021.96109556688,60798.55540973609,60615.8075470695,60443.34148685235,60254.40219097164,60070.40263061555,59878.57995970011,59705.443347149296,59558.2571099111,59372.69292744314,59231.07227457432,59146.314459599795,59098.03469157633,59063.747115581886,58980.03983259676,58863.98957538481,58809.138394491485,58776.46014409783,58769.10642017203,58778.40474586544,58821.45420568636,58832.384208725,58889.4482123194,58993.428527525495,59138.357238573706,59334.82907233585,59584.31924394599,59744.670658668365,59852.78604659868,60012.422205498486,60185.223541882464,60355.9461660321,60492.11299325383,60629.82209084298,60803.584552238535,60948.17798711992,61053.63351746005,61065.18936934345,61132.713989342934,61313.13727058617,61503.864706023305,61707.55615324452,61913.08044351107,62075.91290186798,62171.287795458775,62266.39446811611,62403.6788825606,62585.19739928215,62747.269898327584,62864.19187357329,62995.70953794832,63169.941385977436,63261.874110922116,63312.38905339111,63365.273280772366,63443.59379334376,63503.80939290636,63507.76565167495,63438.810520030325,63355.14794053411,63294.798230504784,63218.422319701,63151.612955524084,63083.41778319095,62997.5200292492,62925.14508070292,62820.605971885445,62695.83853433592,62531.32969514486,62400.862562759234,62255.77738949983,62058.746762126306,61899.04354799313,61742.91661297281,61589.7401082206,61413.00486481248,61315.61831422071,61170.84606538369,60997.62004585505,60838.09564567753,60669.09410585095,60504.585266659895,60283.593569230274,60106.031311277315,59928.91608821346,59804.97566520878,59716.350998443486,59615.16465129431,59517.3981210468,59407.986331938075,59263.549359267876,59152.75176200292,59066.7422493389,58961.71140214341,58876.93123542443,58784.327958146096,58679.99001502872,58593.824040153515,58504.327655354464,58408.66218908575,58321.95977234361,58228.50712877597,58172.51600891543,58102.75621447041,58013.81862328275,57922.8693750941,57889.341758411145,57872.24267390284,57786.657844383466,57664.84083710204,57525.43300693429,57376.32451967293,57278.31212023641,57154.61756642075,57017.646076398625,56883.58031315569,56737.0422765067,56560.374088331955,56467.97197675371,56366.69622262671,56208.579982349875,56089.8922192922,56010.096491586744,55929.853728992195,55843.08425701669,55735.572366186665,55582.84289632356,55477.45442121678,55389.50030678515,55256.99916565409,55111.422254016674,54965.42065923461,54839.15565480658,54720.11026383761,54556.71901186932,54380.81078300605,54245.76154300709,54126.38087587129,54006.53082210194,53924.90225135115,53762.62858660562,53606.81457600768,53483.27648440319,53357.45851486427,53171.11202134038,52986.44190865063,52850.36448840672,52670.678814730505,52429.10116065755,52149.39143054384,51906.427968314645,51619.36451427514,51371.774240943705,51096.467804487685,50805.068112023844,50463.66756721349,50114.53331882159,49739.56045383936,49414.521385970285,49131.19067325481,48862.67916711321,48568.127878681174,48272.41429953746,47987.76483389912,47707.45160668512,47504.5648222643,47288.26699117029,47055.87590406846,46868.501230299626,46637.2053786761,46413.91145156759,46221.9099666965,46075.95307540335,45958.47230654625,45843.87491272389,45765.26382747458,45718.36986760734,45649.83941910737,45597.78220627096,45528.51415020396,45443.08578289578,45400.72922715297,45378.26572397539,45393.688427649555,45423.84093091976,45422.79039893036,45447.08674515328,45493.019580008935,45529.20705428208,45566.02037739997,45664.34570125886,45804.625249460376,45918.6862014158,45990.6588185619,46098.237764625286,46190.90809713699,46275.21887722241,46396.03005600334,46545.69733687608,46711.882556901284,46801.378941700335,46848.27290156757,46914.88110004438,46906.029809240084,46901.93944000476,46854.53139001506,46868.23300936616,46860.722823229175,46867.98714017715,46834.727744427655,46847.60234923391,46875.51967805859,46835.353593272404,46794.00286603008,46746.43835382919,46730.6803739882,46706.093455087364,46649.00709974851,46591.63017173173,46559.53306669391,46539.081220517306,46527.748886078465,46499.45157759805,46411.922146311066,46401.61799211717,46399.963963027476,46405.03780901883,46435.883216367154,46449.5624839738,46431.345812242726,46403.8531665627,46431.09994305372,46466.86273418221,46445.49446648294,46478.50799304342,46534.96849953753,46587.65156121869,46641.69807931162,46672.7670041045,46691.81069038042,46734.83779845689,46793.53347939652,46896.4185591243,47001.8964412089,47103.79804418064,47215.243842034804,47375.930532924,47512.79026422385,47657.11547817176,47811.5883841024,47950.325661936484,48066.95706450428,48270.35793904757,48456.59267384919,48593.027722004386,48758.74355539603,48939.03272617254,49115.11976899145,49271.85020111206,49405.49128121034,49540.11583806465,49683.88225840119,49860.14811517574,50042.225425508674,50266.86045728451,50474.39640455203,50634.993688463415,50814.83582435082,50998.723625984625,51199.509346426654,51372.02011013271,51546.117847695095,51740.17569305607,51962.62025387529,52143.17764558526,52344.29864219411,52626.712933386916,52872.73858460648,53104.257953674554,53301.26622930363,53524.470749434324,53774.56441814476,54048.88737784474,54269.76731655208,54467.40144102591,54651.490408359816,54857.506437004384,55022.6858285291,55219.47058671363,55378.81617293551,55499.627351716445,55645.606594754056,55763.78026768926,55790.80352673573,55784.96972143289,55823.68294282949,55865.614815427645,55939.10735119669,56001.647532182644,56045.56871003732,56063.584216068295,56120.58116442933,56180.64030178074,56248.0755148024,56335.403780389286,56472.17410471131,56567.25842562419,56610.01731276719,56719.31734315364,56828.90794621801,56929.96018290045,57017.73548337645,57142.36881045924,57289.06330931942,57440.250508815116,57589.06842339855,57764.551969117165,57979.240474610386,58145.82802603579,58338.16478707371,58564.78912410607,58780.59521682206,59036.768560024335,59244.55037648087,59471.57704491342,59686.26555040664,59918.29900959719,60066.49107533587,60243.181615255075,60441.55334729593,60663.17089357029,60910.15766980144,61144.046323781775,61316.51238399892,61465.15148462672,61618.52915507903,61732.813624479015,61884.82783851956,62001.70511027636,62052.018887045255,62078.796276902714,62165.81161806722,62265.098066937695,62353.968602892,62438.45819693306,62483.65342422169,62522.14312817373,62622.79303345598,62674.760839314564,62709.20487752019,62784.44084935675,62833.39116971388,62824.29400972057,62797.740137307665,62719.21845903617,62694.273912224045,62723.711159671686,62678.337118427415,62603.458774502134,62524.3559508748,62441.22981324552,62387.943254464066,62318.026997807865,62246.568470784245,62192.56665618023,62106.132460371555,62023.58746809811,61956.12990333199,61877.0047279602,61802.796936368584,61742.31311587252,61630.1967656847,61450.89107166423,61322.18972709057,61254.486293135444,61174.645861941084,61073.303052580726,61026.16322352448,61008.147717493506,60967.35578386257,60916.03617859318,60856.37937264197,60773.16382803486,60759.08222902802,60731.00843799215,60703.605199289945,60660.51103598011,60578.77070650706,60531.429711750716,60502.01481604753,60471.43762963267,60470.051821476445,60467.1237429528,60390.59136993783,60282.900665152156,60240.23118498697,60219.46641438799,60155.160445590074,60139.2460035379,60185.40235583811,60187.57047505027,60156.47919851294,60119.62117190614,60105.22664847692,60095.59304661668,60030.68358071847,59957.28045192724,59896.930741897915,59859.804494357646,59807.859040243515,59751.44323723832,59731.594888162006,59627.94984912275,59512.03370237753,59446.31957367892,59402.532506290976,59309.99628424601,59199.89159105916,59127.159014601595,59031.5829553107,58905.76498577178,58794.54270536217,58599.14375533388,58405.30942741745,58220.95223915008,58056.130475536644,57888.581799099666,57707.935000411875,57501.494288622656,57254.41810541369,56988.27588418435,56700.98891270029,56382.05187106751,56047.35684959374,55767.110677613106,55429.95696424925,55062.0472505149,54766.71365102693,54436.77955112214,54018.75722631899,53612.424863865956,53189.552210516005,52792.942856901034,52376.440450720846,51991.163431544715,51585.97100805891,51211.534584943605,50874.67144425767,50591.05015886428,50299.51635593371,49983.23917189112,49682.80937466733,49423.819711663695,49164.47242074877,48915.18341483873,48697.70094128859,48475.703415358475,48268.54744774669,48104.73151263375,47978.75708088363,47838.38812570431,47697.259211213495,47650.834637979824,47602.37605600072,47545.64732857315,47508.54343277734,47549.067145474815,47628.61700399125,47661.13879217372,47665.00564396449,47687.3573884198,47779.73714825358,47924.04001045704,48085.77723333565,48215.283240709694,48392.66668470701,48616.13942577117,48846.4294488942,49067.39879457936,49312.70918997636,49563.0487278758,49903.175223252205,50227.43198006535,50575.649806934576,50905.94153475065,51234.0427916101,51530.113998665096,51951.13145722526,52343.561034627084,52653.64678545556,52995.337902943844,53341.74523851219,53675.412079741014,54025.26158395548,54381.41428010634,54700.2619147613,55012.851060968766,55291.510259093084,55558.43479137836,55810.9200967455,56072.122582450225,56353.352231186895,56686.907313693446,56985.32545391625,57191.81086919438,57393.71417685917,57605.94399046231,57835.63051648504,58076.93994962454,58276.27280667696,58468.31899503696,58697.223210003765,58862.11202885056,59020.049455171764,59183.53011411788,59337.19835724811,59451.23695745909,59578.21721770969,59783.49563878723,59961.25906244029,60073.800095772756,60186.81051573879,60310.32625559882,60400.73906192053,60484.26753095002,60550.294584070994,60567.12544764584,60632.25843098861,60698.39724283186,60692.362271828926,60702.7781847451,60710.601295304456,60670.99400412965,60684.181533358285,60732.10367347046,60766.77122912064,60772.6944414013,60792.542790477615,60782.596264195,60778.1482670484,60762.83732209651,60772.962662334765,60826.24922111622,60842.63304980195,60850.18793942785,60855.93233775286,60827.43386357235,60829.22200312877,60870.93035828238,60914.315094270125,60924.84276590857,60966.52876931772,60978.06226945666,61027.03494155824,61023.45866244539,61005.26434245877,61024.86682234608,61026.05146480221,61092.12322141209,61137.34080044518,61167.58271069321,61153.6352221531,61123.39331190507,61111.748053043855,61100.81805000521,61128.75773057434,61188.079260358725,61204.15016462209,61212.57677228174,61284.75055512793,61405.00294029748,61418.61515267076,61388.46264940056,61399.10207976128,61405.852306586785,61404.53355366392,61375.74450680549,61365.19448342258,61336.85247145325,61295.05470932183,61246.48436862044,61107.121241941604,60948.96029817585,60799.47183125876,60642.38377122686,60434.0655129034,60208.961094494,60001.33574024865,59797.77840349417,59526.83055720694,59252.373487040226,58980.46451574141,58730.080274353066,58494.87286744987,58266.505094349995,58000.38522486511,57796.649074154986,57541.123931541915,57370.64717658129,57203.21025886658,56995.964884276975,56809.97601866437,56664.801438427145,56564.084477911536,56419.24517384114,56308.02289343154,56221.18636622267,56150.86777816627,56111.34989396929,56110.835803846814,56114.61324865976,56101.001036286485,56084.90778027866,56018.45604401303,56002.496898471945,56015.215041067015,56044.629936770194,56075.117716207234,56093.4908501495,56148.49849325401,56187.39052860624,56271.72366043612,56343.74098107112,56413.29960981603,56473.93989252328,56528.61225946096,56617.16987099289,56707.35915987005,56817.37444607907,56976.809439278775,57099.63227506069,57170.26378753946,57311.750329941555,57483.05409944703,57557.93244337231,57608.715606774764,57703.0176166317,57794.548010176186,57841.82194969916,57917.66141863602,57973.80900070775,57969.94214891698,58027.92257403405,58155.75220057395,58191.85026786927,58213.307942546366,58224.79673919639,58275.06581247638,58301.61968488928,58314.15901352871,58313.77903387297,58331.88394688177,58382.55535156195,58369.546636288964,58312.54968792793,58296.97052204258,58298.512792409994,58239.19126262561,58223.5450415069,58264.269919904465,58336.555461472926,58413.62427635483,58440.62518365684,58444.13440753632,58437.27242198854,58388.277398142505,58357.63315649428,58315.27660075147,58281.86074279079,58306.40295820272,58355.30857507093,58400.660264570746,58384.432898096195,58369.25606361104,58348.848920923345,58384.924636474214,58419.27926770202,58435.57368940994,58453.164512296265,58455.399686741795,58431.08098877442,58434.88078533182,58454.52796870804,58427.54941315048,58446.1460645373,58483.24996033311,58485.99922490111,58465.14504732431,58423.727264848625,58407.99163675209,58434.59021265391,58392.50187784456,58343.41744702071,58310.73919662705,58258.123190179256,58246.14265515121,58242.70048650509,58218.71706470455,58256.53621632293,58241.91817544916,58209.239925055495,58215.16313733615,58253.09404767681,58301.37381570027,58358.54957801695,58423.861375315355,58463.96040486818,58500.01376867459,58569.10301078594,58655.626613572436,58751.40383856343,58861.24031081681,58935.64926810852,58977.37997500658,59004.78321370879,59099.264037521374,59188.55925662032,59264.26461509045,59406.89109645976,59516.45934777968,59563.91210125829,59635.59414572646,59729.694989883305,59838.615040614015,59912.174631616435,60004.59909493913,60067.988642214375,60115.866078837644,60192.19728615252,60242.04167628785,60256.57031018381,60262.64998467565,60217.58886785375,60133.769826146345,60062.15483691154,60023.15104283703,59913.02399790574,59738.54628068761,59504.165888329255,59257.38027779821,58947.987431047855,58658.53234035162,58404.52711636152,58115.20613613202,57878.63527281705,57619.578554580046,57310.05159736295,56974.88718925562,56665.44963901635,56436.23249962718,56144.54223448542,55858.99869906887,55620.706751430844,55410.37683610641,55167.771001788504,54940.05142927783,54788.305436170755,54645.61189956807,54489.35085408102,54362.70586999725,54235.323278346455,54106.84545121735,54010.37532214825,53930.646649676164,53849.73333474795,53749.86574052164,53659.78821036676,53643.00205028082,53695.685111961975,53699.68607421948,53710.861946447134,53724.854138476156,53741.685002051,53747.40704863156,53799.084281812226,53889.22886720048,54009.68241807013,54084.314892806404,54131.25355616255,54239.05601967049,54334.60972721693,54464.11573459098,54565.4808956958,54656.40779213999,54808.04202652479,54955.317670740806,55138.98195493007,55300.540363853026,55382.325396814995,55530.98684918724,55639.951603406866,55724.374142214554,55840.98319303789,56042.126541391204,56204.78018579247,56295.95295142567,56316.06952143545,56371.94888257371,56459.72418304971,56537.575308987536,56604.58583886455,56613.90651630241,56641.75678989373,56731.65550609297,56786.21611430837,56814.24520185533,56846.27525165978,56895.78436562829,56968.82986650823,56993.37208192016,56999.56351513428,57037.04739058583,57107.45538562005,57190.02272963795,57226.8584045003,57205.53484028993,57247.936099521656,57266.77862009747,57256.25094845903,57242.10229421882,57211.927439204155,57254.082829246865,57307.972885128605,57380.37018541935,57424.85015688541,57450.107628119906,57521.87907956589,57592.80116472259,57622.417226125865,57677.55897969711,57723.71533199732,57771.056326753656,57791.4411176969,57886.50308686532,57993.81381199525,58110.802842474324,58171.89016007068,58158.009726763936,58153.27115693941,58222.15923335066,58325.848975878835,58354.88389192628,58431.17039575224,58535.28482142506,58612.64420898488,58674.53618938162,58738.730399457265,58790.78761229368,58842.889528619,58930.10603548361,59032.16410066654,59159.05495393932,59233.709780420046,59263.884635434704,59303.603685331786,59363.19343604964,59444.3302684224,59497.63917894831,59582.061717756005,59738.74744638771,59798.44895582783,59858.01635480123,59946.685725055424,60048.475569304894,60133.143977301595,60219.19819345453,60339.89761351319,60396.782803151946,60448.01300144351,60493.40939443224,60537.867014153846,60609.77257606656,60708.857859236945,60801.66230221538,60847.12575043747,60857.80988428711,60935.25867882475,61041.071837076175,61194.8965424176,61317.38410203268,61409.897972333194,61409.24977174399,61464.9056154377,61529.05512202444,61562.09100032938,61558.402962494256,61558.44766598316,61527.31168595692,61492.55472332892,61470.00181317351,61460.88230143575,61430.595687698806,61386.78626856641,61417.67637940364,61426.39355974121,61391.63659711321,61370.693012558586,61357.05844844085,61386.85332379977,61398.43152742762,61323.8214044358,61309.024549606394,61380.95246326357,61470.49355155153,61491.70535703962,61527.289334212466,61547.070628055415,61613.09768117639,61749.35391537594,61883.08440245204,62070.99551808781,62227.10010136368,62369.72658273299,62575.96612882211,62756.97055542118,62989.9651396233,63202.15024973753,63416.726996508485,63641.85376666234,63877.1282287989,64082.29489115416,64278.45380049394,64479.21716919151,64707.6743492692,64944.42402653981,65171.60715718355,65408.60270364317,65639.27270642194,65875.39653484781,66062.95002257229,66276.23036816482,66526.99458920892,66830.50892716752,67114.53254396112,67337.13356699153,67565.14371218011,67830.39186363123,68068.03561068006,68275.75037190322,68499.62544436759,68766.12529350822,69005.98186325812,69215.93179892682,69389.20252194435,69517.47918337336,69639.5867633327,69777.94406151105,69911.36162416478,69983.78127619998,70066.08039928442,70128.21824887017,70182.30947045202,70186.80217108753,70206.96344458622,70256.91959344383,70296.1916084518,70231.55036348705,70143.19391765523,70131.57101053846,70024.34969238636,69925.66674061617,69804.85556183524,69707.98310136594,69754.20650889952,69784.82839880329,69673.11438001566,69415.21995249033,69158.53251916559,68952.31532482091,68782.71028789405,68666.97295510447,68519.71966263291,68350.94164025088,68174.51932126515,67976.19229271321,67771.51736873596,67513.17590632151,67283.17645587641,67030.2217638757,66799.84233377485,66578.26949098939,66345.74429342084,66087.76045891768,65806.12847878081,65526.44110041155,65279.23080673585,65076.74635371523,64823.54579252551,64562.14214112069,64256.07970429417,63946.37393312144,63639.35037128334,63387.89324616114,63145.5556327767,62873.57960624452,62633.8347952169,62372.43114381208,62122.04690242373,61881.27391115116,61646.49118739262,61391.323672690836,61179.429135254526,60983.42668812593,60753.248423725185,60525.126519814316,60335.382561133214,60187.57047505027,60047.290926848764,59887.207733059855,59751.04090583813,59616.103424561436,59522.60607750489,59435.36721889582,59294.28300789392,59185.00532925193,59155.411619593106,59136.68085773956,59130.06474138078,59148.99666893443,59187.19580020855,59211.84977434275,59225.43963497158,59220.09756804676,59238.381295011204,59296.13820268372,59381.41010778071,59457.115466250834,59490.35251025588,59562.99567973563,59545.002525449105,59522.96370541617,59517.24165883561,59485.658643920266,59389.389680551256,59303.78249928743,59198.1705067361,59022.374036595116,58835.22288027083,58644.56250006706,58399.58738083689,58162.345965188266,57957.96161388894,57707.86794517851,57448.922985663776,57220.66697128618,57002.58100063575,56775.50962871428,56545.845454436,56250.80242762595,55998.5182879589,55789.48477381287,55568.694242083344,55378.7714694466,55224.85735712735,55063.50011390449,54929.83668206176,54750.285118852276,54591.587733219596,54438.85826335648,54287.827526071975,54171.710213626655,54074.16720082369,53976.13244964272,53940.369658514224,53900.4717946615,53841.35143057721,53794.79274687681,53725.56939429872,53716.40517907205,53732.744304268876,53712.605382514645,53682.60934145562,53716.91926919452,53721.25550761885,53714.549984282254,53733.8842432361,53751.31860391124,53775.391432689605,53818.28443029934,53907.602001142746,53917.794396614365,53955.56884474383,54005.36853139026,54025.395694422215,54032.727066603555,54067.260511787004,54136.64032657628,54162.613053633344,54176.471135195636,54177.40990846275,54170.88319908181,54150.99014651658,54111.919297208704,54111.85224197534,54112.9251257092,54079.88924740425,54038.71733411757,54042.18185450815,53997.433662108626,53952.05962086435,53975.39484207569,53959.41334479015,53907.311428464825,53858.159942407605,53783.281598482325,53730.59853680117,53666.80665812572,53572.19172384641,53541.52513045372,53483.76822278121,53368.61203534747,53290.3809297539,53216.955449218214,53190.870963438865,53159.28794852352,53074.08309865989,52992.141603486736,52920.86189041876,52858.23230245499,52812.232412365964,52714.19766118499,52639.4757794709,52541.64219399002,52426.374247834,52346.19854047281,52316.13544418043,52295.10245264798,52253.63996668339,52197.76060554512,52106.9007643343,52052.11663867434,51990.6716931667,51915.12279690776,51852.962595577555,51828.912118543645,51834.79062733539,51879.15884007917,51919.95077371011,51944.69415482214,51941.00611698701,51957.97109102859,51963.3131579534,51951.82436130338,51911.56886953937,51886.78078493843,51887.58544773882,51888.63597972822,51873.61560745426,51785.61678953371,51776.63138826268,51810.47192936802,51845.27359548493,51827.2804411984,51843.15017976167,51857.298834001886,51860.20456078107,51825.87228129772,51778.575990030295,51786.84613547876,51771.95987367152,51771.42343180459,51750.54690248334,51772.9209986831,51836.84698782528,51826.6322406092,51809.64491482317,51808.61673457822,51819.63614459469,51833.807150579356,51832.957784290054,51768.11537362521,51703.92116354957,51613.441301994484,51502.39783554052,51342.38169698497,51170.362671656934,51030.77602753354,50866.89303718723,50746.506541550945,50599.141490357106,50418.94172655842,50247.6603087974,50046.561663933004,49813.81294891989,49578.06910014977,49352.96468174037,49130.92245232135,48910.131920591826,48678.724310246034,48492.467223699954,48300.733959762336,48112.71108540429,47896.27914384355,47753.00446188504,47652.71218451407,47601.79491064488,47545.46851461751,47470.34430150322,47363.927646151504,47308.94235479145,47317.436017684464,47338.0219743278,47355.38927976957,47381.183192871,47370.297893321265,47352.70707043494,47446.47263842495,47575.66572137663,47625.15248360068,47670.81709752287,47770.14824988225,47906.31507710399,48053.523666086636,48159.13565863796,48336.89908229102,48500.78207263733,48579.102585208726,48678.724310246034,48841.31089941393,49031.636003450876,49277.39343373697,49473.9770262214,49664.525647702896,49888.24425795606,50159.952063554774,50475.44693654143,50789.60070486077,51066.24824598411,51358.96669137081,51605.21586003493,51850.41449670965,52125.47506397666,52443.04864919766,52746.16065575608,52998.86947856778,53254.79695258105,53546.26370027825,53842.40196256661,54104.54322153846,54318.51647120911,54508.103967679024,54668.63419635704,54787.45606988145,54938.30799321032,55057.88982604621,55167.9721674886,55280.669663032255,55324.76965484258,55370.21075132021,55429.97931599371,55474.01225257066,55472.33587173651,55453.58275813851,55395.311760343524,55371.64126296536,55345.22150101919,55356.8667598804,55359.77248665959,55307.46940463417,55291.75612828209,55315.560736126994,55312.81147155899,55341.66757365079,55430.47105437172,55560.22293093478,55678.75423178128,55788.41189007901,55935.3522581282,56082.69495757759,56287.034605388006,56522.15260531338,56696.049177175664,56852.39962964054,57007.45368092701,57180.5455899889,57296.662902434226,57415.52947944755,57540.47573095271,57575.85854242546,57683.459840233314,57769.46935289733,57793.58688516461,57879.30582515071,58009.28121915832,58069.228597787456,58167.26334896843,58322.38445548826,58515.592934559936,58657.19123568431,58768.83819923857,58849.97503161133,58897.69600602341,58923.73578831385,59000.67049272901,59109.14350857062,59141.08415139725,59125.952020401004,59146.80619797781,59115.84903190721,59113.658560950586,59111.6022004607,59068.37392668414,59077.91812156655,59119.17944183105,59127.159014601595,59129.12596811366,59167.95094823253,59198.50578290293,59151.12008465768,59124.90148841161,59119.26884880887,59070.385583685114,59048.05619097426,59055.52167362234,59036.45563560196,59056.907481778566,59058.96384226845,59090.05511880579,59054.940528266496,59049.6878683195,59008.76182422183,58961.51023644331,58866.98470914182,58733.43303602136,58560.13996125937,58395.56406683494,58170.63846238118,57917.52730816929,57670.875808104975,57353.10105718387,57043.6635069446,56769.96639608937,56551.05341089409,56305.49714630809,56005.22381129549,55742.300241267716,55507.964552398276,55279.73088976513,55077.179381511145,54923.73465582546,54720.82551966018,54532.17679645739,54326.339581768465,54130.98533522908,54048.55210167791,53960.26271107945,53839.89856718762,53708.09033013467,53588.441442065414,53508.71276959334,53418.41172199389,53335.576157042524,53226.70080980073,53125.49211090709,53025.51275795851,52987.24657145102,52973.65671082219,52921.06305611886,52892.8328028718,52921.66655321915,52948.75686749898,52962.59259731682,52957.451696092096,52964.224274662054,53013.39811246373,53097.15009893777,53155.510503710575,53271.71722313371,53446.84314094105,53495.39112989797,53590.207229877386,53683.950446122944,53724.071827420215,53830.5555380053,53950.04796386337,54066.500552475525,54171.62080664883,54212.882126913326,54260.133714691845,54415.18776597831,54620.53324228922,54780.951712244954,54880.61814077117,54933.94940304154,54960.16799928761,54930.06019950631,54840.742628662905,54790.94294201648,54810.254849225865,54807.885564313605,54795.81562230774,54836.38403849412,54830.885509358115,54843.08956183071,54878.31591109227,54919.01843774539,54932.451836163025,54905.115652694185,54900.86882124768,54889.312969364284,54849.30334678929,54855.830056170234,54842.843692641705,54834.77471289333,54818.05560804077,54820.737817375404,54875.85721920219,54919.86780403469,54942.84539733475,54962.00084233294,55025.65861054166,55047.89859627469,55061.75667783698,55097.921800365664,55125.682666979155,55145.4192573332,55224.14210130479,55255.03221214202,55278.05450893099,55341.220538761685,55377.87739966839,55431.78980729459,55493.480621991235,55565.45323913732,55668.56183630966,55701.41890065896,55768.854113680616,55858.64107115759,55921.2483073769,56018.67956145758,56092.462669904555,56111.72987362503,56153.05824912289,56256.61388118433,56316.315390624455,56387.23747578114,56479.9301600373,56606.32927493206,56702.84410749008,56819.09553040213,56927.188566587996,57040.28839353185,57162.99947059149,57306.96705662812,57472.03468943056,57597.51738280265,57666.539569680644,57749.95627998785,57785.49555367179,57838.223318841854,57905.5691248857,58000.60874230966,58062.16544653958,58099.3140458243,58104.56670577129,58117.57542104428,58208.94935237758,58277.546856110916,58296.90346680921,58372.69823225716,58460.40647749978,58547.77944657558,58670.22230270175,58812.89348755997,58857.865197404055,58850.57852871162,58813.72050210482,58777.28715864267,58765.8207137371,58730.81788192009,58650.66452630336,58564.319737472506,58495.96810292818,58342.143397586755,58176.96400606204,58000.564038820754,57801.96878933535,57559.3853067619,57318.05352187795,57038.969640608986,56764.95960533138,56576.19912340631,56456.1255521924,56337.66130657927,56195.14658393223,56004.64266593965,55797.732567516876,55612.883640871485,55518.26870659217,55435.99193525218,55336.34785847043,55247.56672949395,55110.32701853836,54950.33323172727,54898.141908424135,54899.68417879155,54871.02924239985,54763.472648080904,54704.97813284137,54724.15592958402,54776.481363353894,54819.32965747472,54871.31981507776,54965.174790045596,55097.60887594329,55150.94013821366,55227.42780773972,55384.18059160478,55540.17341615837,55630.89914690246,55769.92699741447,55958.68747933954,56078.31401566434,56267.56623596743,56513.61423893145,56746.184139988916,56952.8930727116,57179.60681672178,57437.36713378038,57686.90200887943,57903.49041265135,58063.77477214036,58256.62562330075,58477.282044563544,58644.56250006706,58850.4891217338,59056.616909100645,59217.683579645585,59337.39952294821,59484.675167164234,59567.64484258233,59626.9216688778,59778.086516629046,59874.51194220924,59971.809085823195,60044.69812449195,60089.22279944692,60144.90099488509,60145.21391930746,60140.47534948294,60192.89019023063,60231.33519069376,60274.563464470324,60278.98910987248,60309.20866837605,60333.21444192105,60309.99097943199,60259.14076079617,60229.614106370704,60253.172845026595,60284.420583775114,60330.26401165295,60373.04525054041,60406.88579164574,60453.2209579016,60450.896376478246,60424.47661453207,60417.43581502865,60493.34233919887,60510.01674056253,60464.39683012925,60407.690454446136,60395.84402988482,60469.60478658733,60558.38591556381,60673.117419852904,60818.44846230131,60924.39573101947,60949.005001664766,60976.45294385588,60984.07488871514,60962.68426927141,60966.86404548455,60935.75041720276,60927.457920009845,60936.84565268108,60923.278143796706,60964.025373938726,61063.647098976035,61089.2174946329,61039.663677175486,61063.69180246494,61097.398233103544,61121.38165490409,61114.676131567496,61112.150384444045,61125.919059028514,61164.00643158036,61270.89247356564,61433.456710989085,61629.079178461936,61762.40733413784,61926.804414606624,62144.91273700151,62413.29013267638,62686.78607783152,62932.14117671743,63265.3833348016,63657.56704301442,64029.92475389538,64352.99686825238,64632.59483964382,64878.57578737447,65110.49748784274,65360.16647340852,65636.70225580958,65878.65988953828,66083.53597921562,66357.25544181532,66609.22665705999,66855.92286061321,67079.46265691073,67325.24243894129,67597.57609338476,67784.19080784211,67886.18181779169,67956.9921442261,68000.3992319583,68029.52355498356,68007.06005180598,67958.33324889341,67893.3790795063,67838.19262244613,67799.81467721637,67679.83051298029,67518.7414906909,67344.66610487296,67129.50821274618,66919.78179452203,66749.19328083913,66504.66519649807,66221.15566982696,65930.89591633034,65635.74113079801,65388.374374911116,65137.252525955744,64900.07816554048,64699.15833463173,64541.57853622181,64380.623624399144,64202.83784900163,63979.81214282658,63772.544416492514,63610.04723430243,63476.67437513762,63337.89239381462,63180.37965063807,63039.80952975864,62906.347263616,62753.55073851952,62593.109916819325,62449.70112439408,62306.11351801318,62151.52885336028,61994.44079332839,61842.11365486547,61697.386109517356,61553.507930458545,61474.986252187045,61421.789100383416,61332.20330860655,61255.02273500237,61149.209576750945,61026.69966539141,60875.154837984424,60764.13372327492,60670.81519017401,60593.925189247755,60534.53660423,60441.039257173456,60384.77991637945,60272.26123479143,60095.92832278351,59879.719898667325,59727.77273986015,59598.17732550828,59468.42544894522,59303.93896149862,59172.68951805706,59053.64412708809,58903.03807294823,58739.020972135186,58581.75409814765,58457.210178042675,58311.454452449616,58158.30029944186,58056.30928949229,58001.547515576785,57918.33197096968,57773.7385360883,57640.43273215684,57520.67208536531,57413.74133989112,57275.00406205703,57097.553562826346,56960.33620361522,56851.66202207351,56739.56802363015,56621.72962686177,56503.71241613775,56384.24234202413,56275.29993954897,56182.562551803894,56097.223591473536,56017.13729109017,55925.87511847915,55783.405099321026,55692.45585113238,55712.147737997504,55675.71439453535,55564.82739029257,55481.00834858517,55437.333039919504,55340.88526259486,55272.80184898399,55220.74463614758,55164.59705407585,55132.544652526936,55077.76052686698,55024.3398576188,55000.758767218445,54958.44691496455,54913.00581848691,54833.50066345938,54782.426927379005,54793.73691007339,54818.8379190967,54881.691024505024,54882.13805939413,54820.31313423075,54774.89438949757,54745.21127286092,54721.27255454929,54748.228758362384,54801.47061365493,54852.901977646594,54858.13228584913,54884.7532134954,54925.321629681785,54939.313821710806,54924.896946537134,54920.94068776855,54926.19334771554,54898.544239824325,54897.20313515701,54885.691986762526,54879.85818145969,54826.88454710061,54790.808831549744,54733.05192387723,54741.72440072589,54740.51740652531,54726.88284240757,54685.66622563198,54611.25726834027,54521.82793877458,54503.700674021326,54489.507316292205,54421.17803349233,54385.683463297304,54337.671916207306,54222.49337702911,54110.734654752574,53989.18586840462,53808.71788367246,53642.689125858444,53514.94890629636,53333.586851786,53136.17624475673,52982.128021970755,52830.31497363031,52716.544594352796,52620.16387226151,52473.55878037916,52284.55242926507,52105.06792128896,51923.41529410068,51741.025059345375,51631.88149117011,51522.20148112792,51365.6722147074,51198.97290455973,51102.2122028127,51063.63309188284,51008.24546912259,50888.52952581996,50761.884541736195,50697.355055493725,50631.149188417105,50583.316455282744,50572.54291445529,50598.64975197909,50602.4942520254,50597.71097871196,50612.01609516336,50639.620499565666,50721.22671857199,50784.34804491378,50826.883414612224,50903.05815971591,51033.07825721244,51225.77264616164,51329.23887124525,51415.47190135383,51534.29377487824,51686.93383776353,51847.64288039719,51966.15182949923,52141.90359615131,52344.902139294405,52488.40033869748,52645.66721268502,52796.04974938033,52909.32839027982,53014.18042351967,53106.69429382018,53206.98657119114,53324.065008648045,53460.25418761423,53523.88960407849,53573.644587236,53629.14396871853,53688.979588625385,53746.98236548691,53846.22411086847,53868.911131490604,53886.79252705485,53916.16271926913,53957.356984300255,54002.84278426681,54054.31885174738,54105.95138143914,54131.94646024066,54152.77828607301,54184.227190521626,54167.441030435686,54189.99394059109,54209.596420478396,54222.4486735402,54241.42530458276,54256.46802860118,54287.760470838606,54373.99350094718,54462.93109213485,54480.74543246573,54472.11765910598,54477.482077775254,54518.385770128465,54580.14364005848,54623.103692901575,54648.31646064716,54686.29207447673,54733.54366225525,54780.86230526714,54853.5501782358,54908.91544925159,54913.89988826512,54932.474187907486,54973.24376979396,55058.649785357695,55114.9091261517,55194.83896432388,55239.54245323449,55315.963067527184,55422.513833345634,55451.30288020407,55483.95877885327,55505.282343063634,55492.18422081283,55499.02385461615,55565.67675658188,55642.6338127415,55708.50440365129,55722.47424393586,55723.03303754724,55781.48284929787,55893.86742041915,55997.44540422504,56039.04200065637,56063.62891955721,56106.32075146685,56208.35646490532,56339.2482804356,56414.0148656386,56459.23244467169,56518.0398843336,56584.64808281042,56641.868548616,56699.17842139941,56723.94415425589,56758.56700641716,56793.10045160061,56819.654324013514,56844.53181559227,56892.0292725598,56895.091461550175,56879.26642647582,56874.72902235139,56841.603737068624,56798.77779469226,56739.5903753746,56610.88903080094,56497.833907346,56371.07716453996,56199.23695316756,56057.996279954474,55897.913086165565,55649.74166747829,55447.70424934677,55250.31599406195,55025.435093097105,54804.13047124511,54573.4828202108,54373.68057652481,54204.67903669823,54065.00298559701,53951.16555108614,53795.21743002146,53658.17888476597,53562.893398153,53453.28044334417,53366.42156439085,53303.2331828157,53295.72299667871,53217.06720794049,53169.39093701732,53145.54162568351,53076.6759010167,53048.758572192026,53032.173577806185,53043.438857011664,53072.89845620376,53091.51745933503,53143.52996868253,53218.34125737444,53257.63562412687,53281.37317673841,53364.58872134551,53455.49326604525,53591.682445011436,53678.60837919812,53811.06481684027,53967.05764139386,54103.49268954906,54216.525461259545,54390.66790231084,54585.59746570557,54782.426927379005,54920.06896973479,55046.490436374006,55138.73608574106,55255.47924703113,55416.18828966478,55547.035401706155,55648.08763838859,55747.597604703624,55882.82565865823,55934.92757498355,55972.74672660193,56027.88848017317,56085.690091334596,56132.60640294629,56180.17091514718,56249.86365435883,56307.6876172647,56347.11609448387,56372.41826920727,56350.67002185226,56324.85375700638,56347.2502049506,56381.761298389596,56389.80792639351,56408.35987429141,56441.82043574101,56467.860218031434,56461.154694694844,56427.045932656045,56387.70686241471,56371.56890291797,56341.46110313667,56338.04128623501,56296.64585550378,56207.6188573383,56115.328504482335,56008.12953807468,55855.78004786731,55728.732732383345,55693.484031377324,55671.44521134439,55611.78840539318,55519.006314159196,55459.66243263036,55496.900438892895,55568.694242083344,55577.858457310016,55575.57857937558,55595.136355773975,55630.89914690246,55615.45409148384,55591.89535282795,55613.12951006049,55711.253668219295,55771.67043348199,55787.33900634516,55828.80149230975,55916.24151661892,55978.89345632714,56057.25867238745,56159.67436548166,56283.21245708614,56420.85449944193,56610.39729242293,56801.01296913779,56942.700677239976,57093.37378661321,57329.74348422808,57546.644812422375,57682.72223266629,57794.70447238738,57887.64302583254,57979.82161996623,58043.18881549702,58084.58424622825,58138.25078466544,58194.68893941509,58204.23313429751,58221.80160543938,58307.29702798093,58387.31627313093,58402.18018319371,58438.36765746685,58443.35209648038,58426.118901505346,58370.64187176727,58288.27569344947,58224.550870007384,58114.96026694302,58001.86043999916,57885.18433394246,57769.84933255307,57578.49604827119,57344.40622859076,57128.17545273012,56874.483153162386,56566.0514314236,56299.596285771884,56031.42005579711,55768.31767181369,55544.37554411597,55291.934942237735,55023.9375262186,54753.43671482048,54522.923174252894,54258.92672049126,54019.98657226403,53858.964605208,53684.06220484522,53479.20846691233,53282.513115705624,53138.18790175771,53045.02583086799,52936.888091193214,52808.03028440837,52755.57074017177,52723.36187641166,52744.3501644552,52752.553254670296,52694.304608619765,52694.12579466413,52707.58154482622,52729.821530559246,52718.17627169804,52761.002214074404,52796.11680461369,52836.59581382225,52868.58116013779,52936.44105630411,53059.800333952946,53238.01079249511,53403.43605320884,53560.85938940757,53723.40127508656,53914.15106226815,54040.63958414073,54251.17066516527,54513.758959026214,54795.927381030015,55015.75678774796,55241.84468291339,55473.65462465938,55656.82717047062,55863.06671655974,56086.651216346174,56356.25795796609,56519.42569248983,56648.372906252494,56807.24910584082,57001.82104132426,57212.64269502672,57382.426545909235,57544.4319897213,57751.967936988825,58006.62136156814,58163.41884892212,58254.77042851096,58371.60299677885,58532.49085336815,58711.79654738862,58799.907124031444,58878.473505791844,58989.2711030568,59121.12404359866,59278.16740014165,59412.121404662306,59519.834461192426,59613.018883826604,59717.69210311081,59819.48194736028,59936.58273656163,60105.047834521276,60253.12814153769,60396.71574791858,60545.01957237954,60723.87823151091,60895.025538805196,61011.81340358417,61113.93852400047,61210.11808039166,61313.293732797356,61444.67728670565,61626.44167261621,61739.34033385997,61825.90864013537,61945.468121226804,62056.73510512533,62153.20523419443,62323.90550659961,62496.908008683684,62594.942759864665,62723.84527013842,62898.59120829001,63053.757018298755,63193.27660718878,63287.24334087889,63379.332528034756,63448.35471491274,63515.52170700094,63569.054134971404,63632.44368224665,63698.18016268971,63756.13823606232,63819.460728104204,63892.68504293979,63946.619802310444,63991.591512154526,64049.10255063803,64127.40071146497,64231.40337841552,64312.51785904382,64357.66838284354,64406.283427033835,64517.505707443444,64598.888409005216,64606.577409097845,64589.724193778544,64545.199518823574,64504.027605536896,64468.510683597415,64401.947188609505,64342.82682452522,64267.99318408885,64183.72710749235,64046.19682385884,63868.94749032825,63644.64773471925,63404.634702758165,63102.34971074459,62773.33203236247,62431.57385964083,62158.32378367469,61883.1067541965,61552.01036358003,61171.62837643962,60823.790529226135,60513.77183363102,60194.030129197854,59907.57017225864,59614.762319894115,59290.70672878108,58991.68509145798,58723.46415799429,58479.316053308976,58248.109608663275,58031.63296361363,57851.88023470405,57619.51149934668,57381.46542089766,57192.59318025031,57022.42934971206,56879.46759217592,56779.24237003832,56676.40199379945,56583.798716521116,56560.083515654034,56518.01753258915,56434.667877515305,56383.30356875701,56365.28806272603,56325.412550617766,56321.16571917126,56324.42907386173,56353.39693467581,56380.35313848891,56375.592216919926,56377.53681868754,56418.19464185175,56414.0148656386,56355.20742597669,56312.78381500052,56332.85568152138,56347.2502049506,56359.521312656565,56324.60788781737,56314.214326645655,56290.20855310065,56226.1708052362,56108.891202079205,56027.866128428715,55896.32611230924,55751.576215216664,55614.694132172364,55496.98984587072,55379.4196700358,55241.75527593557,55085.33776823733,54890.363501353684,54693.73520538035,54526.94648825485,54355.285090838086,54232.08227540044,54087.265323074505,53908.16079475413,53739.06984794973,53572.83992443561,53369.88608478142,53170.06148935098,53034.900490629734,52860.44512515606,52674.433907799,52466.562684364646,52224.806216336045,52038.63853676779,51905.377436325245,51765.88019917968,51580.24896147835,51395.332979599596,51186.97001778722,50982.652721721264,50796.283876452915,50612.46313005246,50442.23224428085,50285.61357088251,50115.31562987753,49936.21110155715,49722.818997242335,49506.76703533734,49326.366105838555,49086.643646555385,48889.09892905938,48734.93894755113,48560.68474777755,48382.80956540222,48220.24532797877,47988.74831065516,47782.50876456604,47631.075695881336,47515.919508447594,47370.40965204354,47233.86284516607,47166.87466703352,47052.38903193343,46928.269794973115,46828.17868330225,46720.75619945004,46666.95555054612,46638.03239322095,46583.6953024501,46535.41553442664,46503.74311253347,46490.93556296058,46501.597345065755,46490.689693771565,46474.842306952756,46524.91021453264,46571.73711916651,46604.68359049363,46587.47274726305,46644.71556481309,46702.53952771897,46722.454932028646,46807.391560958815,46913.584698865976,46986.67490323483,47066.13535477345,47186.54420215419,47248.078554639644,47359.56905598272,47518.35584859322,47677.0532342259,47845.65244265228,47996.5267177256,48114.901556360914,48202.45333939235,48272.66016872647,48290.18393637943,48308.46766334387,48296.46477657137,48296.95651494939,48279.90213392999,48281.55616301968,48244.54167420169,48230.6835926394,48233.72342988532,48207.21426096133,48136.89567290493,48043.15245665937,48006.205023074755,48001.1311770834,48001.7793776726,48024.42169480583,48055.24475040969,48075.98716926422,48145.00935614221,48220.893528567976,48261.640758710004,48341.99528002683,48465.60042686468,48565.13274492416,48602.41545467561,48667.97312116303,48797.076797136884,48952.51082807909,49115.7456178362,49296.884154902,49448.004299164335,49552.36459402616,49664.436240725074,49813.29885879742,49988.80475626049,50178.63812191941,50382.57543832963,50516.708256805934,50702.78652939636,50873.866781457284,51079.614589168385,51346.40501098693,51557.33842341166,51722.361352725195,51953.92542528218,52214.61382086442,52424.742570488765,52640.86158762713,52891.178773782114,53157.9468438562,53365.05810797908,53565.68736620991,53791.73055788643,54029.66487761318,54271.06371773049,54476.02921438566,54660.2522921863,54818.45793944096,54965.800638890345,55128.09665538033,55312.073863991965,55480.85188637399,55649.00405991126,55837.76454183633,56021.786453936875,56126.19145228761,56215.37491266429,56342.08695198142,56474.588093112485,56599.9590277623,56744.95479404388,56877.45593517494,56989.28171268484,57078.8228009728,57194.448375040105,57266.37628869728,57289.19741978615,57287.990425585565,57335.10790289735,57439.267032059084,57521.07441676551,57581.62529249493,57591.10243214398,57591.460060055266,57621.47845285875,57652.50267416271,57722.06130290763,57811.91531561796,57856.68585976194,57894.68382533596,57918.17550875849,57906.8655260641,57908.98894178736,57958.0286691223,58013.7962715383,58044.70873411998,58030.33656243522,58040.283088717835,58147.5267586144,58222.740378706505,58217.62182922624,58199.114584817245,58186.19527652208,58205.86481164275,58245.82973072884,58365.16569437572,58458.9983175991,58496.10221339491,58561.5704729045,58602.272999557616,58593.801688409054,58607.30214206006,58589.80072615156,58596.01451111013,58623.35069457897,58606.13985134839,58627.64222951439,58649.77045652515,58659.09113396301,58634.303049362075,58583.49753421516,58566.71137412923,58581.75409814765,58619.8861741884,58652.76559028216,58686.76259359868,58759.852797967535,58806.411481667936,58808.244324713276,58801.33763567658,58845.482330975814,58920.07010222317,58961.733753887864,59009.90176318905,59028.05137968676,59026.285591874796,59083.14842976909,59138.67016299608,59100.82865963324,59084.511886180866,59089.74219438341,59102.01330208938,59157.87031148319,59238.56010896684,59322.66972335216,59398.062157399916,59495.76163241406,59564.53795010304,59609.107328546925,59639.885680661886,59732.3995509624,59769.95048164731,59721.00016129019,59667.199512386265,59616.304590261534,59568.04717398252,59528.48458629663,59411.249686628544,59294.238304405015,59159.90432022862,59089.16104902757,59013.20982136844,58926.797977304224,58825.768092366234,58674.066802748064,58513.15659441431,58392.72539528911,58258.257300645986,58107.517136039394,57964.24245408088,57862.139685409034,57787.50721067277,57710.19252660186,57671.54636043863,57693.02638686018,57741.216747905826,57747.58699507559,57744.01071596274,57812.76468190726,57951.16668357452,58123.677447280585,58263.91229199318,58485.79805920101,58758.08701015556,58973.31195751572,59169.42616336658,59332.9515258016,59557.094819199425,59829.808453298625,60121.74458762939,60380.30956748839,60635.20886125671,60816.727377978255,60941.87479518352,61122.74511131586,61363.3839921217,61558.51472121653,61684.17622854427,61764.70956381674,61838.939707152815,61940.8189583801,62020.45822387436,62088.56398922968,62113.57559127517,62173.70178385995,62224.82022342923,62264.87454949314,62261.968822713956,62275.89395950961,62281.14661945661,62215.544249480285,62154.076952228184,62107.607675505606,62026.783767555215,61918.75778660271,61767.70469757375,61632.32018140795,61516.024055006994,61392.62007386924,61226.41250209958,61052.18065407046,60849.293869649635,60682.32633856849,60469.94006275417,60223.37796966767,59953.59241409212,59639.885680661886,59355.23621502355,59072.95603429747,58797.470783885816,58520.46561485119,58262.14650418121,58034.71750434846,57795.41972820994,57568.05778361056,57321.36158005734,57069.43506830157,56830.1149404186,56575.66268153938,56351.38527767483,56116.71431263856,55849.387448953086,55637.62702198351,55433.19796719527,55249.73484870611,54999.19414510657,54763.0256131918,54620.62264926704,54417.355885190475,54187.6917109122,53975.28308335342,53756.48185688041,53510.724426594315,53226.41023712281,52961.58676881633,52769.607635689696,52610.50791865682,52475.369271680036,52331.22287168776,52154.86760793538,52029.80959770794,51952.5619688704,51869.63699694121,51737.02409708787,51618.202223563465,51522.80497822821,51436.23667195281,51337.03963006016,51185.56185788654,51049.10445798689,51013.60988779186,51055.430001667744,51055.13942898982,51066.56117040649,51066.36000470639,51014.77217850354,51085.51544970459,51137.282089863074,51153.55415982654,51207.5336226861,51261.803658223595,51300.22630694226,51341.912310351414,51334.11155153651,51299.28753367514,51324.32148746509,51334.20095851433,51327.89776657793,51323.7626938537,51281.853173,51201.61041040545,51197.45298593676,51185.91948579782,51137.52795905209,51080.55336243551,51013.967515703145,50986.206649089654,50999.30477134047,51006.52438479953,50962.89377962277,50975.81308791794,50981.69159670969,50969.9792826151,50927.95800303912,50856.07479287086,50800.888335810705,50793.31109444035,50727.64166923067,50600.01320839086,50429.31293598568,50232.662288267886,50053.93773960325,49884.75738582103,49708.84915695777,49499.882698045105,49302.96382939385,49103.273344430134,48906.622696712344,48750.54046518093,48618.464007194525,48395.28183880828,48213.22688021981,48066.89000927091,47953.72312709369,47814.292945181485,47723.142531292746,47673.43225162414,47645.64903326619,47575.911590565636,47492.293714558335,47417.86240552216,47323.85096834314,47237.752048701295,47192.82504234613,47166.67350133342,47135.269300373715,47111.55409950663,47113.85632918553,47118.86311994352,47083.45795672631,47066.44827919582,47065.151878017416,47081.80392763662,47083.34619800404,47120.874776944496,47189.27111497773,47243.630557493045,47274.96770321938,47327.673116645,47447.45611518098,47577.25269523296,47727.746990650536,47874.821469166454,48009.133101598396,48154.44179230235,48284.03720665422,48327.3101839197,48439.24772015187,48618.93339382808,48811.672486266194,48948.44281058822,49032.75359067364,49166.72994693875,49339.084248433624,49484.66116007104,49546.86606489016,49565.61917848816,49619.88921402564,49711.03962791439,49798.36789350127,49828.14041711574,49865.49018210056,49894.74861559256,49962.47440129214,50072.62379796789,50130.91714750733,50204.901421654395,50274.43769865486,50369.52201956773,50441.204064035905,50488.03096866977,50526.632431344085,50604.863536937664,50693.51055544741,50769.37237612872,50866.26718834248,50964.23488429009,51031.513635100564,51117.90312742032,51223.40336124937,51325.550833410125,51418.62349732203,51518.06640840369,51589.055548793745,51654.970843192445,51686.62091334116,51732.643155174635,51807.856775266744,51909.33369509384,52019.50544351405,52119.88712786283,52188.4175763628,52233.43398969579,52286.452327543775,52341.68348809284,52395.0147503632,52483.28178921721,52535.74133345382,52583.23879042135,52619.6721338835,52655.90431164555,52759.258778006886,52813.88644145566,52868.78232583789,52976.897713768216,53055.91113041772,53082.84498248637,53104.28030541901,53136.33270696792,53177.169344087764,53200.48221355465,53248.560815878016,53296.63941820138,53407.57112593307,53419.59636445002,53445.09970487353,53520.24626973227,53599.7514247598,53586.38508157553,53551.87398813653,53643.22556772537,53760.48281913791,53824.02882862435,53830.57788974976,53841.84316895523,53895.46500390351,54017.974915263054,54075.307139790915,54045.28874698743,54045.311098731894,54084.35959629531,54109.61706752981,54116.27788737749,54101.39162557026,54148.79967555996,54208.09885359989,54263.88880776034,54306.133604780865,54320.99751484365,54344.82447443301,54359.062535651035,54344.48919826618,54312.25798276162,54298.735177366165,54259.105534446906,54193.34670225939,54125.88913749327,54061.40435473971,54008.58718259182,53955.65825172165,53831.740180461435,53692.64527471606,53501.11317647853,53262.55300790704,53131.79530284349,52985.79370806143,52823.1177119157,52673.02574789831,52547.990089415325,52447.608405066545,52296.26474335966,52163.87536095087,52038.66088851224,51926.74570402452,51801.33006588579,51693.974637266954,51606.95929610245,51505.90705942,51399.40099709046,51345.98032784228,51345.622699930995,51330.512920679204,51254.36052731997,51296.20299294031,51310.664571602894,51306.55185062312,51311.3127721921,51326.98134505527,51349.64601393295,51433.57681436263,51484.02470159825,51497.01106512679,51579.600760889145,51702.311837948786,51798.89372574016,51951.28791943645,52033.36352507633,52146.5080555091,52278.24923732868,52432.23040488129,52596.20280220542,52782.057557351305,52940.1961493726,53072.876104459305,53238.904862273324,53372.81416330507,53466.91500746191,53585.088680397115,53707.66564699002,53811.48949998492,53957.222873833525,54028.63669736823,54082.48204976106,54107.0689686619,54134.20398643065,54140.97656500061,54152.66652735073,54209.328199544936,54295.18124999777,54359.30840484004,54397.52988785862,54413.645495610894,54385.72816678622,54403.654265839374,54454.973871108756,54519.302191651135,54518.65399106193,54536.82595930409,54554.61794789052,54533.11556972451,54504.862964733,54482.667682488885,54499.52089780819,54528.71227606681,54549.45469492134,54549.18647398788,54577.237913279285,54569.99594807577,54522.69965680834,54518.58693582856,54571.13588704299,54585.217486049834,54550.616985633016,54576.880285368,54600.08139611261,54610.318495073145,54624.19892837989,54635.553614563185,54609.51383227275,54617.515756787754,54645.36603037907,54650.84220777061,54646.751838535296,54664.0520887437,54693.9587228249,54739.95861291392,54734.34832505564,54757.482380566886,54812.624134138125,54838.3956954951,54819.66493364155,54851.58322472373,54867.98940515392,54877.13126863614,54895.414995600586,54918.481995878465,54971.2768162819,54996.288418327385,54963.16313304462,54984.35258678825,55037.79560778089,55079.21339025658,55178.052804237945,55281.56373281047,55301.54619235351,55333.41977994678,55406.15235640435,55456.577891895526,55469.63131065742,55473.02877581463,55483.80231664209,55557.5630733446,55654.81551346964,55761.32157579918,55892.21339132946,56012.08579684327,56127.15257729919,56166.44694405162,56222.92980229018,56245.147436278756,56263.49821847656,56344.63505084933,56389.76322290459,56393.22774329517,56365.84685633741,56397.340464274945,56399.79915616503,56380.66606291128,56318.50586158108,56223.823872068395,56121.96697258556,56015.483262000474,55926.54567081281,55869.593425940686,55767.110677613106,55605.84284136807,55458.43308668531,55318.980553028654,55165.13349594278,54969.28751102537,54733.901290166534,54546.79483733116,54407.18584146331,54208.50118500009,54009.92828725914,53872.80033502583,53765.601368618176,53667.656024415024,53518.65929587594,53414.25429752521,53345.857959491965,53268.54327542106,53185.975931403154,53126.72145685214,53087.1812209107,53037.87327264229,53041.9189383887,53028.50789171552,53058.772153708,53078.665206273225,53061.78963920947,53036.085133085864,53065.4776770446,53143.127637282334,53180.455050522694,53211.18869914874,53279.47327845971,53399.45744269579,53540.87692986452,53630.57448036367,53724.11653090913,53792.98225557593,53900.29298070586,54028.41317992368,54127.61022181633,54253.4058396108,54399.49684137069,54573.03578532169,54737.58932800166,54883.456812316996,55051.63133759872,55186.88174329779,55275.95344495219,55391.33314983048,55466.30090073358,55572.18111421837,55656.44719081488,55769.45761078091,55921.40476958809,56019.46187251352,56088.99814951398,56173.24187436603,56322.84210000541,56425.88364194437,56488.3344159525,56533.172015329845,56573.33810011603,56615.35937969201,56671.75283095275,56782.17044856196,56845.045905714745,56886.553095168245,56959.30802337027,57060.65083273064,57179.51740974396,57304.82128916041,57407.1475752768,57501.78486130058,57618.77389177965,57736.43347459239,57858.56340629618,58019.71948381895,58194.197201037074,58346.56904298891,58447.934204093726,58563.962109561224,58700.12893678295,58867.47644751984,59036.88031874661,59119.64882846461,59232.54748970837,59367.641433196244,59505.506992996576,59643.68547721928,59772.49858051522,59820.82305202759,59825.65102882994,59889.37585227202,59917.80727121917,60002.78860363825,60088.14991571307,60145.05745709628,60239.94061230906,60258.31374625132,60264.61693818771,60371.45827668408,60487.82145831841,60510.06144405144,60560.911662687264,60594.66279681478,60569.40532558028,60536.88353739781,60494.795202588466,60421.2132598416,60368.61960513826,60300.60324676076,60277.13391508269,60246.467321690005,60127.17606153203,60006.63310368456,59875.31660500963,59693.66397782135,59454.05327726046,59217.86239360123,59038.80256876977,58905.16148867148,58777.957710976334,58640.40507559837,58558.083600769474,58497.71153899569,58415.92650603372,58301.507926167,58241.135864393225,58232.15046312219,58202.44499474108,58174.773535105414,58156.3780494187,58131.142929928654,58103.3150080818,58046.54157716532,57993.21031489495,57938.917927613016,57916.29796222424,57897.723662581884,57806.52854520423,57695.32861653908,57577.84784768199,57375.721022572645,57166.821618893344,56921.734740940905,56612.47600465727,56287.32517806592,55944.27060416587,55598.422062208905,55303.55784935449,54992.1309938587,54652.00449848229,54272.024842742074,53910.440672688565,53528.806987858654,53179.91860865577,52865.40721242514,52543.47503703536,52267.43099301231,52021.24887958156,51752.31269029531,51495.69231220392,51242.2458818252,50959.94334935467,50734.45895128953,50517.02118122831,50270.01205325271,50109.548879808055,50011.93881177173,49879.72824331859,49733.994869469985,49668.19133379356,49639.82697007978,49527.95648908097,49465.39395635056,49384.57004840017,49322.96864068135,49300.8851171595,49273.95126509086,49314.1397016215,49357.9491207539,49361.033661488735,49340.85003624559,49417.00242960482,49542.95450961048,49629.34400193024,49646.6666038831,49675.612112952724,49735.71595379305,49780.218277003565,49916.78743562549,50004.763901801576,50049.89207385684,50088.71705397571,50139.65667958936,50196.877145394945,50212.36690430247,50210.645819979414,50215.71966597076,50257.13744844645,50258.52325660268,50274.683567843866,50292.38614945247,50292.87788783049,50357.89911245098,50390.73382505582,50450.70355542941,50543.03861177428,50633.22790065144,50685.10629953221,50732.17907335509,50774.69209130909,50791.67941709512,50835.555891460885,50899.90656374772,50904.86865101679,50860.366327806274,50898.67721780267,50882.71807226158,50812.66770513865,50764.85732374875,50675.405642438614,50604.75177821539,50517.28940216177,50508.61692531311,50507.074654945696,50487.9192099475,50475.46928828589,50481.392500566544,50481.32544533318,50524.754884809845,50616.08411265423,50681.23944774145,50661.413450409585,50684.18987800954,50724.28890756237,50777.888390766195,50844.31777528737,50875.23023786906,50870.96105467809,50867.0047959095,50883.54508680643,50888.99891245353,50902.812290526905,50956.635291175284,51018.013181449554,51041.43780963872,51030.95484148918,51044.36588816236,51108.40363602682,51203.17503251732,51259.79200122262,51327.808359600116,51420.88102351201,51506.3093908202,51611.38494150459,51702.37889318215,51775.558504528824,51793.05992043733,51845.51946467393,51929.11498893678,51990.112899555315,52032.60356576485,52058.06220269945,52128.470197733666,52158.37683181487,52160.74611672713,52175.94530295674,52228.00251579315,52271.1860860808,52278.070423373036,52365.041061048636,52429.347029846555,52390.11971832749,52425.41312282242,52482.566533394645,52505.45471971688,52558.42835407596,52617.01227629332,52678.12194563412,52760.3540134852,52726.2452514464,52708.25209715988,52703.51352733535,52668.153067607054,52644.259052784335,52573.11345018309,52448.99421322277,52299.08106316103,52210.79167256256,52074.356624407366,51877.30364528938,51691.0018552544,51482.12480331955,51245.799809193595,51060.034461025534,50841.859083397285,50587.16095532906,50298.66698964441,50053.24483552514,49811.64482970772,49592.41892009007,49392.75078687081,49119.27719346013,48882.16988827824,48692.291819130405,48540.791695212334,48371.678396663476,48201.40280740295,48082.42447166735,47984.389720486375,47907.92440270477,47787.31438962393,47712.14547302073,47698.08622575834,47672.33701614583,47615.608288718264,47585.053454047855,47599.15740479915,47661.07173694036,47677.92495225966,47703.29418221643,47757.4748107761,47831.1908639897,47917.31213537599,47957.813496329014,48000.527679983104,48123.28346053165,48256.87983714102,48305.11490167557,48411.39744656056,48540.67993649006,48677.182039878615,48819.49559682555,49020.41542773431,49237.11559022851,49425.987830875856,49605.53939408534,49775.83733509032,49905.16452850873,50036.30221322802,50170.56914217104,50248.33086113106,50370.460792834856,50543.30683270775,50702.49595671844,50784.66096933615,50845.34595553231,50909.875441774784,50994.253277093565,51081.715653147185,51130.59891827094,51145.887511478366,51223.358657760466,51291.24090567123,51339.69948765034,51403.62547679251,51440.75172433278,51488.74091967833,51478.70498641789,51515.6077165136,51547.99539422934,51544.217949416394,51523.02849567276,51531.790379499245,51586.48509818138,51596.36456923063,51566.23441770487,51516.34532408063,51485.74578592131,51516.81471071419,51546.98956572886,51581.701824867945,51600.656104166046,51611.474348482414,51623.723104443925,51655.79785773729,51726.205852771505,51774.038585905866,51800.74892052996,51814.47289162551,51828.0851039988,51821.37958066221,51776.76549872941,51776.49727779595,51879.20354356808,51984.61437041931,51979.94285582815,51970.73393711256,52003.255725295036,52019.81836793642,52032.29064134248,52111.818148114464,52152.56537825649,52198.14058520086,52197.93941950076,52252.65648992735,52346.17618872836,52384.531782213664,52461.3323761621,52485.136984007004,52501.67727490393,52539.76464745577,52637.5758811922,52757.023603561356,52784.51624924139,52799.514269770894,52856.8241425543,52891.1340702932,52916.86092816126,52972.49442011052,53032.71001967311,53076.65354927225,53152.11303855337,53189.17223086026,53192.972027417665,53216.28489688455,53227.84074876794,53236.9155570168,53230.67942031377,53271.44900220025,53318.54412776758,53329.004744172664,53330.74818024018,53300.30510429205,53303.90373514935,53313.38087479841,53262.77652535159,53225.87379525588,53187.92053317077,53187.78642270403,53204.55023104551,53190.312169827484,53150.90604435278,53050.94904314865,52994.93557154365,52928.305021322376,52841.11086620222,52781.565818973286,52728.27926019183,52613.279534969275,52423.71439024382,52154.73349746865,51880.7458139355,51657.474238571434,51391.66729350892,51082.67677815876,50824.60353667779,50597.95684790097,50362.21299913085,50152.464229162244,49938.915662636246,49711.64312501468,49485.10819496014,49252.247721224754,49051.28318682709,48924.05705738748,48779.37421552828,48622.26380375193,48461.95709251846,48384.687111936466,48343.3140329497,48254.2870347842,48204.509699882234,48175.74300476826,48160.58852202756,48160.208542371816,48145.746963709236,48114.4545214718,48126.233890799755,48202.65450509245,48271.87785767053,48305.27136388676,48373.15361179753,48477.178630492526,48567.90436123662,48642.17920806161,48751.278072747955,48862.723870602116,48985.211430217205,49079.82636449652,49231.92998551488,49392.907249082,49574.738690225924,49769.176515242645,49909.54547042197,50099.31178084753,50306.15482403694,50419.96990680336,50535.930757037495,50693.711721147505,50844.92127238766,51026.10451294238,51138.51143580812,51250.896006929404,51360.374851271496,51411.51564258524,51512.34436182313,51666.25847414237,51728.21750977248,51783.940408699564,51801.01714146342,51838.03163028141,51936.53576809595,51990.448175722144,52033.11765588733,52072.948464506684,52084.9960547681,52117.96487783967,52162.53425628356,52150.777238700066,52168.99391043114,52193.80434677653,52216.49136739867,52281.31142631906,52320.292868649114,52294.16367938086,52249.19196953678,52251.87417887142,52260.189027808796,52273.175391337325,52300.444519572804,52344.611566616484,52381.044910078635,52397.87577365348,52377.15570654342,52368.14795352793,52384.97881710277,52409.67749472589,52429.59289903557,52451.89994000196,52473.69289084589,52512.406112242476,52538.91528116647,52563.859827978595,52569.91715072598,52596.80629930572,52591.50893586981,52656.7313261904,52739.81276033077,52787.287865553844,52812.85826121071,52837.31106964482,52864.535494391384,52920.21368982956,52994.62264712127,53075.84888647186,53138.83610234691,53212.59685904942,53226.07496095598,53271.38194696688,53317.493595778185,53376.9492360293,53429.07350409908,53474.715766276815,53522.61555464454,53624.71832331638,53710.861946447134,53799.93364810153,53884.69146307605,53913.7263791235,53972.13148738522,53969.449278050575,53991.39869110569,54034.42579918216,54093.65792198872,54179.15334453027,54259.083182702445,54295.69534012024,54338.09659935196,54418.987562535716,54452.89515887442,54449.47534197276,54468.764897437686,54545.431380919385,54648.29410890271,54741.746752470346,54779.58825583319,54788.573657104214,54830.03614306881,54925.52279538188,54978.76465067443,54999.52942127341,55004.29034284239,55053.03949749941,55112.696303450626,55076.84410534431,54992.82389793681,54869.41991679906,54751.55916828623,54635.08422792963,54487.87563894697,54348.8254366905,54217.24071708211,54088.76288995301,53824.58762223573,53496.64282758747,53241.54236811905,53047.48452275807,52818.13327290217,52593.18531670396,52392.62311370649,52147.93856715424,51909.914840449674,51758.03473687587,51601.68428441099,51389.92385744141,51203.80088136207,51079.547533935016,50979.858753664346,50847.96110963358,50691.74476763544,50557.41078345905,50528.934661022984,50519.45752137394,50473.8152591962,50434.99027907733,50415.72307535685,50463.22053232438,50503.699541532944,50491.94252394945,50538.0765245052,50652.76332530539,50747.60177702925,50853.75021144751,50856.119496359766,50924.269965204,51047.38337366383,51142.89237772136,51267.3021873596,51421.77509329023,51544.53087383877,51672.78518352332,51795.04922569385,51861.85858987077,52009.29069629797,52139.06492460548,52275.567027994046,52427.15655888994,52503.644228416,52562.474019822366,52674.120983376626,52829.376200363185,52913.37405602623,52935.770503970445,52980.87632428126,53058.52628451899,53198.559963531494,53290.425633242805,53318.23120334521,53368.38851790292,53405.26889625417,53406.051207310105,53453.10162938853,53473.26290288722,53445.59144325155,53431.48749250025,53478.58261806758,53531.66801114893,53563.85452316458,53519.97804879881,53483.81292627012,53482.315359391614,53521.006229043756,53505.85174630306,53470.8712662305,53473.55347556514,53426.16777731988,53424.53609997465,53431.46514075579,53383.00655877669,53407.884050355446,53376.65866335138,53335.15147389787,53335.799674487076,53306.54124099508,53335.531453553616,53332.78218898561,53333.18452038581,53273.572417923504,53199.901068198815,53182.10907961239,53244.51515013161,53322.56744176953,53327.060142405055,53358.732564298225,53356.45268636378,53332.04458141859,53327.59658427198,53321.181633613305,53319.63936324589,53333.67625876382,53376.61395986247,53468.36787085151,53568.660148222465,53672.57340819519,53736.27587989282,53767.1883424745,53861.17742790907,53970.723327484535,53996.24901965249,54028.07790375685,54084.18078233967,54127.20789041614,54137.66850682122,54133.19815793016,54165.787001346,54168.80448684746,54260.67015655877,54317.89062236436,54367.46679156623,54396.34524540249,54445.98846983773,54489.14968838092,54493.73179599426,54573.0804888106,54668.58949286813,54648.830550769635,54681.93348430795,54733.007220388325,54795.32388392972,54912.37996964216,54983.74908968796,54987.66064496764,54997.830688694805,55003.44097655308,55060.30381444738,55140.45717006412,55130.82356820388,55160.506684840526,55136.90324269572,55119.80415818741,55147.40856258971,55168.44155412216,55116.67491396367,55037.54973859188,54910.368312641185,54711.750711411325,54521.22444167429,54278.596255611934,54060.823209383874,53804.35929350368,53576.84088669311,53401.08912004103,53192.14501287282,53023.098769557335,52835.00883996592,52571.68293853795,52323.1985954283,52086.82889781343,51888.77009019496,51758.48177176497,51600.34317974367,51447.09961975809,51290.01155972619,51145.44047658926,50961.530323210995,50841.41204850817,50752.34034685378,50676.232656983455,50616.28527835432,50598.24742057889,50583.20469656047,50541.742210595876,50543.91032980804,50601.577830502734,50650.237578181936,50713.783587668375,50743.44435256057,50804.86694632375,50885.489688574045,50951.65085216175,51006.94906794418,51075.52421993306,51129.72720023718,51241.55297774708,51421.551575845675,51605.9311158575,51779.827687719786,51966.24123647705,52141.30009905101,52248.14143754738,52391.46082299481,52517.099978578095,52641.398029494056,52801.70474072752,52961.2514926495,53044.69055470116,53096.18897392619,53196.79417571952,53304.2837148051,53408.12991954445,53505.87409804751,53587.547372287205,53678.5189722203,53797.340845744715,53889.47473638949,53928.478530464,53972.82439146333,53979.68637701111,53969.85160945077,53950.76321968594,53944.8847108942,53982.16742064565,54022.46761589857,54081.34211079385,54120.36825661281,54131.74529454056,54169.76561185904,54138.04848647696,54099.4693755471,54107.247782617545,54107.113672150816,54138.89785276626,54197.41471975025,54208.30001929999,54190.17275454674,54157.181579730706,54128.30312589445,54066.96993910908,54018.86898504126,54026.98266827854,54075.48595374655,54114.64621003225,54146.117466225325,54151.30307093896,54102.24099185956,54073.74251767904,54108.34301809586,54130.29243115097,54124.54803282595,54143.97169875762,54162.0319082775,54203.807318664476,54235.613851024376,54305.68656989176,54454.59389145302,54503.03012168767,54493.24005761625,54506.7628630117,54532.087389479566,54562.217541005324,54597.98033213381,54678.87129531757,54765.7748777598,54813.80877659426,54873.107954634186,54959.00570857593,55011.06292141234,55045.46225612906,55132.14232112674,55178.36572866032,55192.06734801142,55203.64555163927,55208.89821158627,55248.572557994434,55329.77644560057,55424.123158946415,55576.7185183428,55670.2382171438,55790.64706452454,55889.39707152809,55954.7088688265,55982.22386625098,55977.57470340427,56018.05371261284,56124.71623715356,56234.373895451296,56301.58559102841,56316.69537028019,56343.070428737454,56351.63114686384,56367.99262380513,56436.41131358282,56492.201267743265,56516.36350349945,56560.642309265415,56577.204951906795,56575.79679200611,56557.62482376395,56480.734822837694,56401.49788874363,56278.13861109479,56113.20508875908,55926.143339412614,55668.78535375421,55417.551746076555,55126.733198968555,54814.97106730593,54531.34978191254,54250.12013317587,54002.239287166514,53760.16989471554,53498.07333923261,53225.65027781133,53008.79365310594,52800.67656048257,52512.65198143149,52249.37078349242,52067.06995571494,51926.298669135416,51813.48941486948,51655.46258157046,51498.21805932737,51399.60216279056,51267.81627748207,51171.32379666851,51137.66206951882,51161.08669770798,51177.44817464926,51207.64538140838,51232.96990787624,51227.35962001797,51234.75804743267,51234.467474754754,51296.71708306278,51358.7208221818,51375.30581656764,51418.690552555396,51481.297788774704,51523.56493753969,51605.126453057106,51661.00581419538,51719.16505326809,51827.235737709496,51987.117765798306,52116.13203479434,52197.38062588938,52305.58542079752,52437.61717529502,52521.74914142479,52662.162800093036,52856.645328598664,53058.59333975236,53187.96523665968,53317.895927178375,53408.353436989004,53465.70801326133,53566.357918543574,53648.90291081702,53682.274065288795,53709.34202782417,53764.26026395086,53852.97433769397,53831.583718250244,53800.15716554609,53770.988139031906,53764.617891862144,53798.257267267385,53789.584790418725,53757.8900167811,53689.0242921143,53571.34235755711,53500.35321716705,53433.253280312216,53421.362152261994,53363.02409923364,53259.8707985724,53210.62990553736,53166.28404453803,53088.2317529001,53060.2250170976,53059.42035429721,53037.80621740893,52998.33303670085,52951.796704744906,52925.62281198774,52879.66762538763,52850.36448840672,52826.31401137281,52823.564746804805,52834.58415682127,52835.92526148859,52832.46074109802,52843.05546796983,52816.568650790294,52798.620199992685,52810.220755364986,52795.3121418133,52819.49672931394,52832.68425854257,52863.55201763535,52868.379994437695,52944.33122209683,53018.9636968331,53045.808141923924,53053.05010712744,53089.19287791168,53090.198706412164,53124.955669040166,53149.363773985366,53165.81465790447,53209.48996657014,53285.28473201809,53349.90362523838,53405.31359974309,53453.034574155165,53517.36289469754,53598.54443055921,53626.26059368379,53662.73864063485,53739.941565983485,53782.856915337674,53752.816170789745,53757.711202825456,53802.83937488072,53830.86846242767,53890.726434078984,53983.66498752416,54050.764924378986,54090.551029509435,54184.853039366375,54288.92276155028,54371.646567779375,54413.600792121986,54502.69484552084,54514.13893868196,54530.1204359675,54552.159256000436,54604.39528279249,54606.697512471386,54594.40405302097,54652.742106049314,54752.90027295355,54841.94962286349,54834.66295417106,54875.16431512408,54933.03298151887,54852.276128801845,54737.25405183483,54653.12208570506,54557.14369501397,54466.932054392346,54346.16557910032,54139.34488765537,53903.55633539634,53697.786175940775,53423.731437174254,53122.07229400543,52835.79115102186,52543.92207192446,52253.99759459467,51966.554160899424,51670.013567210866,51417.483558354805,51195.262514980146,50948.387497471274,50718.85743365973,50473.6140934961,50214.95970665928,49985.94373297021,49761.10753549427,49554.46565800496,49401.3115049972,49294.827794412115,49164.98651087123,49088.09650994498,49065.34243408948,49008.613706661905,48918.60323174039,48927.052191144496,48943.190150641225,48901.57120246544,48887.266086014046,48934.808246470486,48980.20463945921,48977.27656093557,49006.22207000519,49080.65337904136,49174.038967375636,49225.38092438948,49283.495459973274,49384.033606533245,49490.159689207045,49617.96696400249,49712.7830639819,49816.852786165815,49933.28302303351,50062.52080947409,50241.670041283374,50493.6189047836,50700.39489273964,50830.21382453607,51002.23284986411,51109.92355464978,51198.57057315953,51381.474898037304,51551.25874891982,51678.864858015164,51787.85196397924,51882.28808430291,51948.1139717238,52069.41688888275,52193.4690706097,52284.82065019854,52389.49386948274,52493.67535038893,52599.77908131827,52647.969442363916,52702.0383122013,52777.63191194915,52850.208026195534,52915.25160256048,52953.51778906796,52961.76558277197,52925.42164628764,52903.963971610545,52963.26314965048,52983.603237104806,52971.33212939884,52970.23689392053,53002.64692338073,53121.22292771613,53215.547289317525,53260.228426483685,53319.4829010347,53341.119389667445,53340.18061640032,53303.16612758233,53313.47028177623,53316.68893297779,53343.53337806861,53408.39814047792,53479.99077796826,53499.48149913329,53479.5213913347,53505.963505025335,53577.86906693805,53621.00793373679,53654.870826586586,53693.15936483853,53714.7287982379,53727.648106533066,53755.610138846656,53811.400093007105,53844.54773003433,53858.94225346354,53915.402759957644,53974.72428974203,54017.01379025147,54074.18955256815,54192.09500456989,54269.432040385254,54301.97618031218,54344.89152966637,54402.402568149875,54473.19054283983,54579.47308772482,54686.023853543265,54702.72060665138,54749.74867698535,54751.08978165267,54771.27340689581,54772.34629062966,54790.965293760935,54856.679422459536,54936.89983330963,55046.78100905193,55109.47765224906,55120.87704192127,55166.47460061009,55251.29947081798,55303.89312552132,55376.69275721226,55439.299993431574,55462.12112452044,55468.15609552337,55505.12588085245,55549.00235521822,55619.92444037491,55677.144906180496,55739.5062732108,55830.61198361063,55898.471879776946,55965.929444543064,55951.62432809167,55952.2054734475,56006.676674685084,56087.210009957555,56142.88820539573,56234.597412895855,56290.923808923224,56338.555376357486,56335.895518767305,56262.782962654,56176.37111858978,56127.711370910576,56075.76591679644,55888.950036638984,55699.20607795788,55496.833383659534,55257.44620054319,55011.2864388569,54767.339499871676,54488.0097494137,54239.83833072643,54013.079883227336,53708.47030979041,53454.33097533357,53186.400614547805,52894.44212847258,52651.724535432404,52432.14099790347,52206.38837890487,51964.14017249825,51748.17761757108,51531.790379499245,51398.66338952343,51290.10096670401,51142.55710155453,51025.97040247565,50901.22531667058,50826.16815878966,50773.44039361959,50715.12469233569,50616.57585103224,50553.78980085729,50497.977494952385,50513.51195734882,50500.92792522049,50510.494471847356,50510.87445150309,50498.69275077496,50498.69275077496,50493.73066350588,50552.02401304532,50629.36104886068,50619.682743511534,50612.57488877474,50672.321101703776,50809.851385337286,50902.49936610453,50978.76351818604,51061.88965581533,51132.20824387172,51224.27507928313,51313.05620825961,51411.60504956306,51442.741029589306,51458.320195474655,51485.18699230993,51488.4056435115,51540.97694647038,51597.012769819834,51660.44702058399,51701.21660247047,51713.264192731884,51751.91035889511,51806.44861536606,51842.6360896392,51832.957784290054,51850.25803449846,51938.90505300821,51977.70768138262,51941.22963443156,51976.50068718204,52028.088513384886,52097.781252596535,52110.65585740279,52090.785156582024,52081.21860995515,52060.69970854518,52028.87082444082,52029.899004685765,52047.86980722783,51990.02349257749,51936.647526818226,51931.19370117113,51955.35593692731,51971.47154467959,51971.29273072395,52028.356734318346,52090.20401122618,52100.26229623107,52160.38848881584,52231.75760886164,52257.8867981299,52287.97224616674,52290.40858631237,52282.473717030734,52316.85070000299,52397.24992480873,52426.44130306737,52480.19724848238,52583.439956121445,52646.04719234076,52736.16942598455,52826.93986021756,52915.94450663859,52976.875362023755,52997.506022156005,52992.36512093129,53054.055935627934,53179.47157376666,53289.48685997568,53278.333339492485,53263.04474628506,53269.61615915492,53292.14671756586,53332.379857585416,53401.08912004103,53484.282312903684,53577.22086634885,53604.601753306604,53653.753239363825,53677.04375708625,53658.849437099634,53657.664794643504,53701.0271788868,53747.63056607611,53806.41565399357,53834.80236945181,53839.94327067653,53858.24934938543,53867.77119252339,53888.021872999896,53967.19175186059,54074.50247699052,54145.066934235925,54215.07259786995,54333.35802952743,54395.49587911319,54430.40930395238,54439.1488360344,54442.72511514725,54471.268292816676,54515.63650556046,54526.074770221094,54547.21952047581,54578.06492782413,54647.28828040222,54730.03443837577,54741.45617979243,54727.53104299677,54759.76225850132,54776.10138369816,54753.07908690919,54733.074275621686,54694.562219925196,54654.284376416734,54607.032788638215,54487.473307546774,54298.04227328805,54108.94651519615,53924.43286471759,53666.35962323662,53392.215477492275,53139.283137236016,52926.15925385467,52728.636888103116,52504.06891156065,52239.1783880208,51953.90307353772,51674.3498056352,51411.493290840786,51202.95151507277,51052.59133012192,50870.98340642255,50686.91679083309,50509.55569858023,50388.67746456593,50233.82457897956,50140.93072902331,50045.62289066588,50004.8533087794,49990.86111675038,49948.10222960737,49962.34029082541,50016.14093972933,50046.87458835538,50035.25168123862,50025.08163751145,50040.75021037462,50043.4100679648,50046.44990521073,50081.49744051665,50120.09890319096,50178.012273074666,50265.362890406,50347.86317919054,50411.40918867698,50517.71408530642,50663.089831243735,50802.47530966703,50927.06393326091,51021.05301869548,51176.017663004124,51409.995723962274,51625.26537481134,51837.02580178092,51990.179954788684,52125.0056773431,52261.23955979819,52439.45001834036,52617.347552460145,52705.81575701425,52824.68233402757,52983.804402804904,53075.13363064929,53170.75439342909,53274.913522590825,53340.9405757118,53380.57021863106,53428.17943432086,53524.85072909007,53591.90596245599,53655.04964054223,53665.689070902954,53681.55880946622,53627.400532651016,53583.345244329605,53570.78356394572,53616.51523310128,53588.88847695452,53521.74383661078,53485.265789659716,53430.48166399976,53394.18243100434,53387.454555923294,53361.97356724424,53379.60909361948,53402.54198343062,53422.81501565159,53427.598288965026,53389.689730368824,53380.190238975316,53393.42247169286,53391.9025530699,53387.47690766775,53377.32921568504,53364.946349256796,53396.93169557234,53457.6166817685,53484.01409197022,53468.703147018336,53452.20755961032,53457.236702112765,53457.28140560167,53507.34931318156,53505.51647013622,53505.58352536959,53520.96152555484,53559.31711904015,53619.15273894701,53613.31893364417,53614.19065167793,53666.33727149216,53706.57041151171,53742.44496136248,53773.80445883328,53818.61970646617,53836.94813691952,53868.32998613477,53915.067483790815,53964.77776345942,54039.94668006262,54032.32473520336,54016.298534428905,54075.59771246883,54134.60631783084,54152.420658161725,54177.45461195167,54181.94731258718,54176.06880379544,54271.3095869195,54349.18306460179,54391.204344177764,54481.70655747731,54599.1873263344,54691.36592046809,54782.13635470109,54783.74568030187,54796.50852638585,54834.37238149314,54857.729954448936,54930.88721405116,54974.36135701673,54984.196124577065,55077.46995418906,55145.70983001111,55186.859391553335,55215.5813831784,55206.23835399609,55237.888424144796,55283.24011364462,55312.498547136616,55349.5130359546,55357.62671919188,55302.70848306519,55233.12750257582,55138.35610608532,55034.42049436814,54884.373233839666,54749.34634558515,54643.22026291135,54565.145619528965,54428.46470218476,54183.55663818796,53934.89348112267,53727.49164432188,53531.131569282006,53290.73855766518,53064.51655203302,52865.250750213956,52658.96650063593,52483.55001015068,52330.440560631825,52165.81996271849,51920.08488417684,51676.853201014186,51474.79343113821,51378.21154334683,51288.24577191422,51142.98178469918,51058.06750751347,51021.298887884484,50988.79945144647,50898.85603175832,50875.18553438014,50881.22050538308,50892.754005522016,50929.92495655119,51003.90923069826,51035.87222526935,51078.16172577879,51110.83997617245,51194.0331690351,51337.844292860544,51460.130686775534,51519.698085748925,51564.222760703895,51694.51107913388,51851.152104276676,52050.6861270292,52153.19122710124,52223.08513201298,52338.97892701375,52500.40322546998,52664.91206466104,52811.047769909834,52920.63837297421,53029.98310684957,53126.7885120855,53250.84069381245,53399.904477584896,53495.7264060648,53624.36069540509,53755.476028379926,53811.400093007105,53918.62141115921,54006.016731979464,54094.77550921148,54201.7956616635,54300.1656890113,54324.48438697868,54376.49689632618,54415.411283422865,54417.42294042384,54477.10209811951,54496.369301839986,54458.1031153325,54439.08178080103,54454.39272575292,54422.094455015,54374.14996315837,54372.60769279095,54347.01494538962,54292.94607555224,54291.5155639071,54309.32990423798,54291.29204646254,54282.0607760025,54279.19975271222,54294.28718021956,54285.994683026634,54284.1618399813,54250.768333765074,54187.55760044546,54140.37306790031,54130.15832068423,54117.84250948936,54105.32553259439,54080.17982008217,54083.957264895114,54059.437401227646,54081.118593349296,54120.79293975746,54129.42071311721,54115.76379725502,54126.827910760396,54144.26227143554,54213.999714136095,54246.94618546322,54247.23675814114,54204.96960937615,54137.35558239884,54124.88330899279,54216.25724032608,54297.17055525429,54392.836021523006,54436.35486797749,54472.29647306162,54544.91729079691,54604.32822755912,54671.763440580784,54724.625316217585,54767.31714812722,54808.37730269162,54860.81449518377,54931.11073149571,54978.29526404086,55046.46808462955,55142.44647532064,55254.58517725291,55323.741474597635,55383.68885322677,55385.00760614963,55360.443038993246,55436.17074920783,55550.745791285735,55585.18982949136,55606.602800679546,55638.92342316192,55670.10410667707,55704.525793138244,55744.378953502055,55815.055169469735,55910.34065608271,55920.68951376552,55869.39226024059,55838.59155638118,55816.70919855943,55819.391407894065,55800.593590807155,55724.105921281094,55651.14982737897,55607.29570475766,55558.18892218935,55463.842208843496,55300.02627373055,55154.73993477106,55050.46904688705,54881.26634136037,54630.05508542718,54392.32193140053,54109.61706752981,53817.16684307657,53565.374441787535,53334.615032030946,53104.16854669673,52899.44891923058,52657.13365759059,52367.25388374971,52114.209784771185,51901.97997116804,51697.550916379805,51424.837282280605,51204.62789590692,51059.81094358098,50898.3642933803,50719.997372626945,50584.47874599442,50468.674357971475,50372.78537425821,50279.31037894612,50242.54175931714,50251.750678032724,50269.497963130234,50273.342463176545,50331.792274927175,50322.40454225595,50364.82815323212,50401.64147635001,50461.58885497914,50519.7257423074,50572.855838877666,50620.01801967836,50707.8156718988,50772.18869593009,50788.55017287138,50860.58984525083,50999.46123355165,51100.871098145384,51208.9864860757,51338.87247310549,51428.79354104919,51475.70985266088,51540.26169064781,51629.64631672458,51703.56353563828,51811.18718519058,51997.176050803195,52135.399238514816,52188.75285252963,52279.34447280699,52434.62204153801,52566.0055954463,52698.57379181073,52776.179048559556,52838.65217431214,52906.04268384489,52939.078562149836,52981.12219347027,53018.91899334419,53029.960755105116,53011.274696740475,53044.08705760087,53085.236619143085,53032.91118537321,53035.72750517458,53053.20656933863,53053.18421759418,53028.4184847377,53009.35244671732,52945.58291978633,52921.97947764152,52898.26427677444,52920.01252412946,52898.174869796625,52829.39855210764,52773.49683922492,52715.00232398538,52659.36883203612,52635.9218521025,52600.159060974016,52550.158208627494,52559.322423854166,52562.943406455925,52545.620804503065,52537.41771428796,52521.03388560223,52543.56444401317,52604.42824416498,52603.48947089785,52583.79758403273,52603.780043575774,52642.20269229444,52723.98772525641,52766.791315888324,52835.1205986882,52927.120378866246,52989.41469066319,53033.35822026232,53092.74680528007,53194.022559407065,53247.89026354436,53266.509266675625,53342.41579084585,53417.49530047123,53464.210446382815,53528.49406343628,53579.567799516655,53640.36454443509,53714.7287982379,53801.811194635775,53922.063579805326,54000.11587144326,54039.4549416846,54101.458680803626,54183.73545214361,54234.898595201805,54299.67395063329,54410.69506534279,54517.42464511689,54538.45763664933,54535.06017149212,54592.45945125335,54664.834399799634,54752.67675550899,54790.89823852757,54833.50066345938,54867.20709409799,54893.515097321884,54930.73075183997,54952.7695718729,54924.22639420348,54953.864807351216,54988.19708683457,55051.69839283209,55120.161786098695,55166.76517328801,55190.54742938846,55162.89832149725,55155.29872838244,55132.455245549114,55090.41161422868,54969.91335987012,54831.80193088078,54624.40009407999,54400.94970476028,54210.91517340126,53951.50082725297,53647.67356487198,53360.27483466564,53060.292072330965,52794.79805169083,52523.939612381415,52267.34158603449,52044.76291474854,51827.21338596504,51600.74551114387,51442.78573307821,51280.69088228833,51031.42422812274,50789.064262993845,50634.367839618666,50528.26410868933,50414.33726720062,50326.29374579117,50300.7233501343,50235.16568364688,50205.616677476966,50227.476683554254,50228.974250432766,50250.52133208768,50216.658439237886,50194.641970949415,50189.098738324494,50205.92960189934,50280.62913186898,50376.27224639324,50512.84140501516,50594.313513554756,50650.97518574896,50687.430880955566,50786.89614378168,50931.71309610762,51100.178194067266,51270.49848681671,51438.538901631706,51631.32269755873,51808.03558922239,51994.49384146856,52240.07245779902,52520.40803675748,52666.94607340647,52751.413315703074,52921.375980541234,53113.24335494559,53286.15645005184,53460.164780636405,53592.576514789645,53723.088350664184,53802.794671391806,53856.32709936227,53912.340570967266,53980.647502022686,54035.76690384947,54055.659956414696,54068.95924436561,54094.99902665604,54088.53937250846,54078.39168052575,54084.04667187294,54135.90271900925,54146.877425536804,54139.99308824457,54106.979561684086,54093.99319815555,54129.86774800632,54152.890044795284,54124.34686712586,54112.522794309,54121.798768257955,54160.71315535464,54139.23312893309,54118.89304147876,54075.10597409082,54085.05250037343,54072.62493045627,54067.86400888729,54083.130250350274,54092.27211383249,54113.193346642656,54111.96400069762,54077.49761074753,54109.818233229904,54097.256552846025,54101.41397731471,54137.78026554349,54211.831594923926,54295.13654650886,54297.90816282132,54281.6137411134,54274.23766544314,54280.563209124,54273.72357532068,54315.81191013002,54356.51443678313,54362.057669408045,54428.01766729566,54481.79596445513,54532.13209296848,54592.0347681087,54647.645908313505,54698.02674031577,54715.28228703527,54749.45810430743,54839.51328271786,54882.741556494424,54908.04373121783,54956.099981796746,55008.00073242197,55062.248416215,55171.79431579046,55243.36460153635,55307.245887189616,55352.888149367354,55369.36138503091,55441.468112643735,55529.51163405319,55646.00892615425,55769.45761078091,55941.00724947539,56070.11092544925,56157.59565324732,56228.003648281534,56297.87520144883,56299.68569274971,56356.25795796609,56382.945940845726,56406.415272523795,56453.197473668755,56458.96422373822,56488.24500897468,56525.63947744841,56607.08923424355,56701.25713363375,56729.21916594734,56741.356163186574,56751.637965636015,56713.93057273991,56650.36221150902,56619.49445241624,56553.020364406155,56445.19554915375,56289.35918681135,56083.499620377974,55877.0365568443,55644.64546974248,55361.87355063839,55080.71095713508,54807.57263989123,54537.31769768211,54222.49337702911,53984.22378113554,53755.7889528023,53563.58630223111,53300.61802871442,53019.656600911214,52807.918525686095,52622.287287984764,52455.54327434818,52271.14138259189,52079.45282214318,51910.495985805515,51739.773361655876,51634.04961038227,51555.706746066426,51436.147264974985,51305.143690722434,51204.80670986256,51155.78933427207,51082.96735083668,50976.215419318134,50831.13024605873,50769.43943136209,50771.00405347396,50785.97972225901,50821.47429245404,50836.67347868365,50809.829033592825,50795.367454930245,50766.980739472005,50795.210992719054,50873.866781457284,50911.66358133121,50937.25632873253,50886.69668277463,50868.21179011009,50933.5235874085,51000.064730651946,51060.21327498118,51104.06739760249,51153.710622037725,51204.113805784444,51257.80269596609,51334.156255025424,51359.7713541712,51450.16180874847,51571.10709799613,51645.22548260993,51758.928806654076,51901.55528802339,51960.45213466312,51970.689233623656,51981.015739562004,51986.42486172019,51982.088623295866,52029.58608026339,52098.42945318574,52200.755739302134,52223.59922213545,52187.61291356241,52189.40105311883,52186.40591936182,52172.34667209943,52177.979311702176,52206.81306204952,52248.40965848084,52303.037321929616,52402.83786092256,52414.527823272685,52396.13233758597,52382.74364265724,52396.82524166408,52429.972878691304,52434.465579326825,52429.90582345794,52467.50145763176,52545.129066125046,52616.431130937475,52698.17146041054,52714.935268752015,52765.02552807636,52875.309035218845,53021.37768523428,53161.41136424677,53215.50258582862,53258.08265901598,53351.803523517076,53428.24648955423,53492.48540311878,53563.496895253294,53596.53277355823,53623.44427388242,53716.67340000551,53802.437043480524,53836.836378197244,53890.52526837889,53938.64857419117,53984.134374157715,54094.4178813002,54168.80448684746,54207.40594952178,54243.74988600611,54288.29691270553,54350.390058802375,54432.84564409801,54476.990339397234,54502.42662458737,54558.55185491465,54589.15139307397,54677.977225539355,54853.885454402625,54993.58385724829,55063.29894820439,55124.073341378375,55205.523098173515,55265.93986343621,55271.97483443914,55340.41587596129,55424.30197290206,55419.094016443974,55394.95413243224,55417.19411816527,55423.02792346811,55446.67606910182,55435.14256896288,55428.817025282035,55494.15117432489,55546.02957320566,55547.460084850805,55537.98294520175,55542.699163281824,55609.44147222537,55699.63076110253,55746.81529364768,55765.45664852341,55764.47317176738,55766.328366557165,55766.618939235086,55726.899889338005,55662.30334786217,55522.71670373878,55402.5760772915,55281.07199443245,55119.93826865414,54857.95347189349,54564.944453828866,54258.36792687988,53989.387034104715,53715.9804959274,53491.39016764047,53259.58022589448,52989.21352496309,52729.419199159056,52487.77448985273,52242.10646654445,51989.73291989958,51772.80923996082,51592.676531395504,51419.428160122414,51247.31972781655,51106.34727553693,50993.15804161526,50879.11944140428,50792.707597340064,50726.144102352155,50681.15004076363,50630.67980178354,50589.4408332635,50574.4875162229,50521.93856500847,50522.4750068754,50545.18437924199,50542.85979781864,50503.09604443265,50535.19314947047,50585.439871006,50641.78861877783,50719.438579015565,50782.55990535735,50840.026240351945,50949.63919516077,51079.122850790365,51181.404433417854,51304.87546978897,51404.11721517053,51568.0225572613,51740.890948878645,51948.13632346825,52150.41961078878,52305.2948481196,52426.10602690054,52570.96768271538,52713.77297804034,52818.37914209117,52975.46720212307,53112.84102354539,53225.85144351143,53390.02500653565,53501.49315613427,53526.2812407352,53530.61747915953,53589.22375312135,53625.94766926142,53644.70078285942,53634.41898040998,53632.921413531476,53670.449992471935,53734.77831301431,53759.14171447059,53762.7403453279,53757.75590631436,53750.9386242555,53711.86777494762,53686.63265545758,53676.50731521932,53670.89702736104,53689.18075432548,53717.29924885026,53729.34683911167,53742.959051484955,53737.81815026023,53736.789970015285,53733.70542928045,53748.8375602767,53810.57307846226,53889.966474767505,53943.185978315596,53930.5795944428,53936.39104800118,53958.02753663392,53965.62712974872,53994.125603929235,54001.904010999686,54015.806796050885,54083.30906430591,54108.76770124051,54173.54305667199,54212.63625772432,54243.079333672446,54235.7032580022,54232.328144589446,54255.3057378895,54340.465884264224,54420.1945567363,54500.50437456422,54572.70050915486,54606.18342234891,54652.09390546011,54731.30848780972,54845.30238453179,54952.657813150625,54975.389537261675,55001.36226431874,55007.061959154846,55044.76935205095,55107.644809203724,55162.83126626388,55206.21600225163,55281.38491885483,55314.510204137594,55316.32069543847,55374.05525136653,55483.57879919754,55588.74375685975,55648.80289421116,55690.93593250942,55720.954325312894,55779.49354404135,55831.841329555675,55810.875393256596,55784.7685557328,55832.824806311706,55902.226972845434,55969.282206211356,55997.668921669596,56050.173169395115,56142.48587399553,56200.958037490615,56274.160000581745,56349.39597241831,56381.470725711675,56390.18790604924,56412.986685393655,56411.22089758169,56368.93139707225,56396.848725896925,56457.243139415164,56474.31987217902,56422.91085993181,56344.903271782794,56234.08332277338,56107.348931711786,55976.43476443706,55805.26510539831,55639.39280979548,55418.535222832594,55177.80693504893,54931.624821618185,54652.31742290466,54391.1372889444,54124.168053170215,53839.67504974307,53575.67859598144,53286.4246709853,52998.08716751185,52719.897356021094,52426.195433878354,52169.6644627648,51917.42502658666,51699.495518147414,51442.91984354494,51217.32368675753,51020.62833555083,50785.53268736991,50583.741138427395,50404.077816495635,50243.167608161886,50158.432144931816,50079.53048700458,49971.10217465189,49871.234580425575,49828.36393456029,49770.13764025422,49767.99187278651,49805.90043138271,49803.46409123708,49840.903263199725,49969.537552540016,50096.09312964596,50189.881049380434,50249.716669287285,50288.22872498378,50288.47459417279,50387.224601176335,50536.355440182146,50647.5553688473,50764.07501269281,50885.35557810731,51019.26487913905,51142.98178469918,51240.18952133531,51413.19202341939,51567.508467138825,51702.17772748205,51877.46010750057,52032.80473146495,52163.40597431731,52320.94106923832,52423.58027977709,52490.07671953162,52618.12986351608,52741.95852779848,52811.606563521214,52891.670512160126,52931.456617290576,53028.6643539267,53127.28025046352,53201.3092280995,53278.467449959215,53321.44985454677,53343.354564112975,53335.799674487076,53314.07377887652,53294.203078055754,53270.04084229957,53300.59567696997,53361.77240154415,53350.66358454986,53305.46835726123,53267.984481809675,53206.98657119114,53155.75637289958,53119.05480850396,53088.14234592228,53075.960645194136,53063.48837178807,53043.77413317849,53038.02973485348,53043.77413317849,53062.14726712075,53061.14143862027,53028.44083648215,53018.87428985528,52946.78991398691,52924.1923003426,52941.246681362,52933.4459225471,52995.337902943844,53080.54275280747,53115.81380555795,53106.56018335345,53126.45323591867,53143.86524484936,53160.249073535095,53178.53280049954,53176.275274309555,53249.67840310078,53356.58679683052,53360.85598002148,53335.531453553616,53364.72283181224,53387.543962901116,53419.86458538349,53491.412519384925,53569.26364532276,53650.601643395625,53676.23909428586,53737.080542693206,53795.798575377295,53827.046314125815,53914.70985587953,53968.91283618365,54076.64824445823,54160.24376872108,54203.24852505309,54303.67491289078,54344.75741919964,54368.27145436662,54457.767839165674,54557.389564202975,54569.72772714231,54610.36319856205,54712.28715327825,54816.401578951074,54913.63166733166,54997.00367414996,55076.106497777284,55186.81468806442,55279.417965342756,55321.99803853012,55380.76077470312,55419.943382733276,55477.29795900559,55542.8109220041,55606.37928323499,55617.353989762545,55615.118815317015,55643.72904821981,55685.526810351235,55701.57536287014,55679.78241202622,55688.58899934161,55689.72893830883,55682.68813880541,55653.80968496915,55652.44622855738,55558.27832916717,55396.07171965501,55250.45010452868,55088.57877118335,54941.52664441188,54732.090798865655,54436.243109255214,54156.175751230214,53946.471684750526,53764.2379122064,53601.07017768266,53416.265954526185,53127.123788252335,52864.42373566911,52637.687639914475,52393.5171834847,52178.98514020266,51994.35973100182,51789.52834481339,51652.735668746915,51471.105393303085,51320.07465601858,51268.75505074919,51211.46752971024,51152.54833132605,51133.392886327856,51113.47748201818,51085.1578217933,51079.2569612571,51075.0548332995,51105.87788890337,51124.38513331237,51118.0148861426,51148.86029349093,51154.80585751604,51184.57838113051,51277.76280376468,51358.29613903715,51432.235709695306,51551.236397175366,51693.57230586676,51796.56914431681,51932.42304711617,52098.608267141375,52258.44559174128,52432.789198492675,52625.438883952964,52823.45298808253,53011.18528976265,53117.199613714176,53244.62690885388,53431.97923087826,53566.82730517713,53696.40036778455,53876.555428094325,54037.39858119471,54165.71994611263,54277.94805502272,54421.53566140362,54535.84248254806,54558.596558403566,54581.35063425906,54660.14053346402,54794.318055429234,54882.875666961154,54876.63953025813,54887.368367596675,54931.17778672907,54983.19029607657,54989.44878452406,55006.32435158782,55015.22034588103,55012.69459875758,55034.375790879225,55109.879983649254,55107.153070825705,55077.78287861143,55066.94228255061,55096.245419531515,55065.89175056121,55088.57877118335,55099.888753877734,55072.77608785345,55058.60508186878,55093.0044165855,55091.5515531959,55101.96746611207,55191.5756096334,55264.107020390875,55282.770727011055,55269.80671522698,55285.60939855688,55347.12139929789,55377.16214384582,55399.71505400122,55458.656604129865,55512.88193617844,55530.47275906477,55576.42794566488,55718.00389504479,55771.53632301526,55784.790907477254,55847.04051578528,55920.6001067877,55974.89249406964,56041.54539603536,56128.4489784776,56191.68206354166,56241.772322866,56300.42330031673,56394.680606684764,56514.016570331645,56636.25826075772,56722.58069784412,56694.864534719534,56715.60695357406,56798.48722201434,56892.31984523772,56989.28171268484,56997.797727322315,56959.03980243681,56990.75692781889,57086.06476617632,57175.94113063111,57273.640605645254,57346.95432745866,57427.82293889797,57500.823736289,57569.510647000156,57648.568767138575,57680.93409310986,57677.46957271929,57669.489999948746,57682.87869487747,57764.37315516152,57835.27288857376,57883.10562170811,57926.84798560715,57984.202561879465,58034.29282120381,58025.75445482189,57985.85659096916,57940.19197704697,57903.89274405155,57869.761630268295,57795.933818332414,57690.880619392476,57557.08307708301,57401.29141822951,57256.60857637031,57067.490466533956,56821.621277525584,56578.30018738511,56346.04321075002,56112.06514979186,55911.16767062756,55737.62872667656,55569.878884539474,55362.83467564997,55147.81089398991,54925.455740148514,54754.48724680988,54559.87060783752,54350.79239020257,54211.87629841284,54064.62300594128,53916.40858845814,53750.89392076659,53673.08749831766,53592.97884618984,53489.57967633959,53435.488454757746,53356.497389852695,53305.043674116576,53227.39371387884,53163.31126252547,53145.38516347232,53159.220893290156,53152.2471490201,53124.79920682898,53119.568898626436,53116.149081724776,53158.57269270095,53164.47355323715,53196.21303036369,53254.95341479223,53351.8929304949,53465.126867905485,53570.15771510098,53719.48971980688,53863.971395965986,54002.954542989086,54159.34969894287,54240.03949642653,54294.533049408565,54435.1478737769,54600.41667227944,54753.74963924285,54875.834867457736,55007.44193881058,55081.42621295765,55110.52818423846,55173.44834488015,55213.010932566045,55271.48309606113,55357.96199535871,55428.30293515956,55492.854773146486,55560.53585535716,55632.664934714434,55653.720277991335,55638.81166443964,55695.585095356124,55793.2175151369,55804.19222166446,55785.72968074438,55791.45172732494,55806.04741645425,55851.10853327615,55872.610911442156,55829.09206498767,55793.2175151369,55830.32141093272,55827.080407986694,55782.42162256499,55799.87833498458,55805.33216063168,55776.90074168453,55758.013517619795,55715.20992698788,55683.53750509471,55644.64546974248,55612.57071644911,55583.22287597929,55619.05272234115,55671.44521134439,55723.345961969615,55746.211796547395,55747.7093634259,55738.32163075467,55710.51606065227,55740.78032264475,55808.081425199685,55870.509847463356,55896.1920018425,55879.47289698993,55882.736251680406,55889.39707152809,55876.76833591084,55908.64192350411,55971.98676729045,56039.556090778846,56066.177018425115,56098.45293741857,56126.32556275435,56174.69473775563,56199.08049095637,56210.07754922838,56237.77136060851,56298.411643315754,56355.27448121006,56394.77001366258,56418.93224941877,56426.88947044486,56440.23346188468,56499.30912248005,56519.51509946765,56555.9484429298,56660.66636570291,56783.55625671819,56800.83415518214,56851.93024300698,56965.16418041756,57025.49153870244,57036.309783018805,56995.92018078807,56978.41876487956,56987.76179406188,56988.074718484255,57024.66452415759,57060.87435017519,57126.99081027399,57162.37362174674,57156.24924376598,57130.52238589792,57142.52527267043,57104.77317628541,57045.29518428984,56936.73276147041,56816.52507978977,56721.910145510454,56627.54108042015,56452.437514357276,56225.3214389469,55954.194778704026,55660.716374005846,55427.20769968125,55192.26851371152,54965.86769412371,54689.46602218939,54391.96430348925,54163.4847716671,53929.394951986666,53707.88916443458,53480.25899890173,53307.59177298448,53095.00433147005,52910.4906809915,52724.166539212056,52554.561502285185,52337.39195315742,52205.42725389329,52085.06311000146,51947.66693683469,51824.03943825239,51671.444078856,51607.96512460293,51565.34034792666,51494.32885579215,51455.883855329026,51448.4407244254,51450.45238142638,51526.98475444136,51642.5879767642,51714.605297399205,51778.151306885644,51821.64780159567,51882.533953491926,52005.60265846284,52111.684037647734,52216.71488484322,52363.18586625885,52531.31568805167,52684.5368962928,52812.47828155498,52934.18353011412,53094.37848262531,53301.579153726,53472.92762672039,53629.79216930773,53800.335979501724,53998.99828422049,54136.50621610954,54233.222214367655,54346.836131433985,54478.331444064555,54615.10176838658,54751.8720927086,54889.1565071531,55004.42445330912,55104.33675102434,55115.28910580744,55159.791429017954,55222.04103732599,55297.14289869582,55317.08065474995,55330.82697758997,55369.473143753195,55384.694681727255,55397.94926618925,55406.26411512663,55401.19026913527,55437.5342056196,55443.144493477885,55380.89488516985,55359.593672703944,55338.203053260215,55296.36058763988,55217.615391923835,55208.76410111954,55206.864202840836,55170.05087972294,55178.14221121577,55176.1752577037,55110.39407377173,55067.031689528434,55045.8422357848,55052.5924626103,55082.18617226913,55081.58267516884,55116.809024430404,55203.53379291699,55247.32086030494,55242.69404920269,55229.35005776287,55236.25674679956,55319.964029784685,55382.10187937044,55421.48565310069,55484.13759280892,55560.15587570141,55598.86909709801,55599.36083547602,55595.4716319408,55613.68830367188,55705.576325127644,55794.580971548676,55875.42723124352,55944.382362888144,55997.601866436235,56068.38984112619,56078.269312175435,56128.71719941106,56230.104712260334,56304.87129746334,56358.046097522514,56425.88364194437,56544.347887557495,56616.096987259036,56670.70229896335,56739.478616652326,56754.23076799283,56814.066387899686,56929.423741033526,56976.20594217849,56977.97172999045,57031.10182656072,57082.13085915219,57098.91701923812,57148.18026401762,57156.22689202153,57207.07711065735,57264.23052122957,57310.856260163346,57348.74246701509,57382.985339520616,57421.855023128395,57516.20173647425,57632.72138031977,57691.72998568178,57726.62105877651,57756.862969024536,57781.3381292031,57826.48865300282,57816.02803659774,57744.077771196105,57729.90676521144,57695.976817128285,57526.61764939042,57322.6803329802,57130.20946147555,56958.34689835869,56748.32990745663,56468.35195640945,56199.214601423104,55881.59631271319,55590.88952432746,55313.61613435938,55022.775235506924,54733.81188318871,54431.571594664056,54064.667709430185,53759.87932203762,53529.4328367034,53318.678238234315,53125.49211090709,52950.81322798887,52714.42117862954,52522.06206584717,52355.966252799786,52194.43019562128,52088.058243758474,51997.69014092567,51892.860459430274,51806.672132810614,51772.3175015828,51777.88308595218,51809.80137703435,51812.81886253582,51829.962650533045,51855.35423223427,51875.180229566125,51938.50272160801,52040.091400157384,52091.7462815936,52146.86568342039,52152.095991622926,52130.05717158999,52198.67702706779,52294.90128694788,52364.683433137354,52439.964108462824,52559.36712734308,52662.498076259864,52766.97012984397,52941.87253020675,53098.55825883845,53239.70952507371,53384.21355297727,53543.96147059935,53694.656931717036,53859.72456451948,54019.56188911938,54093.32264582189,54191.89383886979,54332.151035326846,54458.483094988245,54585.217486049834,54670.802315569206,54743.08785713767,54831.936041347515,54853.5501782358,54865.24014058592,54871.72214647796,54897.985446212944,54896.666693290084,54873.934969179034,54914.74925455442,54915.86684177719,54905.45092886102,54900.779414269855,54862.66968997356,54819.910802830556,54816.13335801761,54823.59884066568,54862.826152184745,54902.52285033737,54873.175009867555,54857.3499747932,54864.86016093018,54823.2412127544,54825.208166266464,54849.32569853374,54890.654074031605,54922.08062673577,54974.58487446128,54986.274836811404,54933.12238849669,54920.963039513,54908.28960040684,54883.21094312799,54902.05346370381,54955.58589167427,55025.61390705275,55105.409634758194,55156.84099874985,55173.13542045777,55199.59988589286,55277.60747404188,55345.75794288611,55427.92295550382,55506.93637215333,55578.908989299416,55576.65146310943,55625.333562533095,55736.22056677587,55857.61289091264,55954.530054870855,56056.18578865359,56112.82510910334,56130.68415292313,56208.445871883145,56239.693610631664,56253.596395682864,56306.50297480857,56359.61071963439,56431.15865363582,56495.33051196701,56560.17292263186,56571.21468439278,56644.886034117466,56692.20467712935,56737.53401488472,56828.0138764398,56905.26150527734,56985.92895101654,57015.455605442,57054.8170274278,57113.80328104536,57192.52612501695,57262.48708516206,57274.08764053436,57308.24110606207,57365.55097884548,57447.53717750755,57567.119010343435,57632.78843555313,57665.57844466907,57714.640523748465,57721.077826151595,57687.39374725745,57703.48700326527,57700.55892474162,57684.4656687338,57649.08285726105,57671.79222962764,57682.5657704551,57713.79115745916,57744.45775085184,57734.95825945834,57703.241134076256,57676.329633752066,57582.228789595225,57465.70914574971,57360.00774622056,57231.03818071344,57046.2116058125,56830.24905088533,56574.38863210543,56299.48452704961,56013.85158465524,55736.15351154251,55454.52153140563,55154.136437670764,54844.34125952021,54561.4799334383,54262.21242692619,53950.62910921921,53594.36465434607,53281.57434243851,53032.71001967311,52777.721318926975,52523.045542603206,52332.78749379963,52100.75403460909,51873.95088362109,51720.28264049085,51600.8796216106,51497.52515524926,51402.88786922549,51320.29817346313,51251.67831798534,51229.3936287634,51225.25855603917,51217.94953560228,51219.55886120306,51261.28956810112,51320.946374052335,51374.83642993408,51443.702154600884,51519.11694039308,51614.60359270616,51721.936669580544,51806.00158047695,51879.27059880145,51947.7116403236,52059.51506608904,52205.069625982,52366.47157269378,52542.71507772387,52717.12573970864,52896.766709895935,53080.05101442945,53266.665728886815,53476.23568489977,53750.49158936639,53974.52312404193,54155.61695761883,54341.650526720354,54542.23508146228,54714.745845168334,54890.028225186856,55059.43209641363,55197.94585680316,55422.1338536899,55595.6727976409,55697.28382793473,55859.15516128006,55997.55716294732,56086.315940179345,56173.59950227732,56239.4253896982,56362.47174292467,56450.98465096768,56497.67744513482,56579.9542164748,56675.150296109954,56729.532090369714,56712.79063377269,56700.810098744645,56733.19777646039,56724.32413391163,56682.19109561337,56673.29510132016,56666.25430181674,56651.032763842675,56650.9210051204,56678.61481650053,56703.537011568194,56690.0812614061,56721.0384274767,56774.23557928033,56816.59213502314,56824.14702464903,56844.263594658805,56846.63287957107,56858.54635936575,56848.68924006096,56866.7718013253,56901.97579884241,56911.92232512502,56925.7357031984,56987.22535219495,57044.065838344795,57123.99567651698,57159.64670892319,57165.704031670575,57183.250151067994,57221.2034131531,57278.557989425426,57310.6774462077,57377.822086551445,57482.38354711337,57539.29108849658,57582.96639716225,57700.22364857479,57868.286415134244,57970.56799776173,58085.567722984284,58184.45184045457,58219.49937576048,58264.8510652603,58354.34745005935,58468.56486422597,58527.2158416767,58580.815324880525,58658.42058162935,58716.37865500196,58713.94231485633,58803.058719999644,58927.200308704414,58983.37024252061,58980.46451574141,59030.37596111011,59053.957051510464,59045.999830484376,59027.29142037528,59069.893845307095,59094.436060719025,59068.709202850965,59033.482853589405,58969.33334700267,58978.0728790847,59064.44001966,59102.14741255611,59144.638078765645,59171.057840711816,59177.45043962604,59186.23467519697,59206.66416962912,59251.61352772875,59268.31028083686,59256.75442895346,59255.77095219743,59255.30156556387,59250.25007131697,59264.666946490644,59319.71929308406,59309.59395284581,59279.620263531244,59249.95949863905,59205.43482368408,59158.29499462784,59124.163880844586,59123.69449421102,59069.35740344017,59028.45371108696,59015.60145802516,58995.55194324875,58980.978605863886,58961.44318120995,58889.537619297225,58801.650560098955,58658.75585779618,58464.80977115748,58223.72385546254,57976.24534085338,57759.67928882591,57510.1220619824,57183.94305514611,56869.14108623756,56594.59460909303,56326.41837911825,56014.54448873335,55705.55397338319,55412.790824507574,55102.48155623455,54794.809793807246,54499.38678734146,54250.18718840923,54000.31703714336,53737.77344677132,53497.69335957687,53271.203133011244,53064.6730142442,52885.97081732402,52754.60961516018,52669.74004146338,52579.41664211949,52476.91154204745,52375.03229082016,52320.2481651602,52325.72434255175,52339.15774096939,52272.16956283684,52237.747876375666,52258.24442604118,52286.16175486586,52305.4960138197,52302.85850797397,52363.67760463686,52404.536593501165,52417.5229570297,52435.73962876078,52523.15730132548,52654.09382034467,52755.68249889404,52835.41117136612,52918.62671597323,53003.71980711458,53113.37746541232,53202.42681532226,53330.79288372909,53511.43968241688,53720.383789585096,53924.16464378413,54068.33339552086,54182.10377479837,54356.71560248323,54527.818206288604,54634.86071048507,54709.806109643716,54814.68049462802,54937.12335075419,55071.27852097494,55197.834098080886,55289.85623000339,55331.922213068276,55374.546989744544,55408.00755119414,55428.57115609302,55433.80146429557,55453.31453720505,55499.001502871695,55544.26378539369,55559.99941349023,55580.09363175555,55570.63884385095,55563.307471669614,55553.98679423175,55598.80204186464,55575.846800309046,55554.65734656541,55571.219989206795,55558.74771580073,55545.001392960716,55492.02775860164,55446.60901386846,55430.001667738165,55462.70226987628,55543.101494682014,55635.86123417154,55679.0448044592,55673.1886474119,55713.131214753535,55749.74337217133,55733.91833709698,55723.43536894744,55712.77358684225,55738.94747959942,55764.22730257837,55788.90362845703,55797.24082913886,55843.59834713917,55885.887847648606,55873.32616726472,55867.40295498407,