29216.054584509682,29305.394507097546,29369.94634508447,29431.190124892015,29452.02195072436,29506.001413583926,29590.75922855845,29673.77360746546,29749.121338024303,29847.87134502785,29939.446442061242,30009.206236506256,30055.317885317552,30098.993193983224,30145.462470705806,30186.50027352575,30250.202745223374,30330.221990373375,30396.07022953871,30454.318875589237,30485.432503871027,30544.597571444225,30601.527464571893,30665.87813685872,30727.79246899992,30762.348265927827,30803.25195828104,30858.661932785744,30893.06126750246,30928.44407897521,31022.053184754037,31101.357174081466,31126.122906937948,31106.945110195295,31127.307549394078,31047.176545521805,30932.288579021526,30872.92234574823,30847.776633236008,30775.178167245173,30681.859634144264,30544.23994353294,30360.553307599224,30226.576951334115,30092.66765030237,29928.717604722693,29807.81701896394,29758.08438755088,29676.411113311187,29590.491007624987,29513.466896232,29413.15226711658,29311.116553678105,29235.12062253006,29126.982882855285,29017.347576302003,28936.814241029533,28938.937656752787,28938.82589803051,28921.413889099826,28891.328441062982,28877.023324611586,28866.540356462046,28849.262457998095,28870.29544953054,28916.362394852928,28949.77825281361,28983.97642183023,29057.580716321554,29116.656376916933,29166.523118796722,29226.649311381498,29310.401297855533,29333.55770511123,29373.120292797124,29441.11429943017,29517.37845151168,29583.293745910378,29650.01370310947,29801.22325434962,29980.975983259203,30155.63251443297,30322.980025169854,30479.218718912452,30559.90851639611,30665.92284034763,30837.874810442307,31006.250501424136,31110.3425753525,31197.804951406117,31272.90681277595,31353.44014804842,31444.3223410037,31547.76621434286,31640.525953832384,31747.9931411735,31845.60320920983,31938.206486488165,32018.62806303836,32128.17396261382,32193.12813200094,32261.94915317883,32310.653604346946,32379.98871564731,32429.49782961581,32474.491891204347,32548.11853744013,32552.81240377574,32528.292540108272,32569.039770250296,32608.200026535993,32622.326329031748,32578.96394478845,32546.844488006176,32581.422636678537,32635.51385826038,32660.816032983785,32640.23007634045,32617.096020829205,32624.114468588174,32672.170719167083,32724.227932003494,32751.787632916887,32739.941208355573,32781.403694320165,32814.9983662365,32896.761047454005,32939.966969486115,32966.09615875437,32982.971725818126,32973.025199535514,33021.50613325908,33099.17844524127,33119.54088444005,33138.24929454915,33206.55622560457,33239.457993442775,33233.22185673974,33248.421042969356,33288.96710741128,33373.36729447452,33487.83057783015,33549.27552333778,33543.844049435145,33531.39412777354,33607.83709381069,33690.71736225097,33717.785324786346,33757.6161334057,33842.50805884696,33938.352339071316,34038.89048563129,34104.090524207415,34144.27896073806,34197.364353819416,34270.45455818827,34320.813038446075,34378.480539140764,34417.05965007063,34423.094621073564,34488.02643871623,34585.16712011899,34636.35261492165,34654.05519653025,34699.40688603007,34725.513723553864,34753.67692156755,34862.37345485371,34918.02929854742,34897.711562837554,34917.00111830248,34980.904755700205,35019.39445965224,35072.636314944786,35150.1968682047,35249.23744788617,35324.47341972273,35363.90189694189,35354.156536359376,35347.0933851115,35363.87954519744,35390.366362376975,35436.612121655,35472.419616272404,35539.29603568269,35601.23271956834,35560.82076559315,35512.1833696584,35512.54099756968,35469.580944726586,35388.73468503173,35292.15279724036,35224.24819758513,35160.501022398596,34991.052447682916,34800.99556457944,34719.81402871776,34635.27973118779,34530.49475318131,34401.01109755172,34284.31263975056,34140.74738511412,33963.54275507245,33809.69569798657,33705.111885680184,33609.424067667016,33519.525351467775,33431.52653354723,33342.47718363728,33269.74460717972,33194.441580109786,33128.88391362237,33120.23378851817,33105.571044155484,33086.39324741283,33047.59061903842,33016.36523203435,33018.8462756689,33049.11053766138,33121.06080306302,33133.823649146994,33189.52419632962,33273.61145897048,33322.62883456097,33364.2254309923,33446.92688547693,33538.814906932705,33577.66223879602,33631.52994293332,33712.51031309489,33763.18171777508,33793.20011057855,33874.82868132933,33962.35811261632,34031.26854077203,34117.434515647234,34182.72396120119,34283.6420874169,34456.3316650786,34615.073754200195,34735.41554634757,34869.50366133495,34997.42269485268,35066.266067775025,35116.311623610454,35206.09858108742,35296.62314613142,35402.928042760854,35450.82783112858,35549.063748009656,35652.8652492601,35799.13506497563,35901.5731098143,35954.12206102873,35993.10350335878,36001.306593573885,36048.24525693003,36098.42492323219,36201.31000295997,36238.61506445588,36305.78205654408,36348.473888453715,36373.19491782128,36366.981132862704,36413.04807818509,36469.41917770138,36539.64835877995,36544.364576860025,36565.86695502603,36607.10592354607,36694.523596110776,36758.89662014206,36828.05291748678,36899.846720677226,36900.20434858851,36872.89051686413,36844.81672582826,36892.224775817966,36934.96131121651,36914.71063074,36965.56084937583,37024.74826869348,37071.77633902745,37137.22224679259,37192.40870385274,37251.99845457059,37312.21405413318,37355.77760407658,37405.420828511815,37488.65872486338,37554.64107449545,37620.623424127516,37677.95564865538,37703.21311988987,37772.83880386815,37791.30134478824,37803.25952807182,37844.58790356969,37886.51977616784,37961.21930613748,38020.51848417741,38113.25587192248,38204.5180445335,38288.940583341195,38311.35938302986,38314.55568248698,38370.85972676989,38468.55920178404,38555.82041213756,38624.12734319298,38671.84831760506,38713.73548671431,38743.86563824006,38819.68275543246,38889.46490162193,38936.06828881124,38966.75723394838,39010.901929247615,39043.53547615236,39110.523654284916,39201.47290247356,39266.829403260876,39347.45214551117,39375.36947433585,39370.228573111126,39388.8475762424,39391.753303021585,39435.09333552043,39484.602449488935,39484.75891170012,39514.39732484786,39546.29326418558,39559.77136609213,39582.23486926971,39602.61966021296,39655.30272189411,39661.695320808336,39607.02295387065,39533.39630763487,39484.82596693349,39453.913504351796,39403.37621013835,39373.246058612596,39310.25884273754,39165.48659390052,38991.43355982704,38858.1724593845,38747.21839990836,38597.39465682443,38486.46294909274,38345.26697936857,38217.72792550659,38095.53093856942,37963.34272186074,37836.18364765449,37691.769026728754,37603.70315357485,37545.85683892451,37501.66744013637,37503.500283181704,37446.50333482067,37333.02352822108,37281.72627469615,37257.80990812897,37222.5835588674,37213.15112270726,37216.12390471982,37184.83146248239,37206.19973018167,37306.06732440797,37358.795089578045,37365.59001989246,37368.04871178254,37369.59098214996,37419.748296707665,37487.22821321824,37532.3563852735,37588.25809815623,37669.35022704008,37736.8077918062,37790.541385476754,37831.467429574426,37866.11263348015,37919.77917191734,38041.327958265305,38162.899096357716,38197.87957643027,38270.79096684349,38355.25820914009,38445.73807069517,38512.52508312763,38596.344124835035,38665.03103554619,38727.52651304323,38849.79055521376,38931.8885125981,38977.888402687124,39042.4625924185,39081.30992428183,39144.61006457926,39268.57283932839,39337.81854365093,39382.522032561545,39453.622931673875,39578.72564539023,39723.16261806043,39816.59290988361,39844.912570108485,39910.13496042907,39984.67802818752,40008.88496743262,40034.500066578395,40058.86346803468,40062.462098891985,40049.945121997014,40013.40001981259,40020.75374373839,40079.5611834003,40126.27632931189,40171.42685311161,40189.59882135377,40163.91666697463,40178.08767295929,40256.2517233195,40325.07274449739,40382.13674809179,40439.93835925321,40550.69125302926,40598.322820463516,40588.666866858825,40672.46355682177,40766.184421322876,40837.93352102441,40919.04800165272,40997.927307835496,41102.75698933089,41167.442937784544,41235.45929616205,41298.670029481655,41356.60575110981,41412.82038841491,41476.74637755709,41595.456492359226,41672.882935152404,41747.627168610954,41837.123553410005,41896.98152506132,41985.941467993434,42082.29983834027,42200.60762174221,42304.69969567057,42392.38558916874,42497.88582299779,42565.768070908554,42636.86897002089,42780.65774210188,42898.11615921452,42985.66794224596,43095.81733892171,43192.68979939101,43257.15223040012,43360.506696761455,43535.4761523576,43650.78880200253,43731.67976518629,43791.96241998225,43847.43944972032,43900.30132535712,43924.57531983558,43986.02026534322,44022.408905316464,44102.29403999973,44170.93624722198,44236.13628579811,44340.40717368212,44496.601163935804,44604.202461743655,44635.383145258806,44678.857288224375,44771.86289690291,44825.97647022921,44850.54103738559,44880.961761589264,44911.89657591541,44949.89454148943,44966.47953587527,44983.62332387249,45016.323926010606,45044.48712402429,45033.221844818814,45023.789408658675,44997.503757179235,44950.386279867445,44904.00641012268,44840.50510412516,44749.7123181477,44650.7387936996,44484.307704485385,44307.930088988556,44152.80898246873,43935.32650891859,43778.75253900916,43691.5136804001,43574.30113247647,43444.99629080252,43331.09180105827,43240.50018078091,43082.38394050407,42913.87413905551,42770.487698374716,42660.11478425441,42569.053777343484,42496.16473867473,42437.37965075728,42357.53921956292,42283.57729716031,42213.95161318203,42207.26844158989,42239.43260186107,42279.3304657138,42297.14480604468,42247.59098858726,42241.4219071176,42241.91364549562,42259.102136981746,42264.041872506365,42266.433509163086,42309.39356200619,42383.668408831174,42476.00346517604,42532.97806179262,42589.1032921199,42626.117780937886,42722.14087511789,42827.886978135946,42907.68270584139,42962.01979661224,42971.519288005744,43019.061448462184,43092.24105980886,43209.65477343259,43315.75850436193,43408.898223507196,43469.73967191454,43546.09323097387,43641.06579316447,43755.19380035327,43871.28876105413,43946.16710497941,44018.74321922579,44105.06565631219,44200.261735947344,44244.67465218004,44259.65032096509,44307.59481282173,44381.534383479884,44447.807305789865,44498.210489536585,44540.27647260147,44583.92942952269,44623.53672069749,44666.78734621851,44698.41506462277,44788.6714087333,44848.90936004035,44877.98897957671,44911.96363114878,44940.75267800721,44943.72546001976,44947.77112576618,44959.684605560855,44999.00132405774,44987.870155319,45019.453170234345,45051.37146131652,45058.6357782645,45077.3888918625,45122.852340084595,45223.81516978922,45270.12798430061,45253.654748637055,45289.68576069901,45355.69046207553,45445.81269571933,45499.747455089986,45535.15261830719,45575.18459262665,45599.99502897204,45633.79086658846,45644.296186482454,45672.86171589634,45724.04721069899,45805.34050528294,45897.34028546099,46018.0620572641,46080.84810743906,46163.97424506834,46228.0119929328,46329.46656101544,46427.501312196415,46524.21731045453,46638.03239322095,46744.337289850395,46843.62373872087,46903.861690027916,46971.319254794034,47059.139258758936,47144.65703304494,47229.66071720848,47343.520503463806,47423.31623116926,47536.25959590192,47642.36332683126,47736.419467499196,47816.08108473791,47884.79034719353,47925.00113546862,47970.12930752389,48051.154381174376,48103.435111455336,48113.18047203785,48220.55825240115,48371.14195479655,48495.149433034596,48575.682768307066,48637.44063823708,48699.73495003402,48764.66676767669,48828.19042541867,48829.866806252816,48851.90562628575,48912.76942643755,48949.470990833164,48961.02684271656,49036.732201186685,49110.403550911375,49185.61717100348,49221.916403998905,49258.819134094614,49257.500381171754,49269.9279510889,49294.60427696756,49345.230978158834,49373.5059348948,49422.21038606291,49460.4765725704,49473.50763958784,49447.713726486414,49411.079217324164,49380.09969950911,49382.8042605882,49321.538129036206,49259.91436957293,49217.155482429924,49142.433600715834,49040.934329144286,48903.78402516652,48709.346200149805,48532.29803231931,48344.18575098345,48165.237684874264,48048.7403927732,47907.07503641547,47708.74800786353,47537.39953486914,47455.05570829579,47363.63707347358,47284.243677168335,47190.5898679006,47031.847778779,46943.04429805807,46862.17568661877,46765.68320580521,46722.589042495376,46667.33553020186,46644.5591026019,46622.87791048025,46538.47772341701,46503.430188111095,46460.850114923735,46421.64515514913,46409.50815790989,46417.04069579133,46479.75969073292,46549.34067122229,46530.54285413538,46528.71001109004,46555.93443583661,46623.92844246965,46705.28879228697,46800.08254052193,46902.252364427135,47026.01397347617,47151.72018429282,47226.1961968179,47235.89685391151,47311.60221238163,47409.54755658479,47500.27328732888,47654.88030372623,47810.62725909081,47927.72804829217,48036.0893054115,48174.91599022341,48299.61637253957,48402.83672843417,48483.682988129025,48571.92767523857,48735.94477605162,48945.15710415329,49119.79128358261,49210.02527594868,49300.59454448158,49426.54662448724,49532.60565192767,49619.82215879228,49681.66943570012,49756.74894532549,49848.6146150368,49950.583273241915,50038.62679465137,50154.02885127412,50244.687526784845,50317.93419336488,50352.44528680388,50367.06332767765,50422.69681962691,50505.08534968917,50573.10170806667,50588.68087395202,50653.70209857251,50765.97491097151,50841.81437990837,50881.39931933872,50938.61978514431,50956.83645687538,51006.25616386606,51101.63105745686,51190.79216608908,51228.11957932945,51296.87354527397,51399.378645346005,51428.77118930474,51464.75749787778,51493.74771043631,51552.80101928723,51629.869834169134,51699.33905593623,51794.49043208247,51926.09750343532,52017.35967604633,52061.30320564547,52120.31181100748,52200.73338755767,52285.31238857656,52351.205331230805,52427.08950365657,52527.87351940555,52580.13189794206,52594.973456260384,52693.03055918581,52793.16637434559,52867.44122117057,52932.01541090196,52993.37094943177,53095.92075299272,53175.56001848698,53219.52589983057,53285.15062155135,53380.63727386443,53462.15408589293,53517.96639179783,53621.49967211481,53709.72200747991,53783.840392093705,53849.219244625485,53910.15010001065,53934.33468751129,54016.07501698435,54080.1127648488,54133.75695154154,54204.410815764764,54304.83720360246,54390.26557091065,54448.38010649444,54512.306095636624,54579.31662551363,54629.18336739342,54704.486394463354,54724.468854006394,54820.13432027511,54906.30029515032,54933.502368152425,54994.70144447106,55023.334029118305,55040.29900315988,55092.71384390758,55155.455190593624,55164.68646105367,55171.39198439026,55168.57566458889,55198.50465041455,55263.12354363484,55311.716236080676,55393.38951032037,55462.16582800935,55537.22298589027,55589.70488187133,55624.88652764398,55666.90780721996,55735.41590397548,55782.89100919855,55810.942448489965,55825.135806219085,55864.00548982686,55844.917100062026,55821.87245152861,55801.44295709646,55811.1212624456,55787.56252378971,55739.23805227734,55662.68332751791,55566.548474615636,55405.9288389598,55269.09145940441,55166.027565720986,55029.05607569886,54870.8504284442,54712.19774630043,54562.19518926087,54423.9943532937,54290.71090110671,54184.18248703271,54022.13233973174,53842.80429396681,53743.987231729894,53607.08279694114,53488.95382749484,53393.71304437078,53260.02726078359,53094.35613088085,52941.313736595366,52877.678320131105,52846.05060172685,52791.93702840055,52759.92933034055,52732.123760238144,52708.11798669315,52707.112158192656,52695.13162316461,52658.05007911326,52640.01222133783,52633.01612532332,52667.63897748459,52715.67287631904,52757.940025084026,52770.54640895682,52821.77660724838,52853.918415775115,52892.89985810517,52981.74804231501,53082.241485386076,53159.01972759006,53231.05939996951,53253.54525489155,53327.551880783074,53396.216439749776,53514.39011268498,53607.529831830245,53722.328391352705,53875.48254436047,53997.25484815298,54073.764869423496,54243.012278439084,54399.80976579306,54565.97263407381,54721.898403394036,54836.16052104957,54891.52579206536,54949.506217182425,55072.1502390087,55160.75255402953,55235.54149097699,55335.31967822548,55400.16208889033,55450.408810425855,55558.03245997816,55695.13806046702,55757.678241452966,55797.28553262777,55868.81111488475,55942.90714775409,56012.71164568802,56050.28492811739,56067.227550414515,56179.18743839115,56261.575968453406,56286.56521875444,56294.41068105825,56339.29298392451,56369.33372847244,56405.32003704549,56409.008074880614,56478.07496524751,56553.55680627308,56568.21955063577,56569.448896580805,56601.52364987417,56638.96282183681,56660.68871744737,56708.65556104846,56739.56802363015,56813.57464952167,56876.76303109682,56866.03419375828,56864.78249606878,56864.35781292413,56880.96515905442,56926.69682820998,56984.364328904674,57017.71313163199,57061.50019901994,57074.128934637185,57115.77023455742,57178.80215392139,57218.498852074015,57270.95839631062,57311.99619913056,57354.64332755129,57369.06020272496,57372.61413009335,57398.02806353904,57451.784008954055,57494.05115771904,57549.081152568004,57631.67084833037,57700.76009044172,57731.58314604559,57763.32262317212,57779.01354777975,57776.71131810085,57824.38758902402,57836.211661840876,57800.53827769021,57811.960019106875,57825.169900079956,57874.231979159355,57974.47955304141,58038.33848695022,58090.462755019995,58139.86011026623,58198.265218527944,58215.52076524744,58209.597552966785,58195.694767915586,58206.0883290873,58232.6422015002,58279.089126478335,58305.48653668005,58316.05891180741,58304.50305992402,58370.46305781163,58418.80988106846,58402.62721808282,58403.90126751677,58393.17243017822,58364.20456936414,58344.937365643666,58298.91512381019,58281.01137650149,58241.0464574154,58221.17575659463,58241.00175392649,58239.995925426,58175.131163016704,58110.37815932967,58117.59777278874,58117.64247627765,58106.466604049994,58115.38495008767,58143.950479501545,58114.379121587175,58098.9117144241,58129.913583983616,58086.23827531794,58016.41142563956,57983.017919423335,57923.85285185014,57914.442767434455,57882.45742111891,57826.980391380835,57736.38877110348,57603.73116776123,57456.34376482294,57327.284792337996,57243.37634365277,57139.574842402326,57021.40116946711,56863.53079837928,56702.44177608989,56521.012666346156,56322.01508546056,56085.95831226806,55863.62551017112,55639.57162375112,55445.98316502371,55292.31492189347,55090.23280027304,54899.08068169125,54758.35409860064,54608.28448632771,54392.23252442271,54244.10751391739,54129.44306486167,54041.84657834132,53945.95759462805,53827.336886803736,53725.77055999882,53675.36737625211,53569.17423834494,53540.20637753086,53524.87308083452,53481.711862291326,53429.252318054714,53378.89383779691,53353.03286946212,53319.0358661456,53336.581985543016,53424.781969163654,53450.933510176365,53453.48160904427,53427.9112133874,53444.943242662346,53447.781914208164,53532.651487904965,53580.21600010586,53625.27711692776,53679.122469320595,53780.82290659224,53834.042410140326,53815.95984887599,53884.28913167586,54043.74647662002,54151.12425698331,54245.82859824045,54312.12387229489,54381.81661150654,54473.570522495575,54540.71516283932,54589.77724191872,54701.15598453951,54839.42387574004,54934.754065841924,55006.65962775465,55047.742134063505,55089.09286130582,55179.103336227345,55274.76880249606,55325.03787577604,55367.1709140743,55409.21454539473,55435.54490036308,55473.87814210393,55514.22304084576,55578.32784394358,55614.001228094254,55618.4268734964,55603.83118436709,55602.37832097749,55604.85936461203,55632.955507392355,55659.4870280608,55668.472429331836,55696.0991854786,55732.778398129754,55687.24789467429,55662.97390019583,55693.08169997713,55713.6006013871,55744.870691880074,55731.81727311818,55729.11271203908,55743.08255232365,55798.0231401948,55847.68871637448,55876.81303939975,55872.07446957523,55886.73721393791,55916.62149627465,55918.052007919796,55966.24236896544,56025.78741619438,56038.75142797845,56028.96136390703,56010.99056136496,55996.30546525782,56040.383105323686,56127.1972807881,56180.21561863609,56206.613028837804,56232.74221810606,56221.78986332296,56248.81312236943,56292.890762435294,56364.1034202699,56390.277313027065,56429.571679779496,56422.53088027607,56443.206243897235,56506.84166036149,56555.83668420753,56623.45071118483,56624.188318751854,56637.17468228039,56664.26499656022,56674.36798505402,56708.96848547083,56765.38428847603,56834.02649569828,56865.60951061363,56890.53170568129,56914.939810626485,56983.6490730821,57070.91028343562,57094.53607732488,57124.889746295186,57172.007223606975,57204.50666004499,57204.05962515588,57210.586334536834,57237.14020694974,57252.20528271262,57253.05464900192,57223.63975329873,57260.363669438804,57337.56659478744,57388.95325529019,57395.21174373767,57400.86673508486,57463.98806142665,57545.9295565998,57549.57289094602,57532.49615818217,57516.447605663256,57547.22595777822,57588.375519320434,57611.5989818095,57658.64940388792,57639.38220016745,57659.69993587732,57694.83687816106,57670.518180193685,57672.485133705755,57671.12167729398,57691.39470951494,57696.78147992867,57649.194615983324,57582.56406576205,57550.064629324035,57509.22799220419,57450.733476964655,57405.582953164936,57332.06806565143,57216.263677628485,57103.700292551555,56917.197336816476,56730.35910491456,56577.24965539571,56396.915781130294,56190.29625538543,55998.18301179207,55833.49535864536,55665.54435080819,55489.79258415611,55306.70944532269,55116.20552733011,54939.649097877635,54772.45804935194,54642.81793151116,54600.126099601526,54540.2234244613,54467.557903237095,54430.05167604109,54371.55716080155,54308.88286934887,54249.024897697556,54164.89293156778,54085.03014862897,54047.83684585534,54029.21784272407,54011.470557626555,54008.20720293608,54005.055606967886,53978.747603743985,53974.88075195322,54003.781557533934,54051.390773223735,54101.48103254808,54180.516800942045,54219.27472582755,54285.4135376708,54395.04884422408,54442.0992663025,54499.587953041555,54578.780183646704,54642.683821044426,54712.60007770063,54773.352119130155,54833.27714601483,54952.523702683895,55044.1435032062,55112.964524384086,55195.30835095744,55236.770836922035,55328.92707931127,55503.8518314185,55640.644507484976,55726.899889338005,55788.12131740109,55869.77223989633,55916.53208929683,55902.53989726781,55953.479522881455,56008.576572963786,56041.768913479915,56047.46860831602,56090.62982685922,56138.06022859338,56151.02424037746,56120.80468187388,56114.30032423739,56117.4966236945,56127.420798232655,56177.466354068085,56222.147491234246,56267.163904567235,56276.596340727374,56259.92193936372,56234.77622685149,56212.782110307475,56193.67136879818,56226.550784891944,56254.66927941672,56293.874239191326,56268.348547023365,56227.668372114706,56213.16208996321,56245.3262502344,56284.73237570911,56258.916110863225,56220.046427255445,56213.09503472985,56252.076477059905,56281.3349105519,56277.42335527222,56275.36699478233,56301.65264626177,56351.78760907503,56449.08475268898,56483.55114263906,56503.22067775973,56519.80567214557,56494.54820091107,56518.978657600725,56526.57825071553,56506.685198150306,56551.701611483295,56598.41675739489,56603.691769086334,56636.30296424663,56688.27077010522,56733.37659041603,56721.53016585472,56709.92961048241,56698.88784872149,56736.01409626175,56806.60090525162,56892.431603959994,56937.49272078189,56879.35583345364,56861.16151346702,56890.621112659115,56927.34502879918,56957.34106985821,57018.6072014102,57083.51666730842,57068.40688805663,57059.77911469688,57031.63826842765,57041.070704587786,57110.02583623241,57144.44752269358,57138.94899355758,57202.13737513273,57240.60472734031,57221.359875364295,57248.31607917739,57263.00117528453,57325.07196963692,57329.8328912059,57332.090417395884,57395.9493513047,57468.056078917514,57529.05398953605,57583.10050762898,57612.135423676424,57625.45706337179,57615.3987783669,57641.12563623496,57667.67950864787,57625.010028482684,57590.476583299234,57564.86148415345,57553.775018903616,57581.24531283919,57532.69732388227,57466.670270761286,57459.49536079114,57480.99773895714,57485.64690180384,57459.42830555777,57329.788187716986,57199.812793709374,57117.64778109167,57029.872480615675,56906.423795989016,56761.897416341,56596.27098992717,56415.244211583646,56243.046372299956,56109.04766429039,55972.45615392401,55775.09025038365,55603.04887331115,55399.379777834394,55198.817574836925,55014.77331099192,54909.67540856307,54800.75535783236,54667.13662947853,54519.83863351806,54421.0439230256,54334.85559640594,54222.26985958456,54093.99319815555,54045.48991268753,53994.84085975181,53932.70301016606,53908.6748848766,53910.23950698847,53909.99363779946,53859.23282614146,53808.29320052781,53758.38175515911,53745.57420558622,53796.424424222045,53880.466983374004,53954.563016243344,54019.78540656393,54098.84352670235,54127.05142820495,54161.33900419939,54248.84608374192,54346.72437271171,54407.789338563605,54466.70853694779,54495.60934252851,54533.02616274669,54627.372876092544,54768.233569649885,54919.64428659014,55047.04922998539,55136.56796652889,55236.59202296639,55326.244869976625,55403.73836800318,55482.46121197477,55579.08780325506,55636.241213827285,55688.5442958527,55761.299224054725,55891.542838995796,55962.19670321902,55941.61074657569,55972.74672660193,56007.90602063013,56056.49871307596,56131.15353955669,56182.80842099291,56159.45084803711,56176.10289765631,56189.558647818405,56193.134926931256,56216.045464997944,56261.39715449777,56303.77606198503,56281.51372450754,56218.63826735476,56234.88798557377,56247.516721191016,56286.52051526553,56334.844986777905,56312.046207433494,56274.56233198194,56240.85590134334,56181.64613028123,56167.2069033631,56184.30598787141,56185.445926838634,56220.29229644446,56296.35528282586,56276.77515468302,56271.164866824736,56242.42052345521,56220.98520052257,56258.022041085016,56319.19876565919,56338.04128623501,56369.44548719472,56363.29875746951,56333.034495477026,56339.58355660243,56380.21902802218,56377.134487287345,56414.4171970388,56469.760116310135,56506.28286675011,56460.327680149996,56455.81262777003,56505.00881731616,56562.27398661066,56613.638295368946,56705.41455810244,56752.6437941365,56750.028640035234,56762.120933785554,56758.32113722815,56784.04799509621,56867.86703680361,56965.342994373204,56988.09707022871,56981.771526547855,57019.81419561079,57070.77617296889,57088.12112666621,57092.47971683499,57089.46223133353,57044.73639067846,57072.36314682521,57088.7246237665,57091.94327496806,57103.8791065072,57156.22689202153,57220.242288141526,57277.39569871375,57284.548256939444,57321.02630389051,57349.45772283766,57386.04752851099,57409.762729378075,57454.26505258859,57519.84507082046,57535.69245763928,57536.8323966065,57528.09286452447,57544.07436181002,57524.36012320044,57549.170559545826,57584.97805416323,57601.92067646035,57649.93222355035,57637.77287456666,57637.83992980003,57614.05767369958,57613.78945276612,57653.55320615211,57652.860302074,57610.70491203129,57646.17713048186,57659.67758413286,57609.78849050862,57505.29408518006,57393.065976269965,57315.75129219906,57251.37826816777,57157.56799668885,56993.79676506481,56817.79912922372,56668.46712451782,56488.356767696954,56281.75959369655,56019.88655565817,55801.8229367522,55659.4870280608,55506.26581981967,55316.72302683867,55148.8167224904,54939.2691182219,54735.19769134494,54572.499343454765,54426.40834169488,54314.62726767389,54237.2008248807,54084.02432012848,53928.411475230634,53857.93642496305,53785.06973803875,53675.90381811903,53589.11199439907,53529.47754019232,53464.568074294104,53440.517597260194,53481.354234380036,53424.42434125237,53370.75780281518,53342.75106701268,53347.534340326114,53350.8423985055,53368.790849303114,53386.068747767065,53411.61679167948,53455.269748600695,53520.64860113247,53604.110014928585,53653.663832386,53700.647199231054,53738.935737483,53812.27181104086,53865.357204122214,53939.58734745829,54068.735726921055,54218.53711826052,54298.95869481072,54390.98082673321,54511.79200551415,54593.30881754265,54631.30678311668,54756.38714508858,54845.16827406506,54973.08730758278,55082.49909669151,55121.10055936582,55207.53475517449,55318.24294546163,55397.54693478906,55471.1959327693,55520.392122315425,55553.42800062037,55615.38703625048,55705.5986768721,55770.239921836845,55774.68791898345,55763.86967466708,55771.22339859288,55800.5712390627,55846.4817221739,55836.803416824754,55825.560489363736,55889.95586513947,55952.83132229225,55959.782714817855,55931.12777842615,55897.287237320816,55856.450600200966,55867.358251495156,55885.798440670784,55942.303650653805,56001.13344206017,56004.307389772825,56007.50368922993,55987.90120934263,56018.9701341355,56023.44048302656,55989.8681628547,56040.65132625715,56068.546303337374,56060.454971844556,56076.52587610792,56071.89906500567,56046.55218679336,56029.94484066306,56078.559884853355,56138.12728382675,56157.37213580277,56187.50228732852,56197.5158688445,56233.83745358437,56252.72467764911,56290.3873670563,56393.47361248417,56426.487139044664,56416.004170895125,56435.51724380461,56470.92240702181,56498.57151491303,56530.55686122857,56568.64423378042,56615.649952369924,56645.04249632866,56667.885979161976,56689.142488138976,56728.638020591505,56800.54358250423,56894.93499933899,56920.818319418235,56919.96895312893,57000.27877095685,57054.92878615008,57102.91798149562,57115.4796618795,57149.40960996266,57196.84001169682,57219.99641895252,57232.535747591945,57238.414256383694,57255.3121751919,57272.29950097794,57273.86412308981,57248.18196871066,57274.10999227882,57289.35388199734,57251.17710246767,57297.40051000125,57326.435426048694,57300.14977456925,57276.18870451316,57313.47141426461,57370.73658355911,57393.91534255927,57390.6966913577,57444.83261642845,57506.27756193609,57499.460279877225,57493.2688466631,57490.43017511728,57456.83550320095,57439.199976825716,57498.65561707683,57566.649623709876,57609.274400386144,57607.97799920774,57554.08794332599,57519.10746325344,57499.750852555146,57456.58963401194,57401.246714740606,57312.7785101865,57172.85658989628,57097.888838993174,57005.687893115035,56851.818484284704,56638.247566014245,56497.99036955719,56326.8430622629,56133.25460353549,55990.98575007746,55816.530384603786,55602.534783188676,55401.68200751329,55205.63485689579,55029.07842744332,54857.77465793785,54689.1083942781,54521.51501435221,54371.28893986809,54209.48466175612,54090.90865742072,53981.273350867436,53899.30950394982,53824.185290835536,53700.66955097551,53638.75521883431,53554.31032828216,53503.28129569069,53438.215367581295,53421.98800110674,53491.5242781072,53490.49609786226,53474.20167615434,53439.44471352634,53444.40680079542,53435.04141986864,53432.53802448965,53489.803193784144,53529.4328367034,53555.20439806037,53583.25583735178,53640.14102699054,53740.25449040586,53818.306782043794,53876.689538561055,53936.05577183435,53947.90219639566,54011.55996460438,54118.98244845658,54252.44471459922,54358.45903855074,54444.4014959814,54525.80654928763,54584.166954060434,54686.49324017683,54811.26067772635,54930.79780707334,55045.909291018164,55158.271510394996,55186.90409504224,55222.46572047064,55327.20599498821,55408.52164131661,55469.3407379795,55516.65938099139,55535.16662540039,55553.115076197995,55586.039195780664,55654.79316172519,55692.70172032139,55732.48782545183,55740.13212205555,55747.46349423689,55751.35269777211,55780.47702079738,55780.164096375,55825.51578587482,55911.122967138646,55962.1072962412,55961.2579299519,55995.38904373516,55988.03531980936,55984.235523251955,55967.02468002137,55964.49893289792,55980.88276158366,55977.395889448635,56009.29182878636,56035.64453549917,56026.3238580613,56067.853399259264,56129.05247557789,56171.27492085397,56199.50517410102,56218.79472956595,56247.91905259121,56241.95113682165,56222.05808425642,56270.78488716899,56313.38731210081,56312.82851848943,56336.230794934134,56353.55339688699,56357.88963531132,56379.28025475505,56432.5221100476,56481.24891296017,56527.159396071365,56510.01560807414,56477.739689080685,56511.155547041366,56573.852190238504,56655.14548482245,56700.22895338881,56762.679727396935,56789.21124806539,56798.80014643671,56821.196594380934,56889.50352543635,56922.58410723021,56984.11845971566,57039.08139933126,57041.830663899265,57027.6596579146,57009.66650362808,57021.825852611764,57110.91990601062,57181.81963942286,57177.77397367644,57185.217104580064,57222.4551108426,57290.89615236475,57360.81240902095,57400.91143857378,57449.951165908715,57490.363119883914,57519.28627720908,57532.78673086008,57554.87025438193,57634.08483673154,57676.57550294108,57626.79816803911,57587.123821630936,57567.543693488085,57558.178312561315,57592.91292344486,57660.12461902197,57729.57148904461,57716.36160807152,57658.291775976635,57643.69608684732,57633.190766953325,57654.60373814151,57652.50267416271,57659.25290098821,57716.875698193995,57729.34797160006,57698.279046807176,57751.85617826655,57800.91825734595,57798.50426894477,57798.660731155964,57790.412937451954,57714.79698595965,57634.33070592055,57551.115161313435,57462.64695675933,57356.699688041175,57211.36864559277,57069.05508864583,56906.31203726674,56757.82939885013,56620.50028091673,56429.68343850177,56197.3147031444,56022.43465452608,55848.5827861527,55687.046728974194,55494.50880223618,55296.204125428696,55070.40680294119,54904.355693382706,54767.11598242712,54616.77814922073,54475.7609934522,54357.296747839064,54190.70919641366,54051.50253194601,53998.97593247604,54014.71156057258,53989.67760678263,53842.40196256661,53747.3846968871,53735.44886534797,53744.277804407815,53756.370098158135,53782.16401125956,53809.857822639686,53785.673235139046,53759.655804593065,53754.87253127963,53809.67900868404,53845.19593062353,53830.689648472035,53811.62361045166,53848.146360891624,53934.55820495584,53993.76797601795,54020.45595889759,54105.3702360833,54182.4390509652,54246.432095340744,54293.191944741244,54364.650471764864,54497.15161289593,54599.43319552341,54736.31527856771,54902.94753348202,54946.8687113367,54943.0689147793,54996.89191542768,55044.76935205095,55098.43589048814,55185.92061828621,55312.207974458695,55448.374801680424,55531.63504977644,55563.396878647436,55620.639696197475,55685.25858941777,55763.55675024471,55780.67818649748,55754.37018327358,55745.04950583572,55709.89021180752,55750.27981403826,55852.96372806594,55930.45722609249,55966.711755599,55935.665182550576,55968.432839922054,56005.11205257321,56045.45695131504,56009.13536657517,56009.00125610844,56020.06536961382,55999.65822692612,56029.00606739594,56111.37224571374,56132.76286515747,56123.86687086426,56107.080710778326,56112.51218468096,56118.882431850725,56115.01558005996,56131.73468491253,56176.23700812305,56139.98247861653,56123.91157435317,56175.18647613365,56240.520625176505,56308.760500998564,56380.33078674445,56417.7699587071,56452.25870040163,56397.407519508306,56368.28319648304,56397.09459508593,56428.990534423654,56460.1265144499,56458.450133615755,56505.94759058328,56517.034055833115,56524.67835243683,56579.730699030246,56652.1727028099,56697.59144754308,56731.163767714956,56794.59801847911,56799.89538191502,56825.28696361625,56886.79896435726,56985.638378338626,56991.04750049681,56961.69966002699,56956.44700007999,56937.06803763724,57005.21850648148,57083.38255684168,57137.40672319016,57168.788572405414,57192.056738383384,57257.83792231535,57366.35564164587,57445.346706550925,57478.9190267228,57448.207729841204,57438.26120355859,57491.5701140845,57584.888647185406,57627.468720372766,57685.7173664233,57766.921254029425,57793.27396074223,57818.374969765544,57824.54405123521,57875.282511148755,57899.131822482566,57914.2192499899,57917.81788084721,57931.161872287026,57980.156896133056,58047.055667287794,58110.0652349073,58130.718246784,58103.98556041546,58110.02053141839,58104.49965053793,58078.102240336215,58097.72707196797,58160.78134307639,58170.03496528089,58185.56942767733,58223.25446882898,58208.21174481056,58159.70845934254,58157.40622966364,58109.23822036246,58029.017809512356,57984.53783804629,57933.68761941048,57871.54976982472,57780.89109431399,57684.0633373336,57598.12087990295,57500.73432931118,57381.01838600855,57228.46773010108,57016.99787580942,56796.654378969004,56624.68005712987,56432.991496681156,56221.096959244845,56019.551279491345,55819.391407894065,55648.64643199998,55522.761407227685,55415.92006873132,55324.90376530931,55210.95457207615,55109.43294876015,54968.035813335875,54849.16923632255,54761.05865967974,54651.065725215165,54510.74147352475,54376.20632364826,54287.26873246059,54246.81207499649,54196.27478078304,54149.85020754936,54125.44210260417,54148.509102882046,54154.231149462605,54156.51102739704,54147.235053448094,54167.642196135785,54187.512896956556,54224.750903219094,54261.78774378154,54327.948907369246,54370.61838753443,54398.66982682584,54446.32374600456,54521.7161800523,54580.14364005848,54648.271757158254,54746.8205984617,54826.549270933785,54913.721074309484,54968.48284822499,55030.17366292163,55066.204674983586,55157.690365039154,55284.04477644501,55367.372079774395,55421.2844874006,55512.88193617844,55639.83984468459,55717.10982526658,55784.32152084369,55844.358306450646,55920.98008644344,55991.47748845548,56028.73784646247,56087.47823089102,56101.11279500876,56111.618114902754,56174.3594615888,56201.13685144626,56194.43132810966,56234.68681987367,56256.63623292879,56245.505064190045,56252.36704973782,56282.251332074564,56246.5779479239,56235.40207569624,56275.076422104416,56316.00246620208,56315.48837607961,56331.96161174317,56324.362018628366,56329.68173380873,56417.88171742937,56458.65129931585,56435.33842984896,56436.478368816184,56444.14501716435,56417.07705462898,56436.210147882724,56445.95550846524,56489.02732003061,56481.584189126996,56490.18961074229,56539.78813168861,56584.20104792131,56616.432263425864,56626.37878970848,56681.878171191,56750.878006324536,56791.22290506637,56839.793245767745,56901.34994999766,56911.87762163611,56899.3829964856,56875.26546421832,56848.51042610531,56863.217873956906,56893.9291708385,56942.3877528176,56959.08450592572,56991.04750049681,57013.66746588558,57103.476775107,57176.99166262051,57187.36287204777,57223.12566317626,57258.6649368602,57312.242068319574,57387.679205856235,57395.65877862678,57432.78502616704,57459.47300904668,57459.1600846243,57490.452526861736,57507.350445669945,57492.57594258499,57492.71005305172,57538.955812329754,57556.74780091618,57548.72352465672,57567.16371383235,57607.598019552,57614.48235684423,57640.522139134664,57649.485188661245,57655.85543583101,57681.53759021015,57736.96991645932,57785.182629249415,57763.792009805686,57760.975690004314,57795.77735612123,57842.93953692193,57876.22128441588,57909.92771505448,57902.43988066196,57877.47298210538,57891.711043323405,57874.857828004104,57856.23882487283,57826.131025091534,57808.76371964976,57833.551804250696,57871.21449365789,57871.661528546996,57870.90156923552,57811.84826038459,57815.446891241896,57860.887987719536,57838.223318841854,57756.84061728008,57661.59983415602,57541.66037340884,57435.40018026831,57287.61044592982,57085.55067605385,56914.7833484153,56712.81298551714,56542.15741660088,56415.2665633281,56272.14834358077,56109.00296080148,55898.047196632295,55693.752252310784,55529.13165439745,55344.84152136344,55160.88666449627,55012.87341271323,54899.72888228046,54795.8826775411,54670.802315569206,54577.90846561295,54484.746394723225,54388.45507960977,54323.679724178284,54313.66614266231,54317.28712526407,54260.93837749224,54175.73352762861,54081.029186371474,54018.198432707606,53982.949731701585,53914.24046924597,53882.076308974785,53911.37944595569,54020.344200175314,54085.27601781798,54083.04084337245,54100.43050055868,54135.992125987075,54141.222434189614,54155.59460587438,54223.11922587386,54317.823567130996,54373.76998350263,54513.02135145919,54612.128986374024,54707.03449333126,54839.982669351426,54927.24387970494,55000.64700849617,55059.72266909155,55163.45711510863,55250.405401039774,55332.59276540193,55447.25721445766,55587.156783003426,55684.58803708411,55741.13795055604,55809.824861267196,55909.49128979341,55944.15884544359,55926.36685685717,55924.71282776748,55950.57379610227,56012.4210730101,56091.23332395951,56117.0942922943,56188.93279897366,56176.415822078685,56223.4215406682,56257.82087538492,56227.28839245897,56213.676180085684,56262.5817969539,56302.56906778444,56316.69537028019,56282.00546288556,56279.34560529538,56227.91424130371,56234.12802626229,56266.51570397803,56266.739221422584,56225.65671511373,56255.09396256137,56268.348547023365,56256.14449455077,56301.47383230613,56304.67013176324,56315.80130050198,56375.167533775275,56393.630074695364,56366.49505692662,56354.93920504322,56404.045987611535,56449.68824978927,56452.5269213351,56477.449116402764,56567.41488783537,56634.13484503447,56672.53514200868,56657.82769415709,56657.24654880125,56736.8411108066,56773.945006602415,56783.82447765166,56807.24910584082,56816.54743153423,56839.34621087864,56927.6356014771,56982.17385794805,57010.73938736194,57024.82098636878,56988.32058767326,57003.944457047524,57005.35261694821,57051.17369308158,57031.280640516365,57038.8131783978,57088.34464411076,57141.47474068103,57186.960540647575,57189.1510116042,57182.04315686741,57261.6153671283,57346.6861065252,57338.90769945475,57378.4926388851,57451.20286359821,57457.39429681234,57492.6206460739,57566.1355335874,57637.14702572191,57673.602720928524,57679.66004367591,57715.28872433767,57782.41101293696,57769.62581510852,57801.96878933535,57853.71307774939,57898.23775270436,57895.4661363919,57856.88702546204,57862.65377553151,57894.437956146954,57924.433997205975,57918.04139829176,57915.4709476794,57950.47377949641,57907.20080223093,57859.23395862985,57841.08434213213,57886.03370023176,57878.25529316131,57843.0512956442,57774.20792272186,57703.12937535398,57638.46577864478,57601.20542063778,57553.12681831441,57391.88133381383,57182.82546792334,56970.595654320205,56768.982919333335,56590.9065712579,56406.03529286806,56261.41950624222,56118.10012079479,55972.702023113015,55863.60315842667,55743.194311045925,55619.76797816372,55480.963645096264,55309.72693082416,55190.25685671054,55093.42909973015,54953.79775211785,54851.40441076808,54786.763165803335,54691.23181000135,54565.81617186263,54484.79109821214,54431.549242919595,54451.95638560729,54473.704632962304,54409.93510603131,54386.21990516423,54408.48224264172,54361.029489163106,54357.319099583525,54354.77100071562,54426.184824250326,54510.272086891186,54530.23219468978,54551.242834477765,54569.99594807577,54598.784994934205,54708.15208055402,54765.93133997099,54862.87085567366,54925.34398142624,54998.83651719529,55098.61470444378,55162.65245230823,55159.50085634004,55211.178089520705,55280.46849733216,55382.01247239262,55538.18411090185,55708.70556935139,55802.337026874666,55881.17162956854,55954.59711010422,56015.058578855824,56050.50844556194,56093.33438793831,56141.3012315394,56186.40705185021,56253.99872708306,56316.29303888,56322.99856221659,56348.881882295835,56427.51531928961,56490.41312818684,56477.13619198039,56460.059459216536,56459.85829351644,56517.928125611325,56500.873744591925,56500.22554400272,56500.49376493618,56463.23340692919,56459.16538943832,56497.00689280115,56472.643491344876,56438.33356360598,56478.81257281454,56522.823157647035,56562.743373244215,56545.28666082462,56534.021381619146,56549.55584401558,56557.80363771959,56549.93582367132,56510.8873261079,56505.500555694176,56584.96100723279,56679.88886593448,56710.57781107161,56704.40872960195,56696.74208125378,56717.79742453068,56761.13745702952,56778.258893282284,56786.68550094194,56800.72239645987,56868.381126926084,56920.86302290714,57002.08926225773,57068.58570201227,57068.0716118898,57077.72756549449,57124.84504280628,57132.712856854545,57135.14919700017,57180.187962077616,57260.20720722761,57283.40831797222,57292.527829709994,57339.66765876623,57344.316821612934,57361.12533344333,57390.6966913577,57468.86074171791,57476.169762154794,57479.00843370062,57514.16772772882,57616.87399350095,57671.434601716355,57688.04194784665,57729.459730322335,57756.95237600236,57743.653088051455,57780.80168733617,57770.38577442,57787.73072811732,57814.97750460834,57848.48276954684,57912.25229647783,57960.95674764595,58005.79434702329,58030.02363801285,58118.49184256695,58135.88149975318,58127.097264182245,58154.50050288445,58156.80273256335,58179.400346207665,58178.17100026262,58177.14282001768,58170.593758892275,58178.618035151725,58190.71032890205,58188.94454109008,58155.774552318406,58143.391685890165,58166.03400302339,58173.29831997136,58168.984433291494,58183.66952939863,58175.30997697234,58111.18282213007,58045.33458296473,57932.57003218771,57871.102734935615,57800.18064977892,57667.657156903406,57467.921968450784,57252.49585539054,57066.663451989116,56871.44331591646,56722.9383257554,56541.88919566741,56369.28902498353,56205.1154619593,56026.5250237614,55825.895765530564,55600.74664363226,55393.83654520947,55240.41417126825,55120.6088209878,54988.08532811229,54795.0333112518,54622.03080916772,54513.71425553731,54409.599829864484,54242.49818831661,54114.243878632056,54049.62498541176,53971.93032168512,53916.118015780216,53888.848887544744,53882.99273049745,53846.917014946586,53814.01524710837,53770.45169716498,53748.81520853224,53718.0815599062,53760.48281913791,53765.75783082937,53753.4867231234,53782.18636300402,53841.61965151068,53844.592433523234,53857.37763135167,53891.933428279575,53969.56103677286,54027.764979334475,54111.49461406405,54207.24948731059,54299.1151570219,54367.9808816887,54459.48892348873,54557.99306130327,54660.07347823065,54800.30832294325,54886.72016700747,54994.120299115224,55137.707905496114,55294.37128238336,55431.56628985004,55484.33875850902,55535.32308761157,55586.19565799185,55676.362595124556,55732.97956382985,55760.49456125433,55783.44980280993,55837.295155202766,55893.73330995242,55935.41931336157,56029.16252960712,56066.311128891844,56059.65030904416,56074.3354051513,56102.52095490944,56163.49651378352,56216.492499887056,56230.75291284954,56197.180592677665,56238.576023408896,56280.19497158468,56286.40875654326,56298.970436927135,56334.129730955334,56372.239455251634,56382.34244374543,56396.82637415247,56454.15859868033,56535.80952117557,56518.844547133995,56511.82609937502,56511.781395886115,56490.07785202001,56450.202339911746,56459.9253487498,56492.89417182138,56567.504294813196,56554.80850396258,56590.72775730226,56643.58963293906,56667.23777857277,56697.05500567616,56729.50973862526,56811.63004775406,56915.78917691579,56957.251662880386,56977.47999161244,56983.380852148635,56957.9445669585,56988.45469813999,57058.28154781837,57110.65168507716,57162.26186302446,57257.70381184862,57352.430504850214,57391.50135415809,57335.644344764274,57302.04967284795,57352.989298461594,57387.07570875594,57445.79374144003,57490.38547162837,57519.75566384264,57542.21916702022,57611.12959517594,57618.12569119045,57639.896290289915,57676.01670932969,57746.938794486385,57728.81152973313,57728.81152973313,57800.2924085012,57868.91226397899,57856.66350801748,57874.74606928183,57929.66430540852,58000.072300442735,58060.95845233899,58022.871079787146,58016.12085296165,58013.32688490473,58050.74370512291,58057.181007526044,58106.80188021683,58173.96887230503,58195.068919070836,58228.127149120235,58271.69069906363,58281.458411390595,58271.64599557472,58262.81705651487,58254.14457966621,58226.584878752816,58212.16800357914,58226.04843688589,58259.86662624677,58285.57113237037,58277.45744913309,58265.0522309604,58231.07757938834,58217.75593969297,58224.59557349629,58187.93871258959,58110.042883162845,58025.55328912179,57974.05486989676,57892.38159565707,57773.7385360883,57613.74474927721,57427.28649703104,57250.99828851203,57111.29988566636,56893.3256737382,56666.768391939215,56497.14100326789,56283.95006465317,56049.882596717194,55860.40685896956,55663.64445252949,55452.2863569601,55256.149799364786,55103.33092252385,54919.82310054578,54751.49211305286,54618.11925388804,54502.33721760955,54398.44630938129,54266.83923802844,54160.35552744335,54082.66086371671,53979.596970033286,53863.52436107688,53778.09599376869,53743.27197590733,53687.75024268034,53664.28091100227,53622.72901805986,53599.214982892874,53574.15867735847,53565.642662721,53604.042959695216,53602.12070967206,53613.2518784108,53664.929111591475,53669.690033160456,53730.643240290075,53817.77034017687,53880.57874209628,53912.29586747836,54004.56386858987,54137.62380333231,54242.83346448344,54313.196756028745,54402.894306527895,54456.71730717627,54495.69874950633,54622.45549231237,54771.13929642908,54864.41312604107,54966.40413599064,55101.47572773406,55163.21124591962,55255.76981970904,55396.74227198867,55492.8994766354,55562.39105014694,55618.4268734964,55694.48985987781,55745.161264557995,55823.21355619592,55924.42225508956,55987.5659331758,55997.69127341405,56020.870032414205,56058.5327218214,56077.62111158623,56121.36347548527,56186.87643848377,56254.60222418335,56339.33768741342,56406.37056903489,56381.13544954485,56378.63205416585,56414.14897610533,56416.7194267177,56423.626115754385,56431.78450248057,56448.011868955124,56496.5822096565,56495.218753244735,56511.55787844156,56522.130253568925,56567.66075702438,56658.40883951293,56724.88292752301,56719.51850885374,56693.56813354113,56712.52241283923,56770.659300167485,56866.74944958085,56874.86313281812,56899.919438352525,56983.02322423735,57066.30582407783,57128.01899051893,57156.24924376598,57206.78653797943,57248.65135534422,57293.10897506583,57338.99710643257,57338.05833316545,57403.683054886234,57440.83165417095,57482.98704421366,57531.49032968168,57575.41150753636,57578.943083160295,57589.62721700993,57606.68159802933,57623.31129590408,57603.66411252786,57644.70191534781,57742.177872917404,57810.976542350836,57869.31459537919,57880.110487951104,57887.12893571007,57959.50388425635,58042.49591141891,58129.131272927676,58154.88048254019,58152.22062495001,58157.38387791919,58158.41205816413,58201.26035228495,58244.71214350607,58264.51578909347,58341.53990048646,58385.058746940944,58412.327875176416,58417.46877640114,58452.98569834062,58499.56673378548,58490.11194588089,58484.32284406696,58539.33048717147,58590.15835406284,58578.96013009073,58552.31685070001,58617.06985438703,58702.744090884225,58723.151233571916,58714.59051544554,58656.07364846154,58622.56838352304,58639.44395058679,58661.43806713082,58651.80446527058,58681.062898762575,58701.85002110601,58716.60217244652,58756.567091532605,58802.09759498807,58799.97417926481,58739.53506225766,58724.17941381686,58700.39715771642,58708.37673048696,58705.29218975213,58663.583834598525,58557.59186239146,58423.97313403763,58376.810953236934,58325.89367936775,58233.223346856044,58162.16715123262,58040.551309651295,57791.642283397,57520.783844087586,57291.34318725386,57115.74788281297,56936.39748530358,56752.21911099185,56578.903684485405,56468.1284389649,56344.03155374904,56190.43036585217,56005.022645595396,55787.62957902308,55586.97796904779,55427.38651363689,55258.7426017216,55096.49128872053,54958.670432409104,54855.360669536676,54773.93326448599,54676.502010405304,54535.66366859242,54460.87473164496,54432.28685048662,54398.423957636835,54362.03531766359,54337.91778539632,54364.717526998225,54344.109218610436,54337.98484062968,54371.75832650165,54411.38796942091,54410.180975220326,54433.56089992057,54448.31305126108,54488.27797034717,54626.72467550334,54708.755577654316,54754.040211920765,54783.768032046326,54821.721294131436,54902.43344335955,54995.573162504814,55051.027840498435,55115.17734708516,55150.18017890218,55202.170336505216,55288.448070102706,55379.44202178026,55459.081287274515,55534.026686433164,55601.99834132175,55670.282920632715,55745.04950583572,55830.924908033005,55889.77705118383,55990.78458437736,56094.60843737226,56165.75403997351,56259.6313666858,56320.87514649334,56336.096684467404,56373.62526340786,56364.21517899218,56372.26180699609,56460.17121793881,56520.56563145705,56557.781285975136,56588.06789971208,56602.39536790793,56595.24280968223,56571.21468439278,56584.24575141022,56624.747112363235,56677.34076706658,56686.46027880434,56730.0908839811,56777.0518990817,56798.04018712523,56801.99644589382,56804.92452441747,56845.9176237485,56902.087557564686,56882.06039453273,56871.957406038935,56868.649347859544,56857.5181791208,56837.893347489044,56826.44925432793,56843.88361500307,56877.23241773038,56906.53555471129,56914.537479226296,56984.81136379378,56961.65495653808,56904.032159332295,56935.10108412518,56992.7015295865,57041.00364935442,57126.007333517955,57175.002357363985,57194.18015410664,57211.54745954841,57266.68921311966,57341.00876343355,57386.85219131139,57451.67225023178,57494.5205443526,57522.97431504421,57527.60112614645,57538.262908251636,57587.43674605331,57681.17996229887,57752.43732362239,57715.10991038202,57711.064244635614,57783.506248415266,57808.71901616085,57821.68302794493,57846.627574757054,57921.59532566015,57972.78082046281,57996.9877597079,58036.77386483835,58045.446341687006,58079.73391768145,58133.55691832983,58228.93181192062,58271.57894034135,58290.91319929519,58277.21157994409,58243.97453593904,58232.23987010001,58229.736474721016,58223.366227551254,58262.370021625764,58305.62064714678,58341.76341793101,58412.551392620975,58430.54454690749,58409.77977630851,58448.71651514966,58468.72132643716,58515.14589967083,58562.33043221598,58561.034031037576,58524.757149786616,58500.77372798607,58545.25369945213,58591.0300720966,58550.79693207704,58524.332466641965,58494.98462617215,58530.18862368925,58621.137871877894,58664.075572976544,58624.46828180174,58550.41695242131,58503.72415825417,58509.24503913463,58498.71736749618,58499.96906518568,58524.93596374225,58485.97687315666,58454.72913440814,58468.45310550369,58418.36284617935,58298.758661599,58213.75497743547,58129.55595607233,58025.82151005525,57883.77617404177,57673.44625871733,57500.10848046643,57355.78326651851,57150.03545880741,56925.10985435365,56732.683686337914,56549.533492271126,56353.68750735373,56191.92793273067,56007.5707444633,55796.45851808292,55637.090580116586,55527.27645960766,55414.84718499747,55287.174020668754,55150.56015855791,55010.37001733423,54837.300460016784,54694.47281294737,54568.81130561964,54473.838743429034,54417.937030546316,54355.776829216105,54289.12392725038,54241.894691216316,54180.3379869864,54182.57316143193,54186.954103345175,54252.44471459922,54276.07050848848,54265.095801960924,54197.61588545035,54169.94442581468,54184.562466688454,54221.57695550644,54284.02772951457,54344.04216337707,54409.80099556458,54465.92622589186,54570.01829982022,54699.83723161665,54760.38810734607,54841.68140193003,54907.75315853991,54971.5226854709,55066.02586102794,55137.976126429574,55218.19653727968,55361.18064656027,55462.52345592064,55572.337576429556,55664.270301374236,55760.5616164877,55838.43509416999,55907.72550198144,55956.16173221609,55963.001366019416,56016.109110845224,56079.67747207612,56140.071885594356,56191.05621469692,56152.63356597824,56149.16904558767,56216.78307256497,56280.12791635131,56344.903271782794,56357.04026902202,56355.14037074332,56366.15978075979,56341.416399647766,56356.48147541064,56404.49302250064,56389.80792639351,56351.18411197473,56355.36388818787,56395.038234596046,56406.16940333479,56416.67472322878,56431.2704123581,56380.86722861138,56384.08587981295,56422.93321167627,56500.35965446945,56566.87844596845,56584.73748978824,56584.8045450216,56590.10190845751,56632.54787117814,56612.54305989064,56616.096987259036,56695.64684577547,56739.36685793005,56756.06361103817,56793.41337602298,56834.473530587384,56867.15178098104,56942.96889817344,56989.527581873845,57025.469186957984,57039.95311736502,57018.204870010006,57059.55559725232,57123.2357172055,57142.301755225875,57176.25405505348,57244.069247730884,57300.66386469172,57300.93208562519,57295.813536144924,57276.322814979896,57284.03416681697,57336.53841454249,57374.06699348295,57375.296339427994,57336.49371105358,57375.7433743171,57444.65380247281,57483.165858169305,57456.18730261175,57491.88303850687,57570.02473712263,57589.426051309834,57609.073234686046,57617.72335979025,57657.46476143179,57723.04477966366,57725.43641632038,57756.639451579984,57788.44598393989,57818.97846686584,57841.46432178788,57846.18053986795,57893.320368924185,57913.05695927823,57939.94610785796,58006.10727144567,58042.47355967445,58078.39281301413,58093.88257192166,58121.66579027961,58161.563654132326,58156.51215988543,58162.43537216609,58161.20602622104,58137.49082535396,58127.27607813789,58149.38195340418,58191.67145391363,58204.970741864534,58182.2837212424,58163.93293904459,58202.98143660801,58217.86769841525,58183.1330875317,58116.43548207706,58089.36751954169,58095.38013880017,58077.92342638057,58030.02363801285,57968.08695412719,57903.62452311809,57800.35946373457,57684.733889667266,57604.78169975063,57411.930848590244,57227.08192194485,57075.06770790431,56909.620095446124,56766.07719255414,56641.89090036046,56449.777656767095,56252.00942182654,56058.91270147714,55888.92768489453,55746.12238956957,55585.681567869375,55428.951135748765,55302.842593531925,55189.228676465595,55057.80041906839,54923.645248847635,54839.91561411806,54769.775840017304,54671.22699871386,54609.15620436147,54549.007660032235,54476.07391787457,54409.51042288666,54347.1267041119,54265.31931940548,54195.67128368274,54115.09324492136,54055.88347385925,54102.062177903914,54177.1863910182,54193.100833070384,54212.613905979866,54244.196920895214,54312.05681706152,54367.62325377742,54429.448178940795,54499.92322920838,54593.44292800938,54676.81493482768,54756.52125555531,54873.33147207874,54995.48375552699,55099.77699515546,55157.64566155025,55226.37727575032,55365.74040242915,55505.48350876373,55575.4668206533,55696.9485517679,55819.547870105256,55899.83533618872,55975.853619081216,56060.27615788891,56158.601481747806,56243.06872404442,56275.79167792698,56287.302826321466,56327.066579707454,56333.32506815494,56381.8060018785,56426.755359978124,56434.8690432154,56444.83792124247,56494.39173869989,56521.28088727962,56526.310029782064,56547.47713178124,56578.30018738511,56566.654928523894,56568.331309358044,56627.49637693124,56688.293121849674,56695.445680075376,56707.3368081256,56714.64582856248,56705.59337205808,56668.22125532881,56658.45354300184,56684.22510435881,56709.81785176013,56729.01800024724,56737.869291051546,56675.016185643224,56636.995868324746,56618.2651064712,56666.74604019476,56726.62636359053,56762.07623029664,56787.087832342135,56806.936181418445,56809.68544598645,56840.17322542349,56816.39096932304,56834.138254420555,56862.30145243424,56885.25669398984,56918.583144972705,56981.212732936474,57026.6091259252,57088.9257894666,57118.318333425326,57162.440676980106,57230.68055280216,57262.17416073968,57335.15260638626,57414.098967802405,57466.44675331673,57435.02020061258,57445.279651317556,57467.363174839404,57409.42745321125,57456.544930523036,57578.518400015644,57650.93805205084,57677.93895935285,57733.371285602014,57784.31091121566,57810.52950746173,57859.23395862985,57886.10075546512,57980.939207188996,58040.126626506644,58027.2967251893,58035.34335319321,58028.7942920678,58072.31313852229,58076.51526647989,58081.83498166025,58139.70364805504,58164.581139633796,58143.99518299046,58148.26436618142,58182.61899740923,58163.664718111126,58203.18260230811,58258.749039024005,58330.38638000326,58403.96832275014,58391.764270277534,58383.15884866224,58388.36680512033,58419.43572991321,58414.630104855314,58351.19585409115,58314.98602807356,58317.601182174825,58354.61567099282,58337.516586484504,58313.913144339705,58328.53118521347,58324.50787121152,58313.756682128515,58317.176499030174,58335.05789459442,58304.16778375719,58207.60824771026,58085.03128111736,57911.38057844408,57741.88730023948,57578.11606861545,57384.41585116576,57153.70114489808,56960.17974140403,56800.38712029304,56619.717969860794,56462.58520633999,56272.23775055859,56074.80479178486,55822.07361722871,55624.14892007696,55427.02888572561,55269.58319778243,55104.917896380175,54943.58300490177,54829.209128523966,54709.20261254342,54613.0901113856,54493.53063029416,54417.19942297929,54293.86249707491,54180.360338730854,54089.05346263092,54048.64150865573,53986.727176514534,53954.94299589909,53964.10721112576,53926.28805950738,53869.5146285909,53836.836378197244,53858.49521857443,53866.050108200325,53910.038341288375,53966.67766173812,54005.70380755709,54066.32173851988,54144.82106504692,54198.30878952847,54266.59336883943,54346.14322735587,54415.835966567516,54476.74447020823,54541.586880873074,54628.423408081944,54705.42516773047,54816.826262095725,54988.28649381238,55124.96741115659,55219.291772757984,55299.690997563725,55388.6732922403,55490.93252312333,55602.95946633333,55674.14977242348,55747.86582563708,55801.71117802992,55866.97827183942,55986.64951165313,56055.403477597654,56062.958367223546,56093.781422827415,56181.28850236994,56282.49720126358,56305.92182945274,56282.3854425413,56308.17935564272,56364.885731325834,56394.322978773474,56447.117799176915,56463.74749705166,56436.65718277183,56437.394790338854,56433.52793854808,56415.13245286137,56416.495909273144,56475.45981114624,56516.56466919955,56484.7804885841,56465.580340096996,56471.19062795528,56505.344093482985,56530.646268206394,56521.03501809061,56526.868823393444,56539.452855521784,56598.21559169479,56673.40686004244,56716.8362995191,56744.32894519913,56744.10542775458,56769.20643677789,56815.40749256701,56830.092588674146,56838.20627191142,56867.196484469954,56941.62779350612,56991.360424919185,57004.346788447714,57028.59843118172,57048.17855932457,57071.62553925819,57090.66922553411,57117.044283991374,57175.18117131963,57201.04213965442,57262.889416562255,57347.17784490321,57428.73936042063,57498.94618975475,57535.75951287264,57565.934367887305,57588.01789140915,57630.039170985125,57665.757258624704,57708.627904489986,57741.79789326166,57793.430422953425,57848.41571431348,57920.90242158204,57976.64767225357,58039.38901893962,58040.61836488466,58063.953586096,58110.98165642997,58149.73958131547,58158.769686075415,58161.787171576885,58217.73358794852,58318.9646385866,58362.93051993019,58419.36867467984,58437.45123594419,58403.90126751677,58380.54369456097,58382.957682962144,58362.70700248564,58366.685612998685,58412.01495075405,58431.88565157481,58459.04302108801,58538.659934837815,58593.64522619787,58578.78131613509,58578.11076380143,58654.486674605214,58691.88114307894,58725.43111150636,58768.05588818263,58805.96444677883,58785.1773244354,58777.37656562049,58802.432871154895,58758.668155511405,58733.835367421554,58756.231815365776,58730.88493715345,58696.15032626991,58677.598378372,58657.54886359559,58622.88130794541,58568.05247879654,58490.73779472564,58373.12291540181,58236.3972945687,58085.32185379528,57873.762592525796,57644.74661883672,57442.57509023847,57242.16934945218,57053.18535008256,56852.75725755182,56631.117359533,56377.425059965266,56178.47218256858,56005.2685147844,55834.16591097903,55672.04870844469,55502.26485756217,55339.36534397189,55121.569945999385,54911.77647254187,54762.6232817916,54658.687670074425,54507.32165662309,54384.76704177464,54299.919819822295,54178.125164285324,54076.558837480414,53994.125603929235,53912.273515733905,53831.673125228066,53801.00653183539,53774.050328022284,53750.49158936639,53744.50132185237,53742.26614740684,53791.90937184208,53836.29993633032,53847.408753324606,53849.17454113657,53878.25416067293,53906.84204183127,53917.34736172526,53987.576542803836,54058.83390412735,54111.24874487505,54169.251521736565,54263.08414495995,54371.69127126828,54492.34598783803,54590.69366344139,54700.39602522803,54774.380299375094,54857.41703002656,54977.04356635136,55054.447657400095,55128.6107455028,55217.771854135026,55375.619873478405,55500.186145327825,55617.46574848482,55727.72690388285,55801.73352977438,55852.27082398783,55934.65935405008,56014.432730011074,56097.24594321799,56176.16995288968,56252.74702939356,56308.268762620544,56307.642913775795,56371.63595815134,56415.75830170612,56461.26645341712,56499.37617771342,56493.20709624376,56537.843529921,56560.97758543224,56531.60739321797,56490.74840435367,56477.04678500257,56507.69102665079,56549.6452509934,56562.0504691661,56585.4080421219,56620.008542538715,56625.30590597462,56631.9667258223,56677.40782229994,56698.95490395486,56728.012171746755,56765.51839894276,56790.73116668835,56794.93329464595,56838.13921667805,56880.629882887595,56891.85045860415,56911.16236581354,56906.26733377783,56938.34208707119,56961.20792164897,56996.68014009955,57037.650887686126,57081.1697341406,57124.64387710618,57163.15593280267,57216.71071251759,57230.74760803552,57283.31891099441,57329.67642899471,57346.50729256956,57412.46729045717,57501.404881644834,57542.174463531315,57531.35621921495,57530.23863199218,57584.41926055185,57599.707853759275,57670.093497049034,57725.123491898004,57755.4324573794,57819.80548141069,57877.40592687201,57925.50688093983,57932.681790909985,57927.295020496254,57987.73413750341,58063.59595818472,58127.7678165159,58171.71134611504,58169.36441294723,58160.06608725382,58191.71615740254,58253.51873082146,58329.134682313765,58380.14136316078,58370.55246478945,58383.31531087343,58458.66304143227,58479.941902153725,58421.71560784765,58427.929392806225,58470.353003782395,58509.28974262354,58538.794045304545,58578.848371368455,58648.094075691,58656.18540718382,58635.621802284935,58656.67714556184,58675.02792775964,58654.73254379423,58651.31272689256,58671.071668991055,58718.390312002935,58729.946163886336,58742.641954736944,58767.20652189333,58806.85851655704,58772.369774862505,58760.25512936773,58774.82846675259,58729.70029469732,58646.90943323487,58575.60736842244,58530.1662719448,58479.6066259869,58406.62818034032,58321.177461287676,58188.98924457899,58079.64451070363,57942.963593359425,57713.098253381046,57477.60027379993,57222.56686956488,57046.07749534577,56870.32572869369,56641.533272449175,56407.890487657845,56249.14839853626,56060.030288699905,55869.28050151831,55705.03988326072,55526.18122412935,55328.8600240779,55151.901263225234,55011.174680134616,54863.20613184049,54704.86637411909,54606.22812583782,54544.49260765226,54432.08568478652,54289.68272086176,54213.10564435788,54117.306067622434,54006.64258082421,53931.496015965466,53862.764401765395,53832.70130547301,53787.5954851622,53745.57420558622,53759.32052842624,53854.98599469495,53924.11994029522,53941.59900445927,53945.9352428836,53969.5386850284,54036.81743583887,54089.3663870533,54105.929029694686,54156.84630356387,54251.036554698534,54324.12675906739,54356.827361205505,54420.52983290313,54523.86194752002,54617.47105329884,54679.27362671777,54762.35506085814,54826.28105000032,54927.64621110514,55073.6478058872,55138.5125682965,55211.51336568754,55329.46352117819,55481.79065964111,55662.526865306725,55806.65091355454,55943.68945881003,56006.408453751625,56049.815541483826,56109.53940266841,56187.12230767278,56231.26700297201,56310.88391672182,56429.86225245742,56494.77171835562,56565.55969304559,56646.763580651714,56688.78486022769,56665.382583782986,56704.54284006868,56790.03826261023,56825.15285314952,56787.55721897569,56757.024736049745,56743.97131728785,56758.65641339498,56801.79528019372,56870.05750776023,56921.13124384061,56865.74362108036,56824.50465256032,56805.93035291795,56800.0071406373,56860.35685066663,56900.07590056371,56873.94671129545,56882.75329861085,56914.42572050402,56913.26342979234,56935.72693296993,56960.6938315265,56974.28369215533,56998.37887267815,57066.12701012218,57126.566127129336,57122.07342649382,57120.77702531541,57197.108232630286,57309.29163805147,57371.60830159287,57412.6014009239,57419.061055071485,57404.01833105306,57437.14361633583,57484.931645981276,57586.96735941975,57641.32680193506,57688.69014843585,57730.33144835609,57707.935000411875,57662.42684870087,57681.22466578778,57786.434326938914,57878.07647920567,57915.135671512566,57956.307584799244,58017.99839949589,58043.36762945267,58088.62991197466,58120.101168167734,58156.98154651899,58215.610172225264,58257.072658189856,58320.909240354216,58362.81876120791,58393.32889238941,58396.189915679686,58453.41038148527,58505.40053908832,58513.02248394758,58547.73474308667,58581.15060104735,58608.442081027286,58645.814197756554,58666.69072707781,58675.47496264875,58716.155137557405,58711.5059747107,58703.12407053996,58744.72066697129,58751.02385890768,58738.41747503489,58740.94322215834,58776.840123753565,58831.288973246694,58874.74076446781,58868.43757253142,58876.57360751315,58867.14117135301,58870.20336034338,58932.52002388478,58988.55584723424,59020.92117320552,59021.61407728364,59034.175757667515,59016.003789425355,58987.81823966721,58968.52868420228,58954.93882357345,58942.08657051165,58902.79220375922,58892.57745654315,58847.02460134323,58814.726330605314,58789.49121111527,58753.86253045351,58690.58474190054,58591.164182563334,58465.92735838024,58333.80619690492,58152.04181099437,57930.51367169782,57747.51993984222,57592.46588855576,57396.44108968271,57151.443618708094,56932.0388951348,56720.74785479878,56479.23725595919,56251.025945070505,56060.36556486673,55859.89276884709,55694.91454302246,55518.22400310326,55319.85227106241,55127.359047813305,54929.322591939286,54788.12662221511,54676.27849296075,54573.259302766244,54488.613246513996,54369.836076478496,54228.193071865215,54164.95998680115,54127.76668402752,54130.71711429562,54148.643213348776,54095.490765034054,54059.72797390557,54060.89026461724,54085.25366607353,54094.104956877825,54075.08362234636,54048.55210167791,54055.861122114795,54082.97378813908,54140.19425394467,54235.5020923021,54293.30370346352,54325.95960211273,54358.503742039655,54442.65805991388,54574.89098011148,54681.978187796856,54752.587348531175,54767.98770046088,54826.95160233398,54925.455740148514,55017.27670637092,55110.97521912757,55214.15087153326,55311.157442469295,55419.4292926108,55555.506712854716,55656.06721115914,55763.668508966985,55829.181471965494,55890.11232735066,56004.35209326173,56061.639614300686,56111.66281839166,56179.23214188006,56247.740238635575,56329.1452919418,56398.2121823087,56415.19950809473,56442.155711907835,56505.85818360546,56538.08939911001,56602.35066441902,56699.58075279961,56767.59711117711,56795.42503302396,56792.452251011404,56784.60678870759,56798.420166780976,56771.53101820124,56696.45150857586,56699.46899407733,56755.415410448964,56769.6981751559,56746.58647138911,56759.885759340024,56744.26188996576,56729.487386880806,56703.15703191245,56687.823735216116,56716.29985765217,56750.92270981344,56737.33284918462,56735.74587532829,56840.03911495675,56924.08167410871,56962.973709460945,57002.04455876882,57044.714038934,57036.04156208534,57036.2650795299,57101.06278670583,57135.61858363373,57124.733284084,57097.620618059715,57149.07433379583,57206.250096112504,57240.7611895515,57309.55985898493,57392.32836870294,57457.97544216817,57471.632358030365,57464.926834693775,57486.65273030433,57516.022922518605,57532.85378609345,57527.26584997962,57543.02382982062,57606.771005007155,57637.951688522306,57641.34915367951,57735.4276460919,57828.00857162578,57866.74414476683,57887.64302583254,57901.65756960602,57939.052038079746,57970.90327392856,58008.3424458912,58015.27148667235,57967.81873319373,58020.23357394142,58120.70466526803,58245.82973072884,58307.475841936575,58342.143397586755,58432.243279486094,58518.67747529477,58564.49855142815,58649.256366402675,58710.6566084214,58727.73334118526,58750.39801006294,58781.75750753374,58827.042141800186,58829.85846160156,58847.806912399166,58947.00395429182,59042.04357171578,59090.32333973925,59087.64113040461,59085.98710131492,59102.39328174511,59116.519584240865,59151.29889861333,59211.15687026464,59271.32776633833,59290.99730145899,59317.59587736081,59370.8153809089,59347.12253178627,59298.507487595976,59260.55422551087,59188.71571883151,59092.37970022914,58986.566541977714,58878.205284858384,58709.516669454184,58493.308245338,58248.48958831902,58009.68355055852,57804.606295181075,57634.68833383183,57429.767540665576,57185.57473249135,56976.116535200665,56813.7087599884,56665.60610122754,56522.35377101348,56342.33282117043,56180.66265352519,56031.66592498612,55873.795553898286,55765.32253805668,55638.76696095073,55551.32693664157,55444.6867638453,55357.939643614256,55275.81933448546,55132.65641124921,55018.573107549324,54946.8687113367,54886.4072425851,54865.75423070839,54807.37147419113,54712.62242944508,54642.7955797667,54620.89087020051,54619.974448677836,54613.00070440778,54594.158183831954,54565.19032301788,54567.06786955212,54543.24090996277,54582.89290462648,54671.94225453642,54745.01010716082,54790.71942457193,54854.62306196965,54938.10682751022,55041.70716306057,55055.96757602305,55043.674116572634,55060.75084933649,55137.8643677073,55180.1762199612,55261.737735478615,55345.400314974824,55395.959960932734,55445.245557456685,55515.09475887952,55607.76509139122,55691.91940926545,55738.723962154865,55861.79266712579,55910.430063060536,55902.00345540088,55932.42417960455,55994.69613965704,55998.786508892365,56019.975962635996,56083.05258548887,56109.87467883524,56103.862059576764,56134.752170413994,56159.92023467067,56151.91831015567,56106.63367588922,56057.012803198435,56064.59004456879,56094.76489958345,56114.3450277263,56098.72115835204,56101.80569908687,56072.681376061606,56028.31316331782,56047.08862866028,56067.20519867006,56015.95264863404,55984.70490988552,55946.25990942239,55910.36300782717,55933.698229038506,55980.70394762802,55928.177348158046,55917.6496765196,55956.31819442728,55988.6164651652,56027.240279583966,56046.50748330444,56069.2839109044,56087.88056229122,56085.80185005687,56058.823294499314,56009.35888401972,55975.160715003105,55980.34631971674,56092.68618734911,56206.88124977127,56284.59826524238,56290.56618101194,56330.28523090902,56408.27046731359,56462.31698540652,56477.78439256959,56512.45194821977,56550.56167251607,56548.259442837174,56499.15266026887,56438.66883977281,56440.90401421834,56430.465749557705,56453.890377746866,56499.30912248005,56549.6452509934,56593.18644919234,56612.29719070163,56624.25537398522,56621.64021988395,56634.87245260149,56648.88699637497,56654.02789759969,56645.04249632866,56624.97062980779,56560.150570887396,56475.25864544614,56362.29292896902,56340.32116416945,56432.36564783641,56514.62006743194,56523.96309661426,56540.61514623346,56592.22532418076,56623.5177664182,56650.29515627565,56697.99377894328,56756.532997671726,56815.63101001156,56851.52791160678,56874.23728397337,56890.17407777001,56903.607476187644,56888.385938213585,56880.11579276512,56875.53368515178,56909.843612890676,56932.30711606826,56918.06905485023,56845.53764409276,56792.675768455956,56744.3960004325,56717.93153499741,56606.77630982117,56440.971069451705,56245.68387814568,56090.38395767021,55955.49117988243,55844.559472150744,55704.72695883834,55494.62056095846,55301.14386095332,55169.55914134492,55019.22130813853,54870.06811738827,54696.998560070824,54558.373040959006,54424.17316724935,54283.80421207002,54113.79684374295,53970.00807166196,53858.94225346354,53791.57409567524,53704.96108591093,53617.6551720685,53520.7827115992,53448.47481828628,53460.500056803234,53471.45241158634,53477.30856863363,53425.67603894187,53386.87341056745,53407.36996023297,53351.84822700599,53328.043619161086,53331.686953507306,53315.861918432944,53317.67240973382,53384.92880879984,53472.27942613119,53563.51924699775,53593.068253167665,53654.870826586586,53715.332295338194,53790.612970663664,53900.4717946615,54010.24121168152,54154.655832607255,54302.49027043465,54445.49673145971,54555.288500224175,54680.14534475152,54812.04298878229,54966.40413599064,55122.329905310864,55293.34310213842,55429.19700493777,55605.06053031213,55764.093192111635,55936.93923198453,56047.937994949585,56103.3926729432,56197.69468280014,56291.95198916817,56383.214161779186,56399.32976953146,56413.85840342742,56434.55611879303,56501.09726203648,56619.27093497169,56716.053988463165,56869.27519670429,57057.968623395995,57182.758412689975,57275.20522775713,57331.97865867361,57289.48799246407,57219.66114278569,57227.148977178214,57192.59318025031,57139.61954589123,57082.801411485845,57077.23582711647,57102.24742916196,57094.044338946864,57065.85878918872,57119.480624137,57169.95086311708,57220.28699163044,57299.90390538024,57377.956197018175,57498.208582187726,57571.3881935344,57560.94992887377,57522.21435573273,57497.58273334298,57558.178312561315,57583.86046694046,57600.53486830412,57675.010880829206,57687.46080249081,57689.76303216971,57735.114721669524,57697.094404351046,57621.098473203005,57636.342362921525,57703.33054105408,57778.94649254638,57782.74628910379,57806.215620781855,57851.29908934821,57854.22716787185,57785.1379257605,57782.50041991477,57904.3174271962,57966.96936690443,57988.02471018132,57994.260846884354,57983.04027116779,57937.1744915455,57940.1249218136,57968.690451227485,58026.11208273317,58039.2996119618,58026.53676587782,58042.719428863464,58016.12085296165,58060.287900005336,58121.88930772416,58204.03196859741,58246.58969004032,58331.90629862622,58442.03334355752,58571.718164887214,58634.79478774009,58727.28630629615,58905.07208169367,59070.27382496284,59113.74796792841,59151.94709920253,59201.85854457123,59201.679730615586,59190.28034094338,59175.259968669416,59176.98105299247,59199.086928258774,59194.23659971197,59204.07136727231,59218.7788151239,59237.464873488534,59208.34055046327,59158.049125438825,59130.98116290345,59155.99276494894,59193.923675289596,59208.117033018716,59165.84988425373,59162.40771560762,59105.72369166896,58992.646216469555,58919.13132895605,58789.848839026556,58671.22813120224,58458.059544331976,58214.202012324575,57989.34346310419,57825.505176246785,57652.23445322925,57427.28649703104,57236.49200636054,57032.733503905954,56785.50085848581,56547.25361433669,56265.219302799625,56033.16349186462,55831.59546036667,55643.885510431,55522.359075827495,55412.947286718765,55256.619185998345,55082.76731762497,54897.42665260156,54722.50190049433,54545.721953597305,54399.07215822604,54282.35134868042,54147.4809226371,54065.91940711968,53982.43564157911,53919.44842570406,53884.62440784269,53854.53895980585,53853.488427816446,53868.73231753497,53826.86750017018,53825.41463678058,53828.14154960413,53775.14556350059,53774.81028733376,53873.269721659395,53959.525103512424,54020.701828086596,54115.71909376611,54146.07276273642,54149.5819866159,54170.48086768161,54160.511989654544,54197.14649881679,54248.48845583063,54289.23568597266,54268.00152874012,54196.76651916105,54177.3875567183,54200.81218490746,54234.58567077943,54301.46209018971,54413.75725433317,54492.63656051595,54573.46046846634,54663.0015567543,54787.21020069244,54904.065120704785,54942.21954849,54905.69679805003,54850.91267239007,54915.28569642135,55036.67802055812,55082.92377983616,55143.87698696578,55198.54935390346,55226.19846179467,55291.19733467071,55367.774411174585,55364.89103613985,55353.96103310121,55372.15535308783,55360.82301864899,55392.62955100889,55491.29015103461,55517.88872693643,55495.291113292114,55519.699218237314,55528.52815729716,55534.160796899894,55507.36105529798,55529.66809626438,55537.22298589027,55535.4571980783,55538.07235217957,55585.45805042482,55599.98668432077,55532.01502943219,55507.33870355353,55476.73916539421,55447.36897317994,55442.18336846631,55485.03166258713,55557.5630733446,55675.669691046445,55781.97458767588,55851.71203037644,55916.19681313,55989.73405238796,56042.57357628031,56116.15551902718,56202.992046236046,56255.80921838394,56334.88969026681,56388.377414748364,56468.41901164282,56605.56931562058,56728.3921514025,56783.98093986284,56894.532667938794,56954.569453545744,56982.10680271468,57026.8102916253,57091.742109267965,57185.485325513524,57239.956526751106,57262.0176985285,57307.86112640633,57417.33997074843,57479.07548893398,57533.90431808285,57614.92939173334,57656.2577672312,57665.064354546594,57674.27327326218,57682.968101855295,57747.698753797864,57797.38668172201,57830.24374607131,57861.13385690855,57915.73916861286,57974.81482920824,58045.08871377572,58078.996310114424,58079.64451070363,58140.530662599886,58216.794814681394,58251.50707382048,58225.57905025233,58246.58969004032,58255.664498289174,58236.441998057606,58288.72272833857,58338.768284174,58355.35327855984,58320.015170576,58325.9160311122,58313.64492340624,58370.865389211824,58432.28798297501,58426.096549760885,58335.1696533167,58221.8910124172,58138.96604048801,58080.627987459666,57983.06262291225,57843.4536270444,57711.354817313535,57541.16863503082,57306.83294616139,57051.73248669297,56848.91275750551,56634.49247294575,56415.49008077265,56208.9152585167,55978.91580807159,55757.812351919696,55567.12961997147,55387.93568467328,55258.11675287685,55103.08505333484,54912.44702487553,54741.09855188114,54599.52260250123,54469.21193232679,54367.26562586614,54299.495136677644,54196.20772554967,54024.747493833005,53864.239616899446,53784.08626128272,53707.46448128993,53634.463683898895,53604.35588411759,53584.529886785735,53547.761267156755,53560.211188818364,53577.98082566033,53606.25578239629,53604.33353237314,53617.543413346226,53629.81452105219,53665.6667191585,53777.15722050157,53861.35624186471,53965.336557070805,54055.19056978114,54144.999879002564,54208.88116465583,54299.5174884221,54457.767839165674,54577.9308173574,54662.93450152093,54745.233624605375,54820.51429993085,54902.58990557074,55030.24071815499,55149.64373703525,55226.64549668378,55310.106910479895,55437.86948178643,55585.30158821364,55710.58311588563,55837.54102439178,55895.09676636419,55909.96067642697,55937.49802559591,56002.09456707175,56097.491812406995,56129.83478663383,56206.1659939487,56300.89268695029,56386.499868214116,56426.04010415556,56474.49868613466,56492.961227054744,56475.25864544614,56463.03224122909,56483.2829217056,56528.52285248314,56513.21190753125,56494.90582882236,56469.693061076774,56445.03908694257,56473.00111925616,56533.68610545232,56529.57338447254,56504.89705859388,56468.93310176529,56452.23634865718,56453.59980506895,56457.06432545952,56438.69119151726,56454.382116124885,56489.94374155328,56500.49376493618,56532.30029729609,56551.61220450547,56539.02817237713,56581.16121067539,56621.23788848375,56622.668400128896,56613.48183315776,56668.35536579554,56725.776997301225,56785.50085848581,56842.72132429139,56838.16156842251,56863.083763490176,56877.94767355295,56913.21872630343,56952.2448721224,57032.55468995032,57085.68478652058,57117.84894679177,57151.376563474725,57201.66798849917,57298.38398675728,57347.893100725785,57351.29056588299,57353.145760672785,57319.97577190111,57337.49953955407,57377.97854876263,57360.25361540957,57374.0893452274,57451.001697898115,57503.08126247898,57540.00634431915,57573.93629240231,57640.4550839013,57633.23547044223,57593.762289734164,57635.716514076776,57706.1692125999,57713.27706733669,57800.24770501229,57886.27956942077,57900.20470621642,57885.631368831564,57898.014235259805,57895.667302092,57922.51174718282,57953.91594814252,57957.00048887736,57976.871189698126,58024.81568155476,58073.698946678516,58142.36350564522,58157.76385757493,58149.337249915276,58165.29639545637,58133.84749100775,58151.974755761,58200.3886342512,58275.55755085439,58336.2201853061,58326.1171968123,58301.68674012265,58351.106447113336,58344.78090343248,58253.250509888,58156.22158720751,58160.714287843024,58127.00785720442,58005.168498178544,57905.94910454144,57822.17476632295,57745.21771016333,57613.72239753275,57417.60819168189,57207.63590426873,57000.792861079324,56782.23750379533,56569.2030273918,56311.62152428884,56110.232306746526,55923.97522020045,55731.48199695135,55553.89738725393,55347.88135860937,55150.13547541326,54955.76470562991,54770.60285456215,54580.90359936996,54401.66496058285,54272.851857286914,54148.68791683768,53962.96727215854,53845.777075979364,53788.78012761833,53736.097065937174,53735.605327559155,53706.63746674508,53670.0700128162,53627.64640184002,53596.10809041358,53559.27241555124,53561.79816267469,53573.26460758026,53536.13836003999,53492.5748100966,53525.14130176799,53585.82628796414,53675.16621055201,53722.127225652606,53773.80445883328,53845.39709632363,53902.32698945129,53984.84962998029,54066.94758736463,54151.19131221668,54216.30194381499,54320.01403808762,54421.71447535926,54484.344063323035,54563.536293928184,54675.22796097135,54788.64071233758,54915.956248755014,55045.75282880698,55148.79437074594,55228.813615895946,55295.71238705068,55342.24871900663,55422.804406023555,55511.719645466765,55559.44061987885,55672.56279856715,55707.43151991744,55762.52856999977,55831.61781211112,55853.07548678821,55905.40092055809,55949.81383679078,55975.47363942548,55991.63395066666,56026.41326503912,56055.135256664194,56025.005105138436,55981.21803775049,56025.832119683284,56053.01184094094,56060.87965498921,56047.35684959374,56025.25097432744,56048.4297333276,56064.366527124235,56036.44919829955,55973.327871957765,55959.916825284585,55976.837095837254,55998.94297110355,55974.13253475816,55991.65630241112,56018.5230992464,56071.31791964983,56079.29749242038,56073.95542549556,56098.72115835204,56094.496678649986,56081.979701755015,56168.14567663022,56222.706284845626,56226.7743023365,56230.28352621598,56245.54976767895,56242.86755834432,56232.09401751686,56273.51179999254,56266.739221422584,56315.823652246436,56357.64376612232,56379.21319952169,56411.7126359597,56477.02443325811,56509.63562841841,56559.97175693176,56590.9065712579,56565.02325117865,56596.159231204896,56666.611929728024,56714.46701460684,56700.31836036663,56757.449419194396,56805.14804186202,56858.68046983248,56902.19931628696,56936.44218879249,56968.96397697496,56962.88430248312,57038.76847490889,57074.24069335946,57120.464100893034,57170.35319451728,57195.25303784049,57216.93422996214,57245.07507623138,57291.253780276034,57375.87748478383,57427.64412494232,57464.2115788712,57503.52829736809,57520.60503013194,57561.82164690753,57597.45032756929,57608.15681316338,57618.930353990836,57662.762124867695,57681.60464544352,57683.92922686687,57706.83976493356,57712.405349302935,57721.055474407134,57742.75901827324,57731.270221623214,57685.73971816775,57634.42011289837,57576.61850173694,57486.40686111533,57400.15147926229,57261.8165328284,57084.142516153166,56923.38877003059,56726.78282580171,56512.72016915324,56326.26191690707,56186.83173499486,56062.556035823356,55896.72844370943,55709.37612168505,55527.70114275231,55397.5245830446,55285.27412239005,55097.49711722101,54948.63449914867,54816.51333767335,54653.949100249905,54498.939752452345,54419.21107998027,54332.86629114942,54212.3456850464,54146.47509413661,54143.65877433524,54141.98239350109,54046.853369099306,53932.121864810215,53880.42227988509,53929.618469431225,53935.34051601178,53954.96534764354,53995.8466882523,54013.1022349718,54009.03421748093,54039.79021785143,54129.35365788385,54156.80160007496,54187.73641440111,54222.471025284656,54294.17542149728,54384.61057956345,54496.52576405118,54626.16588189195,54678.49131566183,54737.83519719067,54855.38302128113,54950.62380440519,55086.79063162692,55174.7223943141,55286.27995089054,55374.837562422465,55447.145455735386,55594.26463774021,55687.71728130785,55763.7132124559,55851.264995487334,55960.63208110716,56044.11584664773,56081.398556399174,56123.41983597515,56232.51870066151,56298.1881258712,56339.650611835794,56363.14229525832,56352.34640268641,56326.15015818479,56327.357152385375,56402.235496310655,56457.51136034863,56474.878665790406,56487.01566302963,56491.79893634307,56466.340299408475,56405.029464367566,56346.356135172384,56353.28517595353,56401.90022014383,56435.87487171589,56418.88754592986,56424.02844715458,56453.08571494648,56437.84182522796,56425.95069717774,56405.945885890236,56401.09555734343,56421.41329305331,56473.60461635645,56511.982561586214,56559.48001855374,56573.96394896078,56603.356492919505,56666.902502405945,56656.33012727858,56644.818978884105,56655.61487145602,56668.802400684646,56711.60599131656,56726.22403219033,56715.71871229634,56731.54374737069,56789.54652423222,56850.29856566174,56875.71249910742,56912.74933966987,56945.941680186,56946.56752903075,56960.96205245997,56949.69677325449,56994.42261390956,57057.58864374026,57094.71489128052,57144.939261071595,57162.485380469014,57207.56884903537,57297.73578616808,57385.82401106644,57436.808340168995,57486.56332332651,57520.80619583204,57523.801329589056,57497.649788576346,57526.90822206834,57585.55919951906,57587.99553966469,57635.582403610046,57698.32375029609,57727.783349488185,57776.46544891184,57804.02514982524,57787.75307986177,57805.098033559094,57845.442932300924,57830.66842921596,57811.98237085133,57846.82874045715,57871.661528546996,57863.16786565398,57834.11059786208,57805.098033559094,57775.66078611145,57707.19739284485,57640.946822279315,57564.548559731076,57440.67519195977,57310.275114807504,57148.18026401762,56947.4392470645,56750.47567492434,56581.09415544202,56424.78840646606,56245.214491512124,56042.86414895823,55868.49819046238,55708.90673505148,55539.972250458275,55376.178667089785,55222.242203026086,55070.13858200772,54870.96218716648,54714.8129004017,54566.620834663016,54511.92611598088,54471.93884515034,54357.743782728176,54243.280499372544,54151.370126172325,54073.54135197894,54017.52788037394,53969.56103677286,53917.05678904734,53863.09967793223,53855.8130092398,53816.18336632054,53841.5078927884,53845.75472423491,53863.189084910045,53930.60194618726,53953.78070518741,53933.82059738882,54016.96908676256,54166.189332746195,54219.095911871904,54280.049119001524,54411.61148686546,54482.22064759978,54509.35566536852,54577.12615455701,54676.524362149765,54734.907118667026,54759.49403756786,54858.04287887131,55029.54781407688,55254.33930806391,55388.58388526248,55460.42239194184,55515.34062806852,55611.72135015981,55722.87657533605,55802.44878559694,55834.2776697013,55873.28146377581,55889.41942327254,55929.33963886972,56008.50951773042,56064.18771316859,56105.13610901072,56141.54710072841,56190.899752485726,56240.65473564324,56258.75964865204,56285.626445487316,56316.024817946534,56355.810923076984,56404.69418820074,56431.56098503602,56485.60750312895,56530.33334378402,56522.130253568925,56471.88353203339,56455.007964969634,56473.58226461199,56476.48799139119,56493.251799732665,56528.634611205416,56559.14474238691,56625.864699586,56674.21152284283,56672.80336294215,56652.26210978772,56627.78694960916,56614.86764131399,56678.45835428934,56716.94805824138,56760.55631167368,56812.79233846573,56836.35107712163,56830.27140262978,56818.15675713501,56793.458079511896,56832.12659741958,56853.58427209667,56888.05066204676,56934.721104469434,56931.100121867676,56915.54330772678,56951.48491281091,57047.642117457646,57146.16860701664,57159.37848798973,57216.688360773136,57270.53371316597,57258.48612290456,57282.246027260546,57322.34505681337,57337.8348157209,57316.354789299345,57366.86973176834,57415.350665491904,57467.005546928114,57530.842129092474,57596.62331302444,57671.38989822745,57740.12151242751,57793.02809155323,57781.69575711439,57794.03392005371,57840.52554852075,57852.282566104244,57887.50891536581,57970.09861112817,57948.14919807306,57986.035404924805,58090.30629280881,58105.66194124961,58101.34805456973,58164.290566955875,58167.08453501279,58179.668567141125,58208.16704132164,58216.23602107001,58264.67225130466,58264.113457693275,58216.99598038149,58146.56563360282,58050.36372546718,57965.65061398156,57862.65377553151,57731.24786987876,57555.71962067123,57359.02426946453,57199.87984894274,57028.64313467064,56830.27140262978,56647.09885681854,56470.20715119925,56318.1929371587,56103.97381829904,55879.87522839013,55690.4441941314,55515.09475887952,55346.9649370867,55152.035373691964,54968.035813335875,54791.43468039449,54696.4621182039,54606.18342234891,54465.479191002756,54333.49213999417,54237.983135936636,54152.66652735073,54061.29259601743,53966.185923360106,53887.28426543287,53866.87712274517,53821.681895456546,53785.539124672316,53775.88317106762,53831.22609033896,53857.44468658503,53817.36800877667,53787.349615973195,53830.66729672758,53902.215230729016,53955.14416159918,54035.856310827294,54128.10196019435,54182.17083003173,54248.957842464195,54324.68555267878,54394.87003026844,54444.62501342595,54498.85034547453,54587.385605261996,54710.007275343814,54840.49675947389,54968.661662180624,55107.018960358975,55225.43850248319,55379.26320782462,55511.04909313311,55588.81081209312,55688.5442958527,55760.114581598595,55858.4846089464,55918.253173619894,56005.96141886251,56088.50641113597,56185.04359543844,56257.9773375961,56326.932469240724,56404.671836456284,56428.31998209,56433.55029029254,56462.18287493979,56515.58119244352,56508.920372595836,56576.087364684034,56645.98126959578,56646.18243529588,56641.68973466036,56684.56038052564,56722.67010482194,56742.71961959835,56783.91388462948,56734.293011938695,56681.20761885734,56723.09478796659,56720.07730246512,56698.53022081021,56682.41461305793,56688.33782533858,56720.814910032146,56762.70207914139,56759.326965728644,56719.5855640871,56750.69919236889,56810.28894308674,56820.570745536184,56840.15087367903,56938.587956260206,56968.27107289685,56976.36240438967,56984.83371553823,56971.780296776335,57033.582870195256,57096.61478955922,57132.86931906573,57181.149087089194,57240.89530001823,57237.028448227466,57262.55414039543,57389.86967681285,57468.72663125118,57539.13462628539,57661.33161322256,57714.28289583718,57722.19541337436,57744.81537876313,57795.15150727648,57870.16396166849,57932.972363587905,57963.57190174722,57974.32309083022,57999.2899893868,58078.0575368473,58125.577345559286,58138.54135734336,58232.06105614437,58304.07837677937,58313.77903387297,58330.43108349217,58349.69828721265,58365.18804612018,58422.43086367022,58478.69020446423,58523.572507330486,58582.44700222576,58617.42748229831,58627.32930509202,58622.85895620096,58611.4819182732,58630.50325280467,58694.205724502295,58722.68184693836,58735.95878314481,58748.69927748434,58756.209463621315,58755.89653919894,58760.65746076792,58725.36405627299,58674.29032019262,58592.9299703753,58529.20514693322,58441.13927377931,58308.995760559534,58153.27115693941,57980.782744977805,57789.138888018,57593.82934496753,57382.001862764584,57142.301755225875,56909.68715067949,56746.117084755555,56538.51408225466,56310.81686148845,56119.75414988449,55947.93629025654,55797.39729135005,55623.41131250993,55376.29042581206,55186.524115386506,55029.79368326589,54892.755138010405,54775.07320345321,54641.499178588296,54514.74243578225,54421.848585825996,54367.176218888315,54304.680741391276,54215.676094970244,54144.7316580691,54085.47718351808,54070.09918333283,54084.15843059521,54085.432480029165,54051.30136624591,53991.0410631944,53995.958446974575,54026.64739211171,54019.517185630466,54026.289764200425,54059.437401227646,54126.6267450603,54195.87244938284,54209.104682100384,54181.47792595362,54246.47679882965,54386.82340226453,54534.546081369655,54655.71488806187,54699.0102170718,54797.76022407535,54888.284789119345,55007.77721497741,55138.22199561859,55218.77768263551,55304.69778832171,55410.82387099551,55510.22207858826,55605.686379156876,55667.08662117561,55761.6121484771,55832.22130921141,55881.752774924375,55970.84682832323,56100.151669997176,56187.16701116169,56273.02006161452,56387.77391764807,56497.52098292363,56529.17105307234,56561.402268576894,56583.3069781431,56614.64412386944,56628.07752228708,56657.15714182343,56714.84699426258,56796.09558535762,56785.679672441445,56750.47567492434,56735.16472997245,56800.45417552641,56819.09553040213,56806.19857385142,56862.81554255671,56938.47619753793,56983.29144517082,56996.47897439945,57013.89098333013,57040.62366969868,57053.364164038205,57059.53324550787,57101.174545428104,57146.99562156149,57196.08005238534,57266.935082308664,57307.548201983955,57254.976899025074,57221.628096297754,57265.97395729709,57318.56761200042,57366.847380023886,57404.5994764089,57447.514825763086,57481.37771861288,57476.79561099954,57518.36985568641,57559.96645211774,57604.55818230608,57720.98841917377,57845.867615445575,57902.03754926176,57976.82648620922,58074.97299611247,58082.37142352718,58104.47729879348,58134.227470663485,58123.49863332494,58128.66188629412,58175.39938395016,58200.433337740105,58207.69765468808,58232.441035800104,58296.61289413129,58291.11436499529,58304.97244655758,58377.45915382614,58468.408402014786,58538.39171390435,58584.21279003773,58627.865746958945,58689.55656165559,58726.97338187377,58749.615699007,58768.234702138274,58769.75462076123,58795.30266467365,58799.79536530917,58846.77873215422,58911.487032352336,58922.729959813354,58929.54724187223,58966.82995162367,58946.936899058455,58970.80856213672,59008.35949282163,59058.24858644588,59127.650752979614,59155.188102148546,59183.59716935125,59160.88779698465,59147.163825889096,59151.72358175798,59150.69540151303,59109.88111613764,59081.38264195713,59028.92309772052,59018.7307022489,58962.47136145489,58890.454040819895,58743.75954195971,58576.56849343402,58433.51732892005,58205.86481164275,58013.25982967137,57858.87633071856,57602.79239449411,57323.46264403614,57141.228871492014,56958.32454661424,56750.98976504681,56569.873579725456,56423.067322143004,56211.97744750708,55976.01008129241,55828.60032660965,55635.01186788224,55387.15337361734,55206.506574929546,55087.63999791622,54977.1776768181,54895.63851304514,54764.88080798159,54598.56147748965,54487.92034243588,54424.01670503816,54360.537750785086,54303.473747190685,54202.80149016398,54175.37589971732,54137.62380333231,54132.88523350778,54148.710268582145,54156.175751230214,54174.72769912812,54190.10569931337,54159.95319604316,54133.265213163526,54120.591774057364,54148.844379048875,54196.20772554967,54249.2037116532,54324.43968348976,54427.12359751745,54487.58506626905,54555.780238602194,54654.12791420554,54764.187903903476,54844.587128709216,54930.44017916205,55003.44097655308,55063.92479704914,55196.06831026892,55369.67430945329,55486.149249809896,55558.4124396339,55636.46473127184,55688.5442958527,55761.03100312126,55882.06569934675,56027.575555750795,56102.47625142053,56206.88124977127,56291.214381601145,56273.51179999254,56289.62740774482,56357.37554518885,56390.05379558251,56400.02267360958,56433.3714763369,56438.40061883934,56438.244156628156,56437.79712173905,56445.59788055395,56450.805837012034,56433.88556645937,56434.64552577085,56448.727124777695,56457.46665685972,56457.89134000437,56444.92732822029,56402.727234688675,56386.58927519194,56373.73702213014,56431.85155771393,56488.289712463586,56565.76085874568,56613.90651630241,56626.89287983094,56578.83662925204,56575.61797805047,56621.39435069494,56608.49739414423,56593.991111992735,56643.81315038361,56714.13173844001,56728.8391862916,56706.621552303026,56759.93046282893,56825.912812461,56840.79907426824,56828.617373540095,56817.083873401156,56826.13632990555,56883.87088583361,56967.35465137418,56956.55875880227,56987.091241728216,57080.63329227368,57142.078237781316,57120.82172880432,57174.04123235241,57248.42783789967,57269.326718965385,57328.7823592165,57423.1514243068,57440.92106114877,57446.12901760686,57449.88411067535,57490.720747795196,57554.80319914856,57592.220019366745,57632.81078729758,57686.23145654577,57727.82805297709,57710.84072719106,57732.410160590436,57787.19428625039,57869.493409334835,57910.88884006606,57921.61767740461,57935.073427566706,57953.46891325342,58019.60772509668,58040.88658581812,57993.25501838387,57988.31528285924,58044.395809697606,58053.35885922419,58035.96920203796,58070.83792338824,58133.28869739637,58163.70942160004,58166.59279663477,58224.349704307286,58287.98512077155,58313.37670247277,58330.14051081426,58337.49423474005,58371.26772061202,58381.862447483836,58385.148153918766,58397.374558135816,58400.168526192734,58386.332796374896,58434.143177764796,58476.99147188562,58495.11873663888,58562.35278396044,58648.138779179906,58618.142738120885,58561.83869383797,58541.9679930172,58520.39855961783,58514.318885125984,58461.88169263383,58349.765342446015,58265.320451893866,58217.73358794852,58115.139080898654,57955.30175629876,57789.25064674028,57618.41626386837,57450.33114556446,57260.07309676088,57054.99584138344,56870.21396997142,56722.02190423273,56536.3459630425,56363.32110921397,56172.504266799006,55959.782714817855,55760.673375209975,55572.829314807575,55393.63537950938,55212.00510406555,55021.1882616506,54895.72792002296,54809.45018642547,54672.79162082572,54484.0087871562,54370.66309102334,54303.42904370178,54258.814961768985,54161.47311466612,54075.441250257645,53980.982778189515,53939.98967885848,53899.86829756121,53876.8683525167,53911.26768723341,53915.89449833566,53899.53302139438,53868.151172179125,53886.680768332575,53931.94305085457,53994.03619695142,54071.28382578896,54131.789998029475,54210.11051060087,54319.343485753954,54446.81548438257,54512.2166886588,54601.48955601329,54714.85760389062,54806.16447999054,54908.98250448496,55021.255316883966,55154.069382437396,55276.31107286347,55374.30112055554,55506.66815121987,55628.30634454565,55714.82994733214,55804.70631178693,55910.407711316075,56008.353055519234,56065.417059113635,56121.85521386328,56196.08535719936,56282.22898033011,56333.61564083286,56354.268652709565,56425.861290199915,56448.90593873333,56484.735785095196,56489.474354919716,56503.55595392656,56500.65022714737,56502.93010508181,56487.41799442983,56521.146776812886,56565.02325117865,56567.32548085755,56545.398419546895,56529.05929435007,56498.638570146395,56488.96026479725,56508.09335805099,56550.919300427355,56608.3632836775,56577.18260016234,56557.490713297215,56589.07372821257,56598.886144028445,56621.39435069494,56620.008542538715,56641.39916198244,56688.78486022769,56711.918915738934,56721.910145510454,56756.57770116064,56776.76132640378,56756.51064592727,56769.85463736709,56788.31717828717,56834.85351024312,56880.24990323185,56888.43064170249,56920.12541534012,56961.431439093525,56973.34491888821,56983.93964576002,57022.83168111226,57107.6789030646,57215.19079389463,57261.347146194836,57292.90780936573,57334.10207439686,57369.86486552536,57392.440127425216,57459.94239568024,57540.54278618608,57546.220129277724,57545.43781822179,57547.80710313405,57581.87116168394,57692.489944993256,57804.4945364588,57888.850020033125,57938.80616889074,57960.71087845694,57967.25993958234,57986.594198536186,58052.04010630133,58074.12362982317,58055.39286796962,58086.52884799586,58124.21388914751,58158.03207850839,58234.698561990095,58280.81021080139,58331.28044978147,58317.73529264156,58321.98212408807,58375.31338635843,58351.41937153571,58387.80801150895,58450.72817215064,58478.33257655294,58510.29557112403,58538.950507515736,58588.03493833959,58613.538278763095,58678.268930705664,58693.69163437982,58640.82975874302,58618.72388347673,58648.205834413275,58682.22518947425,58634.3924563399,58540.98451626117,58467.44727700321,58429.672828873736,58396.30167440196,58328.10650206882,58269.74609729602,58202.15442206317,58017.99839949589,57760.86393128204,57537.972335573715,57379.96785401915,57219.16940440767,57044.93755637855,56871.86799906111,56704.94517146888,56545.688992224816,56402.861345155405,56288.64393098879,56095.77072808394,55898.896562921596,55747.57525295916,55645.00309765376,55518.13459612544,55348.52955919857,55203.66790338372,55104.157937068696,54995.863735182735,54913.855184776214,54807.259715468856,54726.301697051735,54698.87610660507,54680.4582691739,54666.801353311705,54642.37089662205,54608.910335172455,54584.12225057152,54595.56634373264,54625.71884700285,54683.43105118645,54725.00529587332,54747.2229298619,54789.80300304926,54846.03999209881,54913.855184776214,55019.57893604982,55132.678762993666,55224.09739781587,55294.88537250583,55372.51298099911,55494.68761619182,55615.901126372955,55747.97758435936,55929.18317665854,56121.743455141004,56246.73441013508,56338.756542057585,56427.82824371198,56506.528735939115,56593.58878059254,56674.2785780762,56733.48834913831,56797.81666968068,56865.25188270234,56910.804737902254,57017.62372465417,57111.14342345517,57135.59623188928,57166.486342726515,57238.838939528345,57263.24704447354,57234.90503250421,57209.044064169415,57219.07999742985,57178.46687775456,57168.162723560665,57214.81081423889,57235.396770882224,57239.97887849556,57169.68264218362,57101.5768768283,57093.26202789093,57107.83536527579,57112.59628684477,57131.93054579861,57115.59142060178,57095.83247850329,57067.08813513377,57042.97060286649,57035.8627481297,57005.21850648148,56982.17385794805,56970.19332292001,56952.133113400116,56977.56939859026,56949.964994187954,56925.445130520486,56966.57234031825,56953.0942384117,56935.21284284745,56904.54624945477,56915.61036296015,56943.34887782919,57021.60233516721,57116.731359569,57165.18994154811,57179.137430088216,57194.60483725129,57234.70386680411,57241.43174188516,57262.19651248414,57286.76107964052,57338.25949886555,57413.27195325756,57450.08527637545,57457.41664855679,57492.79946002954,57525.99180054567,57520.29210570957,57526.08120752349,57569.33183304451,57678.52010470869,57728.476253566296,57706.9738754003,57708.87377367899,57746.98349797529,57825.28165880223,57864.15134241001,57908.296037709246,57943.924718371,57961.71670695743,57973.74194547439,57974.79247746379,57988.18117239251,58055.035240058336,58110.534621540864,58150.857168538234,58218.42649202663,58301.86555407829,58284.69941433662,58289.77326032797,58317.15414728572,58280.60904510129,58292.14254524023,58320.93159209867,58351.79935119145,58364.94217693117,58437.13831152181,58461.00997460008,58490.693091236724,58516.88933573834,58494.51523953858,58483.87580917786,58479.6066259869,58508.44037633424,58532.93788825726,58534.48015862467,58512.4636903362,58487.42973654625,58451.51048320657,58417.647590356784,58331.861595137314,58206.80358490987,58052.46478944598,57837.06102813018,57680.71057566531,57542.62149842042,57318.34409455587,57102.76151928443,56922.69586595248,56731.94607877089,56518.486919222705,56297.025835159526,56049.413210083636,55878.51177197835,55728.46451144988,55533.3561340995,55286.63757880183,55092.49032646303,54959.34098474276,54879.03116691484,54778.78359303279,54624.891832458,54503.47715657677,54394.13242270141,54319.38818924287,54221.77812120654,54183.33312074341,54141.021268489516,54143.256442935046,54170.74908861508,54163.06008852245,54131.8794050073,54123.00576245854,54100.13992788076,54096.09426213435,54161.80839083295,54197.25825753907,54217.82186243795,54258.47968560216,54288.31926444999,54359.91190194034,54468.22845557076,54580.47891622531,54666.42137365596,54762.019784691314,54857.12645734864,54941.906624067626,55058.6944888466,55213.94970583317,55380.939588658766,55531.07625616506,55638.409333039446,55681.50349634928,55738.50044471031,55874.66727193204,55977.12766851517,56067.361660881244,56222.05808425642,56353.93337654274,56419.44633954124,56534.75898918617,56646.20478704033,56715.67400880743,56741.98201203132,56778.5047624713,56849.784475539265,56899.718272652426,56933.335296313206,56992.29919818631,57039.05904758681,57087.91996096611,57100.5263448389,57128.108397496755,57142.18999650359,57102.1803739286,57134.389237688694,57191.02855813844,57243.97984075306,57252.31704143489,57291.56670469841,57379.990205763606,57430.16987206577,57441.18928208224,57451.40402929831,57505.15997471333,57555.943138115785,57629.52508086265,57655.564863153086,57685.85147689003,57785.09322227159,57859.412772585485,57974.30073908577,58123.43157809158,58238.99009692551,58360.58358676238,58489.73196622515,58617.47218578723,58736.00348663372,58895.550238555705,59171.90720700112,59410.57913429489,59590.22010448219,59774.532589260656,60067.429848602995,60318.21642139154,60544.572537490436,60865.61064310201,61215.05781591628,61627.35809413888,61958.7227056888,62331.661561925604,62766.58180553697,63179.88791226005,63579.5594548654,63987.54584640812,64378.34374646471,64767.778190109515,65161.01243031173,65614.75284275447,66069.61084241996,66454.75375112936,66841.86361335083,67214.02015853168,67582.30985192179,67870.75911411752,68160.10244609148,68482.54871160373,68770.37212495472,69044.67273291024,69304.19883778082,69482.43164806743,69639.94439124399,69698.41655473907,69717.03555787035,69708.2513222994,69682.61387140916,69675.61777539465,69703.1551245636,69731.87711618867,69769.56215734032,69754.72059902198,69730.44660454353,69687.48655170042,69638.11154819865,69674.32137421625,69715.47093575847,69730.22308709897,69757.55927056781,69825.35211150076,69882.55022556189,69912.9485980211,69963.93292712366,69995.94062518366,69999.82982871888,69973.20890107262,69937.91549657768,69907.0477374849,69822.51343995493,69704.54093271983,69541.28379121826,69318.05691934311,69101.82614348247,68928.10838557582,68769.79097959888,68501.45828741293,68186.41044931537,67857.6162883778,67447.84175727866,67086.21288373624,66733.61411495377,66374.75685772381,65994.26311186113,65658.0481717644,65303.61655993659,64923.5251454741,64618.46853714807,64332.16504242004,64013.69738742083,63677.348336857365,63351.12462653215,63035.4285878454,62674.15734221427,62224.70846470696,61836.279849562634,61441.03395235944,61076.23113110437,60724.794653033576,60317.299999868876,59957.41456239398,59622.69718917575,59327.96708678807,59051.31954566474,58692.97637855726,58286.39814691522,57898.48362189336,57591.68357749982,57302.49670773706,56982.66559632607,56615.15821399191,56197.09118569985,55891.56519074026,55617.15282406245,55324.23321297565,55057.442791157104,54825.67755290003,54566.71024164084,54347.596090745465,54160.601396632366,53941.26372829243,53672.484001217366,53410.02981782315,53213.82620499447,53026.98797309255,52899.627733186215,52763.527961197855,52595.71106382741,52451.922291746414,52304.11020566347,52208.06475973902,52101.53634566502,51919.81666324338,51792.00938844793,51709.44204443003,51619.20805206395,51491.06550110168,51348.46137147682,51200.96220981624,51099.52999347806,51018.10258842738,50969.71106168164,50924.71700009311,50843.49076074252,50733.54252976686,50623.70605751349,50497.08342517417,50346.94675766787,50264.111192716504,50185.768328400656,50112.275792631604,49963.48022979263,49814.9081843982,49750.11047722227,49643.98439454847,49542.21690204345,49445.612662507614,49364.47583013485,49243.88816879847,49071.42210858132,48939.0997814059,48793.25464883503,48576.77800378537,48401.65208597804,48247.89443586999,48076.21068670877,47803.96643924314,47492.293714558335,47231.806484676184,46995.14621438339,46783.11756648035,46528.91117679014,46305.55019444826,46103.60218329456,45904.69400938678,45725.36596362185,45495.16534747664,45322.54282504831,45147.93099736345,44936.9081779609,44764.643283443846,44638.78061041601,44461.82184956335,44277.10703338469,44119.12490357458,44036.06582117866,43913.555909819115,43758.05482364355,43638.85297046339,43540.92997800469,43421.79518005791,43342.91587387513,43246.557503528304,43169.33222643522,43081.28870502576,43005.06925643316,42967.898305403985,42973.620351984544,42964.41143326896,42953.34731976358,42943.24433126979,42966.154869336475,42956.40950875396,42936.29293874418,42978.515384020255,43009.763122768774,42955.940122120395,42925.45234268336,42958.84584889959,42967.183049581414,42918.63506062449,42907.25802269674,42942.864351614044,42961.10337508957,42983.52217477825,43073.398539233036,43172.01443576985,43262.74016651394,43303.24152746696,43331.47178071401,43404.271412404945,43466.67748292416,43563.50523990455,43673.65463658031,43783.15583266686,43891.964124675294,43956.15833475094,44014.36227731255,44130.99367988035,44317.831911782254,44465.75575658748,44564.3716531243,44648.6377297208,44697.6998088002,44797.61210651542,44972.693320833845,45125.33338371914,45267.088147054696,45363.31240693479,45462.062413938336,45590.204964900615,45705.80818722346,45828.20633986072,45984.33327488104,46116.186215422895,46225.463894064895,46334.383944795605,46449.808353162814,46562.25997951746,46611.47852080805,46634.59022457484,46695.09639681535,46798.517918410056,46853.57026500348,46832.492569982125,46818.858005864386,46774.84742103189,46684.47931819908,46641.005175233506,46568.27259877594,46462.86177192471,46362.971825953944,46275.509449900324,46225.732114998355,46187.66709419097,46146.36107043756,46041.37492673098,45977.62775154445,45926.79988465308,45845.39483134685,45782.6087811719,45786.74385389613,45762.045176273015,45729.07635320143,45696.889841185795,45720.33682111941,45766.31435946398,45859.81170652052,45895.641552882385,45972.531553808636,46081.60806675054,46181.78858539923,46251.57073158869,46348.0408606578,46477.81508896531,46579.60493321478,46738.14585663627,46888.12606193138,47008.06552267856,47155.76585003923,47314.35147694963,47450.0489175378,47550.944692009056,47654.545027559405,47748.82468567189,47864.4502597392,48035.8881397114,48171.809097744124,48320.42584662746,48480.01730203835,48679.283103857415,48929.421476056756,49098.311257161055,49233.584014604574,49424.13263608607,49596.419882347574,49795.05983532189,50012.22938444965,50179.01810157515,50368.851467234075,50570.464202220945,50800.28483871041,50967.09590758037,51151.72131678121,51367.281540308184,51508.365751310084,51607.33927575818,51807.38738863318,51990.09054781086,52109.91824983576,52229.075399527006,52366.76214537169,52485.87459157403,52583.48465961035,52668.175419351515,52763.43855422003,52900.052416330866,52973.813173033384,53022.24940326803,53112.505747378564,53211.16634740429,53309.67048521883,53398.295151984115,53446.50786477421,53555.85259864957,53682.7211001779,53767.3895081746,53849.01807892539,53950.20442607456,54036.75038060551,54155.86282680784,54242.63229878334,54301.238572745155,54442.76981863616,54602.964771147344,54747.960537428924,54838.909785617565,54891.92812346556,54993.02506363691,55107.71186443709,55165.98286223208,55269.47143906015,55359.392507003846,55443.25625220016,55543.123846426475,55666.39371709749,55840.647916871065,55949.0538774793,56030.302468574344,56108.6453328902,56189.37983386277,56293.3377973244,56353.95572828719,56458.11485744892,56576.71321352878,56706.21922090283,56790.84292541062,56845.40353362603,56941.06899989474,57034.00755333991,57116.910173524644,57210.04989266991,57316.645361977266,57424.22430804066,57586.341510575,57735.51705306972,57828.83558617063,57846.269946845765,57890.48169737837,57964.46597152543,58017.88664077361,58083.332548538754,58153.78524706188,58259.53135007994,58355.50974077103,58365.12099088681,58396.97222673563,58495.92339943927,58592.17001106382,58666.35545091098,58754.84600720955,58843.51537746375,58920.83006153465,59043.965821738944,59138.64781125162,59174.47765761348,59170.45434361153,59194.616579367714,59273.004147172476,59351.436418466146,59423.81136701243,59530.71976074216,59605.12871803388,59615.3211135055,59640.95856439574,59693.8874952659,59740.267365010666,59781.0592986416,59801.37703435148,59806.71910127629,59857.05522978964,59910.74411997129,59929.072550424644,59949.81496927917,59991.88095234406,60042.39589481305,60059.71849676591,60110.188735746,60144.38690476262,60147.94083213101,60163.54234976081,60190.69971927402,60226.44015865805,60285.15819134214,60297.094022881276,60277.4244877606,60232.65394361663,60184.93296920454,60146.73383793043,60084.05954647774,60011.103452575626,59918.96956193085,59814.65397055793,59665.590186785485,59499.96376037166,59316.813566304874,59136.032657150354,58964.28185275577,58764.65842302542,58576.076755056,58390.75844177705,58218.60530598227,58018.51248961836,57837.77628395275,57650.93805205084,57522.61668713292,57392.97656929214,57262.44238167315,57157.29977575538,57094.267856391416,57012.01343679589,56950.97082268845,56922.20412757446,56849.516254605805,56767.03831756572,56663.50503724874,56580.66947229737,56503.399491715376,56457.55606383754,56468.441363387275,56504.83000336051,56535.206024075276,56552.327460328044,56590.638350324436,56638.806359625625,56664.332051793586,56688.159011382944,56732.99661076029,56800.18595459294,56830.494920074336,56839.234452156365,56888.11771728012,56984.6996050715,57065.47880953298,57194.76129946248,57284.50355345054,57329.497615039065,57421.922078361764,57509.36210267092,57563.74389693069,57681.98462509926,57771.36925117603,57847.29812709071,57948.01508760633,58083.22078981648,58209.038759355404,58304.6595221352,58385.774002763515,58427.72822710613,58496.75041398411,58560.29642347055,58633.3419243505,58711.416567732886,58752.72259148629,58741.83729193656,58729.99086737524,58728.672114452376,58719.642009692434,58709.47196596527,58752.25320485273,58818.74964460727,58811.48532765929,58761.41742007941,58732.181338331866,58675.966701026766,58639.30984012006,58641.88029073242,58635.13006390692,58626.45758705826,58601.46833675723,58548.44999890924,58524.7124462977,58545.20899596322,58522.298457896526,58483.89816092231,58450.504654706085,58428.80111083998,58403.945971005676,58398.80506978096,58408.4386716412,58411.3891019093,58414.004256010565,58417.915811290244,58367.26675835452,58267.33210889484,58257.74321052351,58298.84806857682,58320.462205465104,58292.88015280726,58280.005548001,58286.88988529323,58329.80523464743,58294.757699341506,58259.66546054667,58276.96571075508,58276.67513807716,58249.07073367485,58270.23783567403,58300.50209766652,58300.68091162216,58311.812080360905,58352.60401399184,58366.059764153935,58374.732241002595,58368.563159532925,58348.51364475652,58376.609787536836,58402.068424471436,58406.1364419623,58410.785604809,58454.080933818936,58452.404552984786,58423.32493344843,58390.736090032595,58381.147191661265,58360.85180769585,58377.9285404597,58369.39017407777,58364.56219727543,58406.42701464022,58434.45610218717,58435.819558598945,58455.71261116417,58434.45610218717,58452.35984949587,58500.75137624161,58465.83795140243,58476.41032652978,58511.92724846927,58488.5026202801,58473.12462009485,58525.159481186805,58590.91831337432,58601.26717105713,58536.33535341446,58458.059544331976,58423.52609914853,58426.118901505346,58445.22964301463,58498.67266400727,58492.41417555978,58445.43080871473,58422.00618052557,58411.16558446474,58439.08291328942,58390.870200499325,58342.92570864269,58333.31445852691,58351.19585409115,58364.42808680869,58310.470975693584,58286.82283005987,58229.8929369322,58141.17886318909,57993.32207361723,57839.94440316492,57690.92532288138,57481.556532568524,57343.266289623534,57184.233627824025,57014.24861124142,56851.97494649589,56706.77801451422,56513.61423893145,56365.3551179594,56250.668317159216,56102.05156827588,55906.697321736494,55714.33820895413,55537.29004112364,55397.144603388864,55272.421869328246,55120.76528319899,55007.91132544415,54887.7036437635,54748.00524091783,54643.42142861145,54511.85906074751,54371.37834684591,54277.63513060035,54228.1483683763,54203.293228542,54185.00950157756,54127.945497983164,54090.17104985369,54057.26928201548,54013.638676838724,53983.240304379506,53988.604723048775,54042.517130674976,54088.94170390865,54137.91437601023,54143.122332468316,54167.39632694678,54199.42637675123,54211.11633910136,54278.32803467847,54384.54352433009,54471.603568983504,54550.952261799845,54615.213527108855,54705.69338866394,54801.20239272147,54898.23131540195,55002.6810172416,55118.418350031185,55207.60181040786,55292.8513637604,55386.460469539226,55515.161814112886,55599.83022210959,55688.16431619696,55769.770535203286,55847.9345855635,55890.93934189551,55957.23461594994,56042.50652104694,56121.56464118537,56139.378981516245,56180.52854305846,56220.15818597772,56295.6400270033,56373.62526340786,56424.29666808804,56429.19170012375,56394.814717151494,56370.76424011758,56398.458051497706,56368.037327294034,56305.18422188571,56249.37191598081,56206.41186313771,56206.613028837804,56289.71681472264,56325.680771551226,56304.33485559641,56278.764459939535,56269.957872624145,56234.12802626229,56281.983111141104,56350.11122824088,56357.1520277443,56347.60783286188,56376.19571402022,56367.120905771364,56344.2997746825,56337.75071355709,56352.50286489759,56373.53585643004,56353.06165850898,56383.12475480137,56407.55521149102,56419.80396745253,56445.55317706504,56458.76305803812,56459.36655513842,56477.13619198039,56529.886308894915,56539.16228284386,56593.0076352367,56610.844327312036,56562.40809707739,56473.336395422986,56488.915561308335,56565.04560292311,56582.032928709144,56551.99218416121,