49476 
49605 
49673 
49759 
49864 
49973 
50081 
50182 
50236 
50357 
50480 
50590 
50693 
50766 
50839 
50888 
50949 
51006 
51069 
51143 
51249 
51310 
51325 
51381 
51432 
51485 
51509 
51557 
51616 
51678 
51719 
51723 
51758 
51829 
51931 
52014 
52039 
52046 
52073 
52136 
52163 
52214 
52300 
52341 
52380 
52440 
52498 
52511 
52554 
52586 
52581 
52619 
52621 
52625 
52619 
52715 
52735 
52741 
52784 
52846 
52864 
52873 
52882 
52835 
52828 
52829 
52876 
52865 
52849 
52868 
52814 
52759 
52770 
52814 
52816 
52847 
52809 
52753 
52738 
52717 
52722 
52654 
52532 
52439 
52403 
52388 
52357 
52274 
52233 
52150 
51967 
51746 
51611 
51469 
51307 
51138 
50959 
50799 
50707 
50574 
50403 
50338 
50271 
50187 
50109 
50025 
49914 
49737 
49592 
49488 
49404 
49296 
49196 
49140 
49086 
49055 
48999 
48972 
48965 
48926 
48880 
48909 
48909 
48860 
48817 
48794 
48797 
48803 
48852 
48834 
48832 
48877 
48925 
48905 
48938 
48950 
48973 
49020 
49021 
49035 
49074 
49151 
49179 
49202 
49240 
49220 
49258 
49312 
49406 
49436 
49465 
49469 
49490 
49519 
49497 
49530 
49548 
49572 
49568 
49595 
49624 
49579 
49565 
49553 
49560 
49626 
49631 
49632 
49654 
49690 
49682 
49661 
49669 
49663 
49681 
49693 
49681 
49615 
49532 
49546 
49568 
49569 
49583 
49548 
49554 
49658 
49675 
49660 
49655 
49696 
49734 
49730 
49726 
49760 
49796 
49827 
49832 
49804 
49821 
49863 
49885 
49894 
49903 
49962 
49950 
49939 
49974 
50028 
50051 
50090 
50190 
50301 
50320 
50278 
50260 
50261 
50260 
50299 
50312 
50362 
50431 
50482 
50512 
50521 
50492 
50482 
50526 
50550 
50611 
50616 
50575 
50579 
50573 
50558 
50562 
50600 
50653 
50715 
50782 
50829 
50900 
50993 
50990 
50941 
50903 
50932 
50939 
50925 
50935 
50922 
50906 
50885 
50897 
50909 
50895 
50848 
50792 
50761 
50735 
50702 
50670 
50675 
50638 
50613 
50602 
50610 
50565 
50533 
50476 
50423 
50347 
50294 
50251 
50215 
50177 
50078 
50034 
49980 
49886 
49783 
49651 
49542 
49445 
49275 
49127 
49014 
48923 
48775 
48626 
48541 
48502 
48459 
48364 
48241 
48159 
48108 
48072 
48046 
47995 
47926 
47865 
47901 
47908 
47938 
47970 
48000 
48008 
47998 
47952 
47904 
47927 
47953 
47996 
48018 
48016 
48092 
48136 
48140 
48130 
48201 
48306 
48307 
48278 
48326 
48414 
48465 
48522 
48599 
48639 
48686 
48749 
48815 
48862 
48917 
48914 
48909 
48929 
48982 
49034 
49072 
49106 
49110 
49106 
49124 
49114 
49058 
49040 
49054 
49120 
49184 
49195 
49139 
49107 
49132 
49138 
49109 
49170 
49206 
49205 
49235 
49245 
49226 
49254 
49334 
49348 
49350 
49361 
49423 
49444 
49451 
49419 
49393 
49364 
49355 
49355 
49392 
49454 
49527 
49511 
49498 
49530 
49588 
49571 
49530 
49566 
49635 
49727 
49823 
49879 
49868 
49895 
49949 
49965 
49933 
49929 
49958 
50070 
50129 
50144 
50141 
50107 
50129 
50143 
50153 
50229 
50288 
50250 
50236 
50236 
50275 
50304 
50313 
50332 
50380 
50381 
50315 
50310 
50321 
50259 
50303 
50311 
50269 
50283 
50301 
50268 
50301 
50329 
50330 
50316 
50346 
50371 
50406 
50399 
50307 
50245 
50262 
50249 
50236 
50273 
50277 
50307 
50329 
50312 
50315 
50280 
50249 
50233 
50222 
50204 
50148 
50103 
50096 
50022 
49969 
49956 
49925 
49869 
49803 
49762 
49651 
49540 
49448 
49373 
49295 
49143 
48994 
48877 
48762 
48641 
48477 
48321 
48205 
48115 
47981 
47875 
47757 
47641 
47534 
47455 
47399 
47318 
47260 
47206 
47141 
47082 
47024 
46955 
46884 
46839 
46837 
46837 
46887 
46925 
46927 
47004 
47065 
47084 
47089 
47071 
47082 
47120 
47155 
47152 
47215 
47288 
47348 
47375 
47398 
47446 
47536 
47630 
47688 
47766 
47778 
47775 
47837 
47918 
47980 
48021 
48085 
48151 
48238 
48288 
48309 
48240 
48241 
48345 
48410 
48466 
48524 
48536 
48540 
48553 
48548 
48601 
48645 
48645 
48662 
48658 
48697 
48774 
48801 
48806 
48841 
48857 
48769 
48699 
48711 
48760 
48863 
48905 
48958 
49027 
49014 
48980 
48950 
49034 
49098 
49135 
49239 
49312 
49294 
49293 
49359 
49407 
49426 
49478 
49539 
49599 
49648 
49678 
49768 
49822 
49816 
49837 
49855 
49891 
49929 
49933 
50042 
50147 
50212 
50336 
50372 
50393 
50469 
50498 
50528 
50551 
50590 
50582 
50597 
50685 
50801 
50823 
50822 
50820 
50839 
50899 
50919 
50906 
50927 
50997 
51032 
51035 
51088 
51133 
51075 
51094 
51131 
51114 
51077 
51062 
51104 
51144 
51160 
51176 
51183 
51190 
51214 
51233 
51253 
51198 
51157 
51250 
51297 
51291 
51278 
51271 
51301 
51290 
51256 
51268 
51285 
51311 
51293 
51233 
51181 
51188 
51202 
51230 
51225 
51256 
51247 
51186 
51124 
51149 
51105 
50968 
50854 
50799 
50705 
50558 
50394 
50223 
50119 
50023 
49863 
49750 
49625 
49485 
49365 
49272 
49178 
49047 
48953 
48774 
48695 
48672 
48608 
48531 
48458 
48367 
48266 
48124 
48039 
47988 
47929 
47893 
47793 
47732 
47703 
47713 
47756 
47731 
47690 
47703 
47758 
47830 
47848 
47873 
47935 
47948 
47985 
48030 
48098 
48148 
48171 
48214 
48258 
48310 
48367 
48427 
48470 
48544 
48663 
48741 
48792 
48865 
48954 
48979 
48985 
49011 
49041 
49084 
49084 
49039 
49066 
49079 
49080 
49070 
49074 
49141 
49221 
49251 
49280 
49336 
49395 
49402 
49416 
49450 
49489 
49473 
49453 
49480 
49502 
49477 
49454 
49447 
49524 
49556 
49451 
49385 
49383 
49381 
49368 
49332 
49297 
49293 
49279 
49243 
49189 
49114 
49077 
49032 
49034 
49022 
48999 
49017 
49065 
49086 
49066 
49057 
49060 
49097 
49184 
49276 
49296 
49304 
49362 
49385 
49419 
49465 
49526 
49573 
49589 
49602 
49644 
49706 
49724 
49729 
49742 
49857 
49919 
49927 
49980 
50053 
50112 
50146 
50162 
50141 
50138 
50140 
50135 
50190 
50256 
50303 
50264 
50286 
50325 
50366 
50413 
50454 
50479 
50435 
50436 
50441 
50453 
50480 
50516 
50540 
50526 
50501 
50516 
50519 
50515 
50510 
50488 
50457 
50430 
50471 
50475 
50426 
50382 
50345 
50332 
50320 
50248 
50169 
50102 
50074 
50036 
49981 
49929 
49859 
49796 
49753 
49707 
49607 
49429 
49284 
49187 
49086 
48943 
48824 
48777 
48702 
48610 
48503 
48400 
48353 
48273 
48146 
48053 
47894 
47804 
47730 
47663 
47636 
47641 
47633 
47568 
47426 
47310 
47265 
47285 
47334 
47344 
47309 
47319 
47357 
47396 
47397 
47333 
47286 
47275 
47289 
47276 
47290 
47329 
47336 
47381 
47438 
47508 
47551 
47579 
47658 
47714 
47801 
47829 
47785 
47761 
47807 
47825 
47857 
47906 
47945 
47937 
47925 
47938 
47926 
47969 
48021 
48040 
48040 
48087 
48205 
48215 
48185 
48215 
48278 
48268 
48171 
48126 
48156 
48113 
48160 
48248 
48292 
48287 
48334 
48341 
48285 
48303 
48319 
48349 
48383 
48440 
48466 
48488 
48513 
48552 
48568 
48578 
48627 
48635 
48645 
48612 
48627 
48709 
48781 
48810 
48907 
49003 
49086 
49185 
49238 
49223 
49272 
49373 
49434 
49459 
49533 
49566 
49576 
49625 
49683 
49732 
49782 
49870 
49926 
49939 
49958 
50011 
50159 
50205 
50218 
50232 
50256 
50298 
50331 
50361 
50318 
50331 
50392 
50376 
50404 
50432 
50470 
50397 
50319 
50283 
50317 
50364 
50384 
50318 
50274 
50291 
50282 
50255 
50256 
50247 
50192 
50210 
50283 
50316 
50303 
50300 
50302 
50325 
50289 
50188 
50227 
50251 
50219 
50210 
50186 
50171 
50083 
49967 
49863 
49800 
49759 
49695 
49614 
49533 
49394 
49243 
49107 
48982 
48862 
48702 
48629 
48613 
48588 
48498 
48408 
48341 
48213 
48115 
48028 
47964 
47948 
47880 
47848 
47838 
47786 
47767 
47718 
47672 
47622 
47593 
47565 
47580 
47605 
47642 
47693 
47772 
47821 
47825 
47822 
47856 
47876 
47880 
47856 
47806 
47841 
47944 
47995 
48063 
48159 
48194 
48216 
48321 
48364 
48360 
48339 
48318 
48346 
48414 
48442 
48495 
48582 
48637 
48664 
48700 
48745 
48770 
48793 
48873 
48954 
48974 
48957 
48952 
48953 
48957 
48980 
48972 
48955 
48917 
48935 
49000 
49052 
49092 
49105 
49118 
49097 
49123 
49175 
49251 
49246 
49209 
49211 
49217 
49245 
49250 
49227 
49219 
49287 
49317 
49326 
49412 
49508 
49547 
49588 
49643 
49685 
49726 
49785 
49824 
49832 
49877 
49902 
49984 
50124 
50176 
50237 
50289 
50336 
50406 
50477 
50500 
50568 
50638 
50684 
50690 
50754 
50847 
50860 
50834 
50899 
50958 
51053 
51181 
51291 
51313 
51315 
51333 
51339 
51355 
51401 
51406 
51374 
51402 
51463 
51552 
51587 
51558 
51501 
51489 
51463 
51469 
51547 
51623 
51616 
51568 
51559 
51603 
51652 
51717 
51737 
51740 
51753 
51768 
51767 
51737 
51678 
51648 
51659 
51600 
51540 
51539 
51561 
51608 
51621 
51641 
51641 
51569 
51543 
51563 
51601 
51611 
51501 
51403 
51360 
51235 
51150 
51094 
51026 
50936 
50793 
50641 
50541 
50455 
50317 
50146 
50008 
49850 
49673 
49560 
49435 
49267 
49149 
49092 
49007 
48922 
48827 
48735 
48634 
48556 
48501 
48477 
48443 
48464 
48460 
48421 
48367 
48307 
48235 
48167 
48191 
48241 
48279 
48217 
48173 
48214 
48256 
48309 
48276 
48213 
48140 
48103 
48106 
48103 
48193 
48308 
48347 
48385 
48434 
48446 
48445 
48459 
48524 
48603 
48618 
48652 
48749 
48795 
48775 
48757 
48852 
48956 
49020 
49056 
49057 
49042 
49061 
49069 
49128 
49169 
49156 
49164 
49217 
49259 
49261 
49278 
49223 
49247 
49299 
49331 
49312 
49280 
49277 
49295 
49303 
49313 
49379 
49368 
49323 
49314 
49294 
49288 
49333 
49361 
49358 
49299 
49289 
49354 
49388 
49425 
49450 
49402 
49391 
49397 
49430 
49431 
49416 
49466 
49459 
49467 
49525 
49581 
49650 
49710 
49726 
49750 
49831 
49896 
49951 
50017 
50060 
50091 
50163 
50264 
50319 
50414 
50500 
50586 
50689 
50738 
50739 
50719 
50726 
50721 
50717 
50795 
50906 
50968 
50991 
51042 
51106 
51191 
51274 
51378 
51425 
51413 
51429 
51449 
51510 
51581 
51635 
51623 
51614 
51658 
51696 
51661 
51614 
51651 
51698 
51700 
51757 
51808 
51771 
51715 
51750 
51812 
51822 
51798 
51814 
51861 
51901 
51874 
51827 
51891 
51909 
51897 
51897 
51871 
51831 
51789 
51787 
51759 
51730 
51715 
51706 
51662 
51621 
51600 
51572 
51513 
51405 
51321 
51259 
51179 
51129 
51024 
50811 
50631 
50533 
50435 
50295 
50179 
50079 
49980 
49846 
49703 
49610 
49558 
49486 
49356 
49194 
49070 
48951 
48864 
48810 
48735 
48653 
48643 
48657 
48609 
48512 
48479 
48544 
48533 
48455 
48441 
48428 
48478 
48470 
48427 
48385 
48434 
48478 
48531 
48532 
48488 
48444 
48463 
48480 
48510 
48548 
48573 
48589 
48647 
48735 
48773 
48826 
48875 
48901 
48941 
49024 
49040 
49015 
49028 
49056 
49074 
49118 
49179 
49248 
49365 
49486 
49501 
49505 
49517 
49556 
49544 
49572 
49628 
49724 
49761 
49730 
49776 
49835 
49847 
49834 
49861 
49843 
49783 
49734 
49783 
49852 
49883 
49847 
49831 
49814 
49857 
49875 
49842 
49770 
49684 
49652 
49659 
49667 
49627 
49596 
49560 
49560 
49588 
49596 
49543 
49526 
49487 
49443 
49445 
49500 
49535 
49559 
49590 
49613 
49636 
49704 
49725 
49727 
49731 
49703 
49754 
49740 
49724 
49747 
49803 
49877 
49884 
49874 
49922 
50008 
50058 
50120 
50190 
50241 
50235 
50270 
50325 
50420 
50555 
50647 
50710 
50732 
50748 
50763 
50792 
50900 
51015 
51098 
51161 
51163 
51143 
51173 
51221 
51266 
51287 
51323 
51406 
51499 
51604 
51643 
51668 
51728 
51776 
51760 
51778 
51780 
51772 
51776 
51789 
51813 
51879 
51958 
52004 
51987 
51993 
51987 
52014 
52044 
52012 
52012 
52018 
51972 
51924 
51905 
51911 
51924 
51914 
51931 
51974 
51981 
51977 
51960 
51966 
51975 
51992 
52010 
52051 
52059 
52019 
52013 
52022 
51996 
51991 
51977 
51908 
51831 
51726 
51664 
51572 
51463 
51385 
51285 
51156 
51080 
51011 
50909 
50794 
50606 
50509 
50427 
50303 
50241 
50175 
50084 
49898 
49740 
49630 
49493 
49389 
49398 
49371 
49291 
49199 
49128 
49041 
48949 
48830 
48787 
48681 
48522 
48435 
48369 
48397 
48468 
48501 
48485 
48435 
48364 
48284 
48143 
48045 
48019 
47985 
47925 
47863 
47818 
47808 
47781 
47800 
47806 
47802 
47805 
47832 
47832 
47859 
47841 
47785 
47772 
47732 
47699 
47689 
47677 
47666 
47654 
47675 
47684 
47708 
47725 
47807 
47866 
47873 
47852 
47840 
47849 
47870 
47862 
47913 
47978 
48050 
48078 
48082 
48112 
48140 
48195 
48242 
48232 
48255 
48299 
48319 
48354 
48375 
48399 
48400 
48368 
48434 
48518 
48576 
48639 
48703 
48725 
48765 
48844 
48905 
48952 
49042 
49102 
49179 
49260 
49317 
49325 
49353 
49392 
49522 
49610 
49659 
49742 
49793 
49791 
49826 
49900 
49959 
50042 
50146 
50215 
50257 
50305 
50351 
50385 
50401 
50401 
50449 
50503 
50556 
50625 
50681 
50766 
50751 
50717 
50761 
50766 
50777 
50776 
50770 
50796 
50808 
50822 
50847 
50870 
50833 
50814 
50814 
50809 
50824 
50850 
50852 
50873 
50929 
50953 
50910 
50951 
51024 
51018 
50973 
50972 
50962 
50901 
50912 
50919 
50930 
50890 
50840 
50893 
50967 
51028 
51058 
51100 
51108 
51110 
51096 
51083 
51079 
51094 
51159 
51154 
51146 
51184 
51175 
51112 
51092 
51105 
51176 
51174 
51108 
51087 
51085 
51167 
51197 
51219 
51204 
51147 
51102 
51110 
51127 
51158 
51161 
51117 
51134 
51115 
51064 
50987 
50973 
51009 
50969 
50874 
50795 
50734 
50715 
50720 
50688 
50607 
50504 
50439 
50357 
50337 
50348 
50337 
50300 
50254 
50261 
50224 
50188 
50200 
50245 
50231 
50201 
50172 
50184 
50228 
50263 
50210 
50167 
50116 
50064 
50075 
50088 
50092 
50101 
50180 
50273 
50251 
50295 
50356 
50340 
50301 
50318 
50371 
50356 
50306 
50290 
50298 
50307 
50247 
50250 
50280 
50279 
50296 
50328 
50388 
50472 
50526 
50541 
50593 
50666 
50737 
50763 
50744 
50809 
50854 
50835 
50873 
50893 
50854 
50878 
50944 
50951 
50973 
50993 
51005 
51044 
51108 
51178 
51291 
51385 
51435 
51450 
51474 
51528 
51619 
51657 
51651 
51658 
51653 
51655 
51687 
51697 
51726 
51752 
51769 
51821 
51906 
51952 
51960 
51959 
51971 
51978 
52019 
52060 
52090 
52157 
52169 
52153 
52171 
52197 
52203 
52211 
52239 
52299 
52378 
52415 
52374 
52332 
52301 
52313 
52289 
52277 
52292 
52290 
52287 
52380 
52414 
52417 
52442 
52489 
52495 
52483 
52513 
52507 
52509 
52485 
52488 
52457 
52478 
52492 
52482 
52530 
52527 
52480 
52433 
52423 
52440 
52459 
52502 
52545 
52577 
52579 
52561 
52578 
52620 
52576 
52547 
52537 
52553 
52579 
52571 
52610 
52610 
52627 
52701 
52765 
52786 
52778 
52777 
52739 
52716 
52778 
52825 
52903 
52888 
52881 
52885 
52888 
52957 
52967 
52909 
52850 
52811 
52783 
52775 
52762 
52768 
52782 
52808 
52797 
52741 
52691 
52687 
52694 
52726 
52738 
52710 
52706 
52685 
52642 
52652 
52645 
52545 
52410 
52378 
52384 
52374 
52342 
52355 
52341 
52263 
52183 
52137 
52156 
52156 
52133 
52143 
52165 
52173 
52210 
52173 
52108 
52145 
52155 
52103 
52081 
52069 
52086 
52087 
52090 
52076 
52061 
52030 
51967 
51920 
51943 
51945 
51945 
51978 
51960 
51985 
52031 
52029 
51999 
51981 
51988 
51958 
51967 
51990 
52005 
51971 
52000 
52059 
52086 
52085 
52074 
52109 
52091 
51998 
52002 
52010 
52069 
52156 
52175 
52198 
52209 
52187 
52191 
52196 
52233 
52196 
52126 
52126 
52178 
52226 
52236 
52262 
52312 
52284 
52279 
52348 
52377 
52412 
52430 
52425 
52384 
52374 
52362 
52342 
52329 
52333 
52359 
52362 
52309 
52331 
52315 
52298 
52324 
52372 
52403 
52377 
52390 
52435 
52479 
52444 
52414 
52442 
52448 
52435 
52402 
52408 
52406 
52405 
52425 
52453 
52461 
52405 
52421 
52451 
52505 
52552 
52553 
52520 
52501 
52477 
52484 
52534 
52546 
52538 
52540 
52537 
52543 
52572 
52610 
52644 
52679 
52679 
52709 
52710 
52744 
52780 
52796 
52800 
52759 
52722 
52702 
52718 
52722 
52732 
52678 
52656 
52623 
52634 
52661 
52635 
52655 
52666 
52664 
52623 
52610 
52583 
52632 
52637 
52661 
52688 
52720 
52712 
52692 
52734 
52738 
52695 
52680 
52735 
52764 
52714 
52649 
52652 
52647 
52618 
52563 
52560 
52611 
52649 
52633 
52612 
52525 
52471 
52476 
52450 
52390 
52382 
52334 
52333 
52386 
52438 
52461 
52520 
52537 
52544 
52530 
52518 
52523 
52591 
52663 
52682 
52626 
52589 
52553 
52557 
52548 
52532 
52553 
52543 
52535 
52547 
52567 
52605 
52574 
52565 
52556 
52558 
52658 
52657 
52609 
52565 
52554 
52585 
52609 
52586 
52545 
52509 
52532 
52506 
52492 
52504 
52476 
52450 
52488 
52537 
52569 
52549 
52544 
52538 
52502 
52490 
52464 
52418 
52374 
52352 
52326 
52341 
52317 
52265 
52245 
52254 
52249 
52235 
52238 
52235 
52198 
52197 
52210 
52189 
52123 
52084 
52106 
52084 
52096 
52106 
52111 
52083 
52058 
52103 
52154 
52153 
52175 
52233 
52210 
52205 
52202 
52193 
52117 
52089 
52131 
52141 
52169 
52206 
52223 
52234 
52274 
52318 
52336 
52332 
52327 
52294 
52229 
52213 
52180 
52143 
52155 
52176 
52143 
52120 
52122 
52077 
52073 
52122 
52117 
52078 
52001 
51978 
51996 
52023 
52013 
52000 
51923 
51913 
51925 
51964 
51949 
51891 
51867 
51871 
51875 
51882 
51899 
51973 
52006 
51943 
51894 
51920 
51911 
51906 
51967 
52013 
52020 
52016 
52002 
51978 
51975 
52029 
52038 
52061 
52077 
52111 
52159 
52179 
52184 
52181 
52154 
52131 
52126 
52132 
52099 
52066 
52055 
52049 
52019 
51991 
52013 
52049 
52061 
52040 
52050 
52146 
52217 
52201 
52152 
52112 
52062 
52040 
52043 
52052 
52067 
52094 
52102 
52084 
52066 
52088 
52118 
52126 
52099 
52062 
52081 
52080 
52082 
52082 
52081 
52060 
52003 
52033 
52049 
52001 
51991 
52032 
52049 
52088 
52080 
52058 
52063 
52075 
52092 
52101 
52172 
52213 
52233 
52281 
52281 
52257 
52234 
52227 
52278 
52304 
52312 
52283 
52264 
52277 
52293 
52334 
52335 
52284 
52284 
52387 
52435 
52451 
52445 
52431 
52388 
52368 
52354 
52358 
52373 
52388 
52375 
52351 
52341 
52344 
52334 
52356 
52424 
52434 
52455 
52489 
52492 
52454 
52416 
52433 
52448 
52418 
52384 
52364 
52361 
52403 
52426 
52412 
52442 
52484 
52494 
52506 
52421 
52401 
52386 
52348 
52328 
52313 
52312 
52275 
52251 
52256 
52227 
52200 
52234 
52275 
52323 
52334 
52287 
52230 
52170 
52145 
52095 
52083 
52102 
52165 
52227 
52205 
52151 
52137 
52170 
52169 
52189 
52222 
52226 
52213 
52144 
52109 
52105 
52115 
52107 
52079 
52049 
52030 
52075 
52087 
52076 
52058 
52037 
52017 
52004 
52009 
52047 
52052 
52030 
52025 
51971 
51978 
51971 
51924 
51891 
51858 
51827 
51823 
51853 
51898 
51890 
51876 
51924 
51960 
51967 
51967 
51994 
51999 
51986 
52030 
52041 
52028 
52041 
52025 
51943 
51931 
51933 
51890 
51826 
51751 
51745 
51805 
51850 
51861 
51876 
51876 
51875 
51868 
51835 
51783 
51782 
51788 
51811 
51799 
51795 
51801 
51781 
51781 
51789 
51773 
51731 
51672 
51651 
51677 
51665 
51580 
51541 
51574 
51562 
51534 
51526 
51509 
51579 
51634 
51652 
51640 
51661 
51637 
51641 
51642 
51618 
51593 
51630 
51694 
51651 
51612 
51599 
51616 
51638 
51647 
51676 
51685 
51641 
51579 
51535 
51559 
51584 
51643 
51663 
51677 
51628 
51564 
51511 
51469 
51494 
51549 
51600 
51600 
51557 
51518 
51471 
51475 
51532 
51556 
51529 
51511 
51533 
51490 
51423 
51409 
51384 
51430 
51446 
51440 
51435 
51428 
51451 
51455 
51435 
51438 
51429 
51432 
51416 
51417 
51433 
51418 
51366 
51361 
51361 
51431 
51472 
51460 
51404 
51398 
51385 
51377 
51329 
51293 
51296 
51357 
51374 
51348 
51332 
51392 
51434 
51433 
51413 
51453 
51509 
51457 
51433 
51437 
51440 
51408 
51354 
51354 
51371 
51368 
51350 
51330 
51368 
51365 
51353 
51396 
51391 
51312 
51267 
51281 
51344 
51370 
51348 
51288 
51245 
51275 
51284 
51254 
51253 
51271 
51295 
51289 
51290 
51327 
51333 
51315 
51324 
51259 
51260 
51312 
51337 
51343 
51307 
51274 
51259 
51250 
51243 
51219 
51222 
51229 
51298 
51333 
51315 
51289 
51249 
51175 
51213 
51272 
51247 
51272 
51367 
51377 
51350 
51351 
51341 
51352 
51398 
51391 
51373 
51362 
51413 
51435 
51448 
51465 
51459 
51437 
51395 
51366 
51363 
51461 
51509 
51486 
51445 
51411 
51400 
51478 
51516 
51487 
51463 
51441 
51434 
51468 
51462 
51417 
51395 
51351 
51340 
51379 
51403 
51379 
51414 
51446 
51405 
51409 
51421 
51367 
51341 
51350 
51330 
51302 
51379 
51434 
51429 
51400 
51332 
51281 
51238 
51214 
51221 
51258 
51287 
51317 
51331 
51343 
51352 
51364 
51386 
51424 
51429 
51448 
51444 
51392 
51373 
51374 
51384 
51373 
51331 
51325 
51332 
51284 
51282 
51301 
51281 
51260 
51259 
51257 
51243 
51212 
51247 
51284 
51335 
51333 
51316 
51273 
51237 
51243 
51256 
51243 
51260 
51287 
51259 
51221 
51217 
51216 
51221 
51234 
51276 
51255 
51252 
51273 
51245 
51233 
51243 
51265 
51285 
51295 
51305 
51312 
51302 
51281 
51307 
51328 
51288 
51272 
51233 
51191 
51216 
51299 
51243 
51229 
51249 
51306 
51326 
51330 
51357 
51378 
51399 
51335 
51252 
51199 
51179 
51132 
51096 
51112 
51178 
51205 
51171 
51178 
51221 
51205 
51203 
51204 
51214 
51246 
51301 
51298 
51265 
51229 
51192 
51196 
51198 
51214 
51246 
51282 
51294 
51262 
51241 
51238 
51214 
51206 
51196 
51230 
51284 
51365 
51366 
51352 
51314 
51206 
51115 
51093 
51067 
51075 
51153 
51197 
51188 
51180 
51247 
51265 
51277 
51250 
51194 
51204 
51200 
51144 
51095 
51068 
51146 
51161 
51148 
51114 
51058 
51044 
51090 
51108 
51120 
51099 
51095 
51123 
51117 
51130 
51114 
51110 
51120 
51130 
51140 
51128 
51175 
51182 
51188 
51161 
51162 
51138 
51108 
51123 
51103 
51095 
51123 
51094 
51042 
51042 
51064 
51091 
51122 
51139 
51104 
51103 
51160 
51188 
51152 
51138 
51102 
51085 
51043 
51045 
51055 
50998 
50968 
50977 
50989 
50970 
50997 
50969 
50958 
50964 
50978 
50980 
50963 
50976 
50965 
50916 
50931 
50921 
50945 
51050 
51109 
51104 
51078 
51031 
51003 
50956 
50945 
50931 
50919 
50926 
50951 
50946 
50938 
50906 
50911 
50939 
50931 
50916 
50919 
50874 
50880 
50860 
50844 
50874 
50898 
50910 
50921 
50914 
50860 
50827 
50772 
50778 
50855 
50884 
50853 
50851 
50889 
50944 
50933 
50876 
50873 
50851 
50807 
50752 
50719 
50706 
50737 
50823 
50831 
50806 
50780 
50737 
50734 
50721 
50728 
50765 
50762 
50784 
50773 
50800 
50875 
50895 
50866 
50830 
50837 
50878 
50909 
50975 
51001 
51028 
51007 
50951 
50932 
50896 
50848 
50836 
50844 
50862 
50864 
50833 
50861 
50867 
50884 
50897 
50898 
50900 
50886 
50884 
50925 
50944 
50968 
50982 
50901 
50868 
50843 
50844 
50862 
50904 
50902 
50873 
50915 
50967 
51008 
50991 
51001 
51012 
51000 
50972 
50986 
51004 
51023 
51045 
51058 
51032 
51031 
51013 
50974 
50986 
51000 
51000 
50956 
50961 
50951 
50910 
50956 
50965 
50955 
50912 
50898 
50905 
50905 
50909 
50933 
50915 
50966 
50981 
50940 
50925 
50905 
50874 
50862 
50884 
50897 
50900 
50885 
50860 
50865 
50906 
50915 
50909 
50926 
50943 
50949 
50937 
50952 
50973 
50979 
50971 
51006 
51028 
51032 
51002 
50953 
50950 
50930 
50888 
50793 
50767 
50773 
50798 
50817 
50854 
50896 
50812 
50769 
50786 
50848 
50900 
50917 
50872 
50817 
50805 
50874 
50908 
50903 
50856 
50801 
50791 
50820 
50840 
50785 
50782 
50798 
50824 
50913 
50928 
50929 
50917 
50905 
50905 
50894 
50877 
50893 
50890 
50888 
50860 
50915 
50877 
50764 
50760 
50804 
50756 
50763 
50851 
50869 
50879 
50901 
50891 
50869 
50883 
50868 
50851 
50870 
50923 
50936 
50893 
50852 
50816 
50803 
50818 
50802 
50809 
50867 
50889 
50865 
50858 
50872 
50900 
50856 
50823 
50817 
50855 
50916 
50979 
50991 
50970 
51003 
51024 
50964 
50908 
50880 
50868 
50807 
50814 
50864 
50894 
50931 
50936 
50901 
50892 
50920 
50945 
50922 
50895 
50918 
50952 
50919 
50936 
50901 
50884 
50894 
50881 
50913 
50947 
50931 
50921 
50976 
51000 
50935 
50918 
50914 
50860 
50837 
50816 
50802 
50803 
50848 
50896 
50852 
50809 
50805 
50842 
50840 
50841 
50825 
50823 
50867 
50892 
50887 
50905 
50888 
50873 
50896 
50907 
50896 
50830 
50826 
50835 
50866 
50924 
50958 
50950 
50986 
50975 
50896 
50855 
50810 
50776 
50741 
50742 
50747 
50778 
50775 
50778 
50839 
50815 
50800 
50796 
50782 
50786 
50795 
50839 
50869 
50862 
50823 
50837 
50841 
50831 
50788 
50791 
50807 
50824 
50788 
50788 
50779 
50779 
50741 
50701 
50695 
50646 
50601 
50574 
50560 
50608 
50664 
50646 
50637 
50713 
50769 
50720 
50620 
50578 
50578 
50589 
50610 
50582 
50499 
50492 
50503 
50445 
50433 
50462 
50471 
50464 
50452 
50458 
50496 
50530 
50556 
50581 
50606 
50568 
50533 
50503 
50510 
50523 
50515 
50540 
50558 
50545 
50546 
50550 
50527 
50515 
50501 
50480 
50461 
50470 
50461 
50452 
50460 
50473 
50468 
50453 
50456 
50504 
50506 
50472 
50470 
50506 
50589 
50606 
50619 
50614 
50614 
50629 
50605 
50579 
50608 
50610 
50609 
50596 
50558 
50482 
50446 
50453 
50462 
50497 
50491 
50454 
50411 
50416 
50444 
50459 
50450 
50428 
50413 
50414 
50460 
50481 
50481 
50463 
50444 
50434 
50446 
50466 
50425 
50346 
50326 
50303 
50265 
50278 
50279 
50303 
50399 
50454 
50465 
50432 
50435 
50444 
50446 
50413 
50385 
50422 
50431 
50440 
50408 
50447 
50448 
50388 
50346 
50332 
50334 
50359 
50335 
50331 
50370 
50379 
50390 
50439 
50405 
50368 
50397 
50378 
50353 
50361 
50402 
50468 
50464 
50440 
50404 
50386 
50372 
50377 
50401 
50431 
50450 
50385 
50343 
50364 
50407 
50471 
50474 
50456 
50484 
50500 
50455 
50408 
50373 
50351 
50334 
50338 
50370 
50408 
50445 
50450 
50477 
50451 
50395 
50378 
50378 
50343 
50302 
50375 
50393 
50368 
50399 
50433 
50422 
50401 
50379 
50338 
50310 
50374 
50385 
50389 
50452 
50468 
50472 
50442 
50426 
50460 
50424 
50411 
50415 
50357 
50324 
50302 
50311 
50362 
50385 
50397 
50352 
50318 
50349 
50366 
50334 
50283 
50259 
50256 
50250 
50249 
50229 
50208 
50160 
50164 
50236 
50319 
50378 
50346 
50308 
50306 
50322 
50296 
50282 
50311 
50315 
50283 
50269 
50299 
50282 
50237 
50194 
50130 
50075 
50016 
49992 
49958 
49888 
49894 
49929 
49955 
49943 
49888 
49856 
49815 
49818 
49860 
49880 
49916 
49900 
49859 
49812 
49806 
49789 
49768 
49701 
49619 
49629 
49683 
49696 
49729 
49738 
49724 
49730 
49732 
49658 
49582 
49574 
49616 
49674 
49699 
49737 
49745 
49731 
49713 
49698 
49686 
49673 
49658 
49607 
49622 
49677 
49706 
49733 
49710 
49651 
49628 
49613 
49631 
49669 
49690 
49717 
49730 
49750 
49750 
49783 
49827 
49830 
49785 
49784 
49824 
49820 
49819 
49844 
49882 
49868 
49839 
49843 
49842 
49806 
49804 
49826 
49813 
49762 
49805 
49847 
49839 
49801 
49778 
49792 
49863 
49908 
49869 
49913 
49981 
50016 
49979 
49961 
49991 
50041 
50021 
49977 
49987 
49965 
49963 
49974 
49957 
49972 
49993 
49985 
50020 
50061 
50086 
50079 
50029 
50010 
50022 
50039 
50043 
50073 
50063 
50030 
50128 
50158 
50104 
50118 
50147 
50181 
50238 
50259 
50245 
50240 
50271 
50288 
50289 
50317 
50343 
50333 
50231 
50199 
50201 
50213 
50284 
50337 
50344 
50257 
50180 
50133 
50164 
50200 
50233 
50213 
50229 
50217 
50218 
50245 
50246 
50201 
50166 
50156 
50166 
50165 
50192 
50141 
50172 
50203 
50210 
50263 
50284 
50287 
50226 
50217 
50215 
50203 
50203 
50203 
50228 
50254 
50288 
50279 
50238 
50212 
50237 
50236 
50218 
50195 
50140 
50072 
50060 
50106 
50125 
50136 
50135 
50140 
50120 
50085 
50050 
50040 
50018 
50012 
49977 
49966 
49934 
49907 
49874 
49836 
49778 
49727 
49734 
49705 
49651 
49653 
49626 
49610 
49653 
49669 
49676 
49707 
49685 
49639 
49593 
49605 
49544 
49525 
49541 
49482 
49462 
49547 
49561 
49579 
49555 
49551 
49583 
49621 
49639 
49635 
49606 
49635 
49725 
49745 
49700 
49672 
49654 
49617 
49575 
49575 
49647 
49672 
49699 
49718 
49693 
49690 
49668 
49652 
49639 
49682 
49740 
49751 
49740 
49728 
49749 
49700 
49633 
49689 
49683 
49682 
49702 
49731 
49769 
49790 
49798 
49819 
49860 
49880 
49867 
49804 
49801 
49822 
49823 
49842 
49823 
49822 
49794 
49828 
49824 
49824 
49871 
49888 
50001 
50082 
50108 
50046 
50014 
50008 
50064 
50086 
50082 
50099 
50159 
50185 
50159 
50198 
50197 
50155 
50127 
50169 
50181 
50191 
50209 
50226 
50242 
50245 
50232 
50237 
50295 
50303 
50300 
50297 
50318 
50406 
50476 
50454 
50413 
50405 
50378 
50410 
50468 
50496 
50449 
50453 
50558 
50625 
50681 
50708 
50682 
50617 
50573 
50536 
50515 
50553 
50610 
50579 
50581 
50673 
50729 
50671 
50652 
50646 
50651 
50622 
50573 
50584 
50525 
50482 
50547 
50592 
50610 
50604 
50596 
50574 
50538 
50568 
50633 
50615 
50598 
50576 
50551 
50588 
50656 
50699 
50711 
50725 
50802 
50837 
50827 
50824 
50813 
50796 
50805 
50772 
50780 
50736 
50696 
50720 
50781 
50816 
50812 
50773 
50784 
50749 
50735 
50725 
50698 
50622 
50582 
50526 
50502 
50513 
50510 
50483 
50416 
50357 
50314 
50243 
50256 
50195 
50142 
50137 
50146 
50185 
50147 
50095 
50084 
50103 
50109 
50110 
50074 
49986 
49869 
49815 
49824 
49835 
49883 
49936 
49911 
49925 
49965 
49932 
49901 
49869 
49843 
49857 
49946 
50013 
49977 
49917 
49911 
49937 
49921 
49902 
49927 
49963 
50014 
50056 
50101 
50148 
50134 
50117 
50177 
50209 
50214 
50227 
50248 
50231 
50197 
50184 
50133 
50114 
50191 
50239 
50265 
50214 
50199 
50276 
50288 
50244 
50220 
50201 
50252 
50318 
50328 
50333 
50366 
50388 
50353 
50304 
50328 
50315 
50306 
50359 
50395 
50413 
50429 
50451 
50471 
50560 
50638 
50645 
50660 
50619 
50569 
50562 
50598 
50638 
50643 
50592 
50577 
50572 
50553 
50577 
50600 
50568 
50549 
50524 
50532 
50594 
50612 
50641 
50625 
50589 
50623 
50643 
50666 
50671 
50702 
50755 
50764 
50797 
50764 
50741 
50798 
50781 
50805 
50812 
50815 
50792 
50780 
50782 
50830 
50894 
50918 
50939 
50935 
50894 
50890 
50939 
50973 
50976 
51013 
51044 
51032 
50995 
50964 
50917 
50936 
50968 
51000 
51015 
51036 
51064 
51041 
51034 
51040 
51009 
51012 
50964 
50926 
50913 
50956 
51035 
51040 
51027 
50965 
50958 
50973 
51000 
50996 
50972 
50982 
50985 
51017 
51024 
50987 
50977 
50963 
50968 
50931 
50886 
50912 
50912 
50921 
50924 
50893 
50828 
50755 
50726 
50722 
50757 
50732 
50698 
50653 
50605 
50554 
50482 
50452 
50410 
50394 
50376 
50392 
50381 
50338 
50305 
50285 
50266 
50275 
50267 
50274 
50295 
50241 
50145 
50083 
50096 
50105 
50117 
50095 
50048 
50047 
50042 
50033 
49981 
49921 
49892 
49878 
49906 
49948 
49980 
50014 
50049 
50025 
50053 
50096 
50027 
50056 
50155 
50228 
50294 
50288 
50286 
50311 
50306 
50316 
50331 
50264 
50251 
50248 
50253 
50296 
50282 
50269 
50309 
50310 
50277 
50300 
50315 
50317 
50358 
50376 
50393 
50417 
50411 
50442 
50453 
50463 
50430 
50461 
50487 
50475 
50443 
50508 
50604 
50684 
50645 
50633 
50637 
50655 
50730 
50747 
50748 
50773 
50765 
50709 
50684 
50703 
50713 
50752 
50774 
50801 
50774 
50742 
50764 
50766 
50776 
50785 
50831 
50919 
50893 
50937 
50990 
50970 
50932 
50930 
50958 
50952 
50969 
50952 
50910 
50922 
50966 
51066 
51108 
51064 
51080 
51064 
51026 
50988 
51011 
51051 
51049 
51038 
51052 
51084 
51108 
51116 
51075 
51072 
51117 
51123 
51055 
51066 
51139 
51177 
51171 
51153 
51179 
51181 
51184 
51238 
51310 
51283 
51248 
51247 
51222 
51227 
51220 
51256 
51285 
51244 
51229 
51233 
51231 
51195 
51180 
51248 
51268 
51280 
51313 
51350 
51376 
51364 
51332 
51339 
51309 
51300 
51284 
51238 
51240 
51244 
51237 
51220 
51202 
51211 
51189 
51085 
50964 
50957 
50997 
50988 
51005 
50957 
50891 
50848 
50805 
50730 
50683 
50657 
50624 
50604 
50590 
50537 
50495 
50446 
50404 
50363 
50325 
50295 
50272 
50227 
50177 
50178 
50213 
50201 
50159 
50160 
50156 
50181 
50139 
50134 
50133 
50073 
49980 
50000 
50055 
50098 
50014 
49969 
49986 
50063 
50094 
50146 
50156 
50162 
50112 
50086 
50054 
50090 
50146 
50153 
50163 
50167 
50214 
50284 
50306 
50315 
50291 
50317 
50358 
50374 
50432 
50497 
50521 
50518 
50554 
50561 
50543 
50616 
50635 
50621 
50561 
50591 
50631 
50682 
50726 
50776 
50807 
50849 
50858 
50867 
50901 
50858 
50848 
50912 
50957 
50997 
51006 
51036 
51100 
51097 
51010 
51002 
51102 
51112 
51146 
51186 
51188 
51220 
51268 
51315 
51322 
51310 
51291 
51319 
51329 
51311 
51336 
51313 
51284 
51369 
51427 
51443 
51419 
51394 
51388 
51409 
51457 
51501 
51494 
51507 
51528 
51575 
51667 
51719 
51730 
51724 
51752 
51787 
51791 
51719 
51718 
51774 
51840 
51843 
51870 
51919 
51926 
51925 
51927 
51915 
51956 
52003 
52044 
52032 
52060 
52104 
52073 
52042 
52064 
52045 
52017 
52025 
52022 
52069 
52132 
52175 
52234 
52228 
52183 
52127 
52131 
52137 
52143 
52133 
52090 
52077 
52094 
52066 
52050 
52104 
52128 
52140 
52184 
52191 
52164 
52152 
52160 
52144 
52161 
52201 
52223 
52166 
52125 
52094 
52091 
52039 
51996 
51988 
51934 
51909 
51863 
51789 
51737 
51669 
51637 
51598 
51527 
51447 
51359 
51226 
51148 
51067 
50988 
50960 
50904 
50805 
50718 
50648 
50594 
50594 
50555 
50546 
50540 
50479 
50437 
50405 
50363 
50319 
50253 
50208 
50189 
50160 
50134 
50128 
50150 
50146 
50166 
50194 
50251 
50216 
50194 
50165 
50142 
50144 
50193 
50201 
50238 
50271 
50286 
50335 
50352 
50368 
50337 
50365 
50464 
50536 
50568 
50629 
50640 
50635 
50642 
50679 
50690 
50739 
50869 
50926 
50936 
50985 
51062 
51062 
51006 
51035 
51141 
51146 
51153 
51196 
51218 
51209 
51216 
51310 
51378 
51352 
51338 
51389 
51459 
51487 
51577 
51528 
51524 
51517 
51521 
51524 
51578 
51610 
51594 
51581 
51624 
51715 
51762 
51738 
51702 
51718 
51750 
51783 
51796 
51806 
51748 
51760 
51864 
51955 
51998 
52031 
52036 
52033 
52005 
51991 
52034 
52107 
52128 
52183 
52222 
52231 
52195 
52155 
52174 
52206 
52207 
52249 
52273 
52220 
52263 
52324 
52286 
52300 
52353 
52381 
52402 
52401 
52388 
52416 
52421 
52401 
52380 
52403 
52448 
52484 
52499 
52479 
52440 
52471 
52509 
52498 
52534 
52591 
52601 
52581 
52614 
52619 
52622 
52653 
52644 
52656 
52713 
52737 
52721 
52689 
52669 
52665 
52702 
52774 
52804 
52808 
52875 
52859 
52811 
52810 
52796 
52818 
52821 
52813 
52786 
52777 
52811 
52758 
52744 
52725 
52675 
52683 
52686 
52621 
52552 
52479 
52463 
52460 
52401 
52295 
52263 
52239 
52153 
52014 
51943 
51896 
51834 
51741 
51614 
51563 
51554 
51539 
51475 
51388 
51316 
51335 
51371 
51346 
51306 
51265 
51213 
51207 
51201 
51190 
51149 
51082 
51018 
51004 
50995 
51017 
51066 
51041 
51054 
51086 
51102 
51128 
51118 
51105 
51142 
51191 
51228 
51232 
51266 
51289 
51367 
51409 
51458 
51468 
51480 
51501 
51553 
51611 
51660 
51650 
51659 
51702 
51725 
51741 
51781 
51850 
51892 
51882 
51889 
51893 
51893 
51923 
51931 
51925 
51941 
51948 
51978 
52051 
52083 
52056 
52089 
52107 
52105 
52081 
52064 
52022 
52052 
52141 
52174 
52191 
52189 
52186 
52204 
52196 
52181 
52169 
52186 
52231 
52217 
52147 
52032 
52015 
52044 
52096 
52124 
52156 
52166 
52188 
52241 
52288 
52300 
52298 
52341 
52333 
52303 
52326 
52395 
52448 
52440 
52450 
52437 
52362 
52377 
52394 
52416 
52438 
52471 
52490 
52468 
52483 
52489 
52524 
52529 
52520 
52529 
52508 
52518 
52556 
52606 
52635 
52615 
52566 
52559 
52579 
52582 
52576 
52542 
52470 
52425 
52466 
52464 
52425 
52437 
52440 
52411 
52408 
52376 
52425 
52491 
52545 
52557 
52567 
52525 
52502 
52496 
52544 
52575 
52544 
52608 
52642 
52638 
52678 
52686 
52616 
52555 
52534 
52540 
52519 
52489 
52487 
52466 
52489 
52522 
52472 
52387 
52332 
52314 
52307 
52229 
52146 
52081 
52068 
52015 
51953 
51890 
51817 
51750 
51683 
51632 
51596 
51517 
51449 
51389 
51333 
51342 
51291 
51252 
51260 
51247 
51217 
51236 
51259 
51247 
51223 
51204 
51204 
51196 
51183 
51246 
51349 
51377 
51332 
51298 
51272 
51325 
51344 
51393 
51499 
51534 
51515 
51545 
51556 
51562 
51567 
51582 
51602 
51665 
51673 
51644 
51683 
51726 
51742 
51785 
51801 
51806 
51856 
51976 
52004 
52033 
52031 
52022 
52011 
52025 
52078 
52131 
52160 
52180 
52166 
52162 
52148 
52158 
52202 
52223 
52216 
52211 
52238 
52235 
52215 
52182 
52166 
52165 
52137 
52174 
52205 
52207 
52180 
52188 
52168 
52166 
52196 
52160 
52153 
52174 
52109 
52069 
52089 
52122 
52105 
52048 
51978 
51976 
51983 
52010 
52073 
52086 
52122 
52192 
52192 
52140 
52164 
52166 
52145 
52159 
52217 
52243 
52338 
52461 
52483 
52511 
52551 
52583 
52614 
52623 
52627 
52642 
52667 
52684 
52700 
52737 
52716 
52715 
52721 
52703 
52691 
52660 
52619 
52622 
52613 
52615 
52619 
52613 
52669 
52707 
52725 
52723 
52724 
52691 
52689 
52717 
52751 
52751 
52703 
52692 
52712 
52765 
52777 
52764 
52708 
52655 
52627 
52594 
52603 
52605 
52604 
52605 
52542 
52449 
52379 
52268 
52182 
52149 
52107 
52043 
51954 
51857 
51787 
51719 
51650 
51543 
51475 
51436 
51351 
51263 
51207 
51120 
51094 
51066 
51069 
51060 
51026 
51024 
50991 
50921 
50872 
50861 
50905 
50989 
51047 
51067 
51098 
51108 
51084 
51057 
51028 
50999 
51031 
51101 
51116 
51117 
51189 
51262 
51313 
51320 
51332 
51332 
51377 
51351 
51331 
51408 
51445 
51460 
51546 
51564 
51545 
51605 
51680 
51745 
51709 
51704 
51787 
51879 
51905 
51922 
51924 
51940 
52030 
52118 
52137 
52141 
52172 
52187 
52186 
52224 
52215 
52218 
52209 
52255 
52301 
52287 
52269 
52262 
52285 
52347 
52349 
52330 
52310 
52295 
52251 
52201 
52216 
52322 
52362 
52351 
52404 
52458 
52480 
52511 
52536 
52545 
52541 
52486 
52505 
52540 
52533 
52584 
52611 
52656 
52693 
52722 
52784 
52750 
52661 
52611 
52613 
52705 
52798 
52803 
52823 
52837 
52862 
52919 
52961 
52960 
52974 
52992 
53013 
53019 
53069 
53087 
53118 
53174 
53148 
53107 
53089 
53097 
53098 
53069 
53120 
53199 
53189 
53175 
53178 
53215 
53197 
53172 
53170 
53178 
53166 
53153 
53175 
53179 
53217 
53193 
53114 
53058 
53041 
52982 
52895 
52861 
52827 
52770 
52722 
52681 
52631 
52502 
52395 
52341 
52231 
52086 
52038 
51985 
51922 
51842 
51778 
51729 
51667 
51556 
51469 
51414 
51353 
51333 
51257 
51182 
51113 
51066 
51048 
50996 
50932 
50928 
50942 
50959 
50984 
51047 
51090 
51090 
51114 
51185 
51225 
51265 
51221 
51205 
51240 
51336 
51389 
51446 
51500 
51548 
51601 
51644 
51653 
51627 
51662 
51788 
51878 
51850 
51857 
51927 
51999 
52068 
52108 
52139 
52165 
52245 
52282 
52306 
52372 
52487 
52560 
52564 
52570 
52624 
52694 
52740 
52803 
52854 
52867 
52811 
52817 
52816 
52843 
52852 
52823 
52830 
52828 
52845 
52893 
52914 
52921 
52885 
52879 
52877 
52849 
52853 
52866 
52873 
52867 
52839 
52805 
52819 
52776 
52763 
52771 
52816 
52903 
52939 
52978 
53026 
52985 
52961 
52963 
53017 
53088 
53113 
53132 
53153 
53190 
53174 
53177 
53192 
53199 
53231 
53317 
53359 
53372 
53419 
53446 
53451 
53476 
53504 
53509 
53533 
53577 
53606 
53606 
53645 
53675 
53677 
53700 
53781 
53819 
53812 
53835 
53877 
53866 
53871 
53926 
53934 
53943 
53939 
53924 
53897 
53903 
53887 
53855 
53841 
53811 
53750 
53754 
53788 
53811 
53815 
53760 
53705 
53638 
53622 
53597 
53545 
53485 
53370 
53276 
53205 
53129 
52982 
52827 
52728 
52658 
52574 
52484 
52405 
52286 
52206 
52151 
52106 
52063 
52022 
52024 
51996 
51925 
51857 
51848 
51812 
51754 
51716 
51707 
51756 
51729 
51690 
51734 
51766 
51743 
51793 
51815 
51755 
51749 
51763 
51835 
51899 
51959 
52024 
52072 
52125 
52191 
52234 
52309 
52389 
52479 
52553 
52640 
52744 
52830 
52908 
52997 
53119 
53187 
53282 
53363 
53430 
53500 
53581 
53634 
53681 
53772 
53866 
53942 
53994 
53997 
54020 
54140 
54157 
54186 
54268 
54329 
54333 
54427 
54545 
54629 
54704 
54801 
54891 
54953 
54993 
55062 
55122 
55114 
55133 
55178 
55254 
55262 
55277 
55319 
55364 
55455 
55503 
55528 
55588 
55620 
55669 
55665 
55695 
55753 
55809 
55820 
55849 
55886 
55914 
55962 
56000 
55990 
56103 
56164 
56187 
56195 
56239 
56267 
56237 
56235 
56308 
56419 
56448 
56476 
56497 
56475 
56467 
56449 
56443 
56452 
56480 
56563 
56633 
56710 
56742 
56732 
56724 
56719 
56678 
56669 
56649 
56609 
56581 
56578 
56595 
56594 
56597 
56577 
56497 
56451 
56423 
56391 
56390 
56357 
56353 
56317 
56257 
56231 
56175 
56119 
56064 
56013 
56030 
56016 
55951 
55882 
55829 
55844 
55806 
55738 
55720 
55696 
55663 
55548 
55439 
55377 
55328 
55218 
55124 
55067 
55043 
54929 
54779 
54720 
54676 
54580 
54437 
54251 
54100 
53944 
53789 
53645 
53532 
53372 
53112 
52928 
52812 
52735 
52618 
52442 
52274 
52125 
51969 
51789 
51666 
51523 
51307 
51100 
51016 
51020 
50987 
50886 
50808 
50801 
50826 
50780 
50731 
50659 
50560 
50487 
50460 
50486 
50556 
50553 
50496 
50480 
50465 
50460 
50457 
50472 
50455 
50448 
50451 
50403 
50397 
50434 
50448 
50445 
50458 
50425 
50410 
50393 
50384 
50433 
50540 
50612 
50664 
50647 
50583 
50565 
50608 
50683 
50709 
50697 
50729 
50774 
50803 
50811 
50784 
50820 
50843 
50852 
50833 
50879 
50928 
50935 
50936 
50943 
50969 
51017 
51065 
51081 
51110 
51187 
51172 
51152 
51098 
51065 
51067 
51074 
51088 
51157 
51144 
51130 
51133 
51191 
51227 
51230 
51258 
51277 
51276 
51295 
51362 
51429 
51496 
51498 
51490 
51546 
51592 
51612 
51623 
51657 
51672 
51710 
51735 
51774 
51788 
51854 
51954 
52016 
52029 
52034 
52090 
52161 
52195 
52199 
52186 
52210 
52245 
52274 
52330 
52432 
52458 
52477 
52544 
52589 
52614 
52717 
52812 
52833 
52869 
52894 
52910 
52930 
52971 
52986 
53018 
53121 
53160 
53179 
53207 
53303 
53376 
53358 
53330 
53320 
53318 
53325 
53312 
53257 
53194 
53188 
53199 
53237 
53316 
53383 
53419 
53419 
53490 
53574 
53560 
53551 
53605 
53623 
53700 
53752 
53730 
53658 
53681 
53686 
53684 
53739 
53736 
53748 
53717 
53652 
53579 
53542 
53526 
53460 
53430 
53364 
53247 
53209 
53164 
53041 
52958 
52842 
52685 
52512 
52383 
52180 
51998 
51837 
51698 
51563 
51427 
51278 
51111 
50982 
50872 
50811 
50749 
50642 
50547 
50470 
50387 
50245 
50099 
50020 
49990 
49937 
49882 
49843 
49808 
49741 
49697 
49634 
49587 
49594 
49605 
49590 
49548 
49564 
49577 
49621 
49620 
49598 
49584 
49603 
49609 
49694 
49737 
49764 
49799 
49837 
49870 
49887 
49940 
50052 
50159 
50233 
50280 
50341 
50408 
50459 
50503 
50594 
50661 
50763 
50921 
51040 
51095 
51145 
51205 
51225 
51275 
51352 
51400 
51399 
51383 
51411 
51449 
51469 
51462 
51464 
51483 
51482 
51518 
51517 
51488 
51481 
51534 
51525 
51525 
51505 
51509 
51545 
51532 
51498 
51450 
51418 
51378 
51377 
51332 
51348 
51366 
51342 
51277 
51303 
51378 
51449 
51522 
51574 
51575 
51574 
51625 
51632 
51654 
51649 
51642 
51710 
51741 
51802 
51844 
51852 
51885 
51918 
51941 
52011 
52043 
52026 
52051 
52064 
52061 
52095 
52182 
52216 
52254 
52261 
52243 
52242 
52263 
52255 
52241 
52296 
52352 
52383 
52427 
52484 
52519 
52558 
52624 
52646 
52711 
52782 
52817 
52813 
52846 
52841 
52860 
52874 
52836 
52857 
52920 
52923 
52906 
52911 
52930 
52926 
52889 
52860 
52867 
52894 
52902 
52942 
52974 
52967 
52931 
52938 
52897 
52880 
52866 
52821 
52835 
52865 
52860 
52774 
52726 
52693 
52685 
52699 
52724 
52741 
52705 
52668 
52648 
52671 
52656 
52607 
52584 
52523 
52482 
52382 
52270 
52236 
52217 
52126 
52010 
51859 
51718 
51587 
51466 
51346 
51218 
51125 
50982 
50858 
50734 
50595 
50491 
50390 
50304 
50158 
50004 
49903 
49832 
49804 
49790 
49730 
49691 
49705 
49678 
49623 
49501 
49400 
49366 
49376 
49343 
49350 
49389 
49430 
49445 
49489 
49482 
49497 
49517 
49528 
49595 
49654 
49682 
49713 
49715 
49742 
49805 
49856 
49869 
49915 
49958 
50010 
50019 
50059 
50087 
50083 
50128 
50185 
50283 
50305 
50381 
50404 
50390 
50416 
50454 
50495 
50541 
50610 
50631 
50623 
50617 
50642 
50701 
50744 
50823 
50896 
50949 
50997 
50987 
50984 
50996 
50987 
51040 
51094 
51065 
51069 
51097 
51073 
50988 
50961 
51020 
50987 
50957 
50946 
50931 
50934 
50958 
50985 
50986 
51026 
51068 
51100 
51147 
51206 
51201 
51205 
51209 
51159 
51172 
51221 
51265 
51277 
51319 
51335 
51343 
51345 
51324 
51356 
51419 
51506 
51572 
51598 
51609 
51595 
51623 
51657 
51638 
51646 
51678 
51725 
51780 
51786 
51792 
51793 
51830 
51893 
51934 
51904 
51903 
51877 
51827 
51841 
51905 
51950 
51946 
51990 
52058 
52125 
52127 
52102 
52066 
52078 
52080 
52051 
52051 
52096 
52167 
52184 
52152 
52120 
52119 
52115 
52113 
52093 
52103 
52101 
52136 
52121 
52061 
52046 
52027 
52023 
51994 
51972 
51920 
51885 
51895 
51896 
51872 
51808 
51761 
51713 
51686 
51595 
51511 
51423 
51322 
51243 
51139 
51024 
50889 
50644 
50559 
50497 
50395 
50314 
50191 
50048 
49944 
49820 
49669 
49575 
49520 
49470 
49380 
49280 
49220 
49210 
49160 
49126 
49068 
49022 
49045 
49027 
48967 
48913 
48908 
48923 
48908 
48934 
49018 
49005 
49000 
49042 
49069 
49102 
49146 
49127 
49084 
49100 
49085 
49077 
49087 
49147 
49247 
49246 
49191 
49192 
49214 
49179 
49158 
49169 
49149 
49161 
49152 
49153 
49187 
49237 
49276 
49274 
49248 
49179 
49122 
49124 
49062 
49027 
48984 
48925 
48904 
48874 
48831 
48807 
48837 
48782 
48751 
48734 
48743 
48746 
48687 
48648 
48643 
48604 
48557 
48504 
48450 
48403 
48372 
48376 
48408 
48411 
48394 
48357 
48340 
48343 
48321 
48245 
48196 
48173 
48145 
48141 
48161 
48153 
48114 
48145 
48123 
48115 
48134 
48129 
48101 
48089 
48076 
48072 
48094 
48150 
48214 
48264 
48303 
48307 
48272 
48253 
48318 
48357 
48363 
48356 
48380 
48424 
48433 
48423 
48399 
48383 
48373 
48401 
48441 
48477 
48528 
48566 
48579 
48643 
48678 
48699 
48729 
48758 
48798 
48843 
48929 
48951 
48956 
48962 
48949 
49018 
49122 
49122 
49132 
49155 
49206 
49240 
49208 
49239 
49215 
49227 
49259 
49306 
49325 
49245 
49190 
49211 
49184 
49165 
49118 
49023 
49010 
49012 
48977 
48949 
48930 
48892 
48851 
48778 
48702 
48632 
48518 
48496 
48440 
48368 
48342 
48310 
48287 
48277 
48275 
48306 
48242 
48201 
48220 
48206 
48155 
48129 
48152 
48174 
48216 
48294 
48363 
48380 
48397 
48382 
48410 
48473 
48489 
48512 
48553 
48597 
48709 
48793 
48871 
48910 
48987 
49135 
49250 
49320 
49364 
49464 
49537 
49610 
49642 
49684 
49735 
49794 
49858 
49898 
49911 
49978 
50082 
50120 
50234 
50289 
50261 
50271 
50312 
50383 
50436 
50483 
50538 
50606 
50657 
50690 
50681 
50707 
50775 
50821 
50850 
50877 
50940 
50953 
50982 
50986 
50995 
51022 
51033 
51064 
51087 
51076 
51125 
51156 
51158 
51136 
51136 
51224 
51309 
51328 
51381 
51390 
51385 
51403 
51444 
51445 
51393 
51409 
51466 
51515 
51512 
51501 
51552 
51621 
51616 
51607 
51603 
51646 
51677 
51665 
51687 
51668 
51681 
51677 
51670 
51718 
51713 
51725 
51739 
51764 
51819 
51886 
51994 
52109 
52181 
52181 
52205 
52314 
52421 
52480 
52549 
52650 
52794 
52911 
52971 
53074 
53150 
53269 
53422 
53577 
53687 
53759 
53846 
53953 
54050 
54167 
54308 
54372 
54419 
54516 
54624 
54691 
54771 
54831 
54875 
54961 
55006 
55009 
55018 
54994 
54958 
54944 
54975 
54980 
54939 
54848 
54794 
54755 
54625 
54527 
54432 
54358 
54328 
54243 
54139 
54073 
54000 
53909 
53851 
53829 
53800 
53655 
53557 
53462 
53411 
53393 
53328 
53295 
53247 
53116 
52986 
52935 
52867 
52823 
52808 
52795 
52729 
52703 
52683 
52575 
52475 
52404 
52408 
52402 
52355 
52329 
52305 
52243 
52168 
52118 
52081 
52017 
51937 
51833 
51865 
51888 
51870 
51847 
51805 
51798 
51762 
51762 
51691 
51584 
51474 
51345 
51234 
51164 
51150 
51185 
51144 
50997 
50847 
50798 
50769 
50707 
50617 
50516 
50430 
50322 
50268 
50245 
50211 
50144 
50068 
49974 
49887 
49773 
49653 
49601 
49578 
49478 
49374 
49275 
49181 
49126 
49010 
48899 
48843 
48830 
48772 
48661 
48590 
48540 
48477 
48396 
48350 
48312 
48301 
48262 
48164 
48107 
48080 
48061 
48037 
47978 
47983 
48024 
47987 
47947 
47924 
47861 
47859 
47920 
47951 
47912 
47840 
47842 
47870 
47861 
47806 
47824 
47872 
47809 
47752 
47800 
47863 
47859 
47841 
47851 
47855 
47896 
47885 
47847 
47835 
47833 
47818 
47794 
47791 
47773 
47783 
47783 
47809 
47827 
47810 
47827 
47841 
47811 
47738 
47739 
47717 
47692 
47693 
47653 
47549 
47422 
47366 
47328 
47294 
47244 
47188 
47095 
46963 
46898 
46773 
46660 
46546 
46509 
46445 
46296 
46179 
46088 
46055 
46001 
45951 
45887 
45792 
45759 
45741 
45772 
45677 
45606 
45559 
45514 
45532 
45503 
45469 
45448 
45422 
45437 
45464 
45504 
45507 
45507 
45571 
45621 
45647 
45673 
45699 
45746 
45830 
45815 
45819 
45843 
45842 
45881 
45927 
45959 
45995 
46045 
46070 
46113 
46164 
46199 
46208 
46292 
46334 
46406 
46465 
46530 
46565 
46559 
46624 
46697 
46755 
46822 
46868 
46911 
46992 
47036 
47003 
46942 
46949 
46980 
47073 
47156 
47190 
47238 
47271 
47331 
47418 
47506 
47494 
47442 
47481 
47506 
47555 
47560 
47591 
47610 
47576 
47640 
47681 
47670 
47669 
47700 
47725 
47700 
47713 
47771 
47879 
47949 
47951 
47965 
47994 
47997 
47997 
48029 
48105 
48185 
48223 
48202 
48188 
48235 
48309 
48354 
48390 
48436 
48403 
48413 
48479 
48534 
48583 
48576 
48546 
48575 
48643 
48683 
48735 
48752 
48755 
48752 
48785 
48844 
48920 
48981 
48967 
49016 
49088 
49092 
49083 
49108 
49145 
49171 
49177 
49190 
49182 
49164 
49211 
49250 
49271 
49252 
49241 
49290 
49290 
49251 
49296 
49323 
49356 
49395 
49409 
49425 
49490 
49503 
49458 
49460 
49437 
49454 
49402 
49312 
49233 
49203 
49223 
49184 
49087 
48974 
48895 
48866 
48807 
48728 
48623 
48605 
48564 
48553 
48538 
48447 
48355 
48232 
48064 
48019 
48010 
47982 
47944 
47850 
47790 
47732 
47638 
47597 
47602 
47623 
47576 
47494 
47489 
47522 
47497 
47527 
47565 
47544 
47511 
47422 
47357 
47347 
47406 
47459 
47519 
47578 
47604 
47549 
47526 
47581 
47620 
47633 
47608 
47584 
47591 
47618 
47626 
47603 
47625 
47670 
47767 
47811 
47847 
47909 
47955 
47985 
47997 
48011 
48030 
48023 
48039 
48129 
48184 
48176 
48154 
48177 
48229 
48253 
48265 
48307 
48323 
48304 
48309 
48361 
48406 
48447 
48481 
48487 
48479 
48522 
48550 
48594 
48672 
48688 
48693 
48756 
48757 
48710 
48695 
48682 
48645 
48620 
48663 
48689 
48745 
48773 
48764 
48806 
48832 
48810 
48833 
48884 
48897 
48925 
48962 
48968 
48906 
48811 
48773 
48809 
48861 
48890 
48915 
48912 
48897 
48906 
48848 
48792 
48796 
48764 
48721 
48763 
48813 
48791 
48786 
48860 
48899 
48918 
48879 
48875 
48900 
48922 
48922 
48969 
48989 
48982 
48995 
48992 
48959 
48985 
48987 
48956 
48944 
48972 
49049 
49085 
49094 
49122 
49193 
49249 
49252 
49301 
49314 
49325 
49333 
49334 
49292 
49265 
49254 
49281 
49298 
49265 
49254 
49314 
49344 
49378 
49391 
49398 
49427 
49431 
49412 
49396 
49436 
49482 
49526 
49481 
49409 
49369 
49339 
49282 
49223 
49205 
49134 
49056 
48984 
48899 
48786 
48699 
48620 
48561 
48519 
48431 
48299 
48156 
48076 
48023 
47908 
47865 
47843 
47774 
47686 
47616 
47613 
47571 
47562 
47570 
47600 
47569 
47503 
47439 
47374 
47313 
47329 
47350 
47321 
47337 
47373 
47346 
47331 
47318 
47366 
47396 
47433 
47423 
47434 
47476 
47499 
47478 
47458 
47489 
47539 
47577 
47580 
47587 
47602 
47641 
47686 
47736 
47759 
47781 
47869 
47936 
47972 
47960 
48002 
48056 
48113 
48186 
48236 
48269 
48314 
48324 
48308 
48336 
48362 
48394 
48419 
48422 
48461 
48473 
48460 
48464 
48501 
48563 
48634 
48683 
48698 
48763 
48768 
48698 
48676 
48700 
48716 
48746 
48797 
48861 
48942 
48930 
48934 
48935 
48956 
49004 
49058 
49095 
49111 
49107 
49087 
49126 
49180 
49203 
49250 
49340 
49364 
49362 
49356 
49312 
49341 
49404 
49460 
49475 
49512 
49523 
49505 
49500 
49528 
49569 
49592 
49594 
49637 
49671 
49698 
49722 
49750 
49830 
49832 
49850 
49851 
49899 
49963 
49968 
49970 
50055 
50119 
50113 
50110 
50079 
50086 
50186 
50215 
50250 
50300 
50315 
50296 
50296 
50288 
50266 
50292 
50320 
50320 
50295 
50238 
50187 
50169 
50182 
50187 
50166 
50133 
50132 
50193 
50217 
50205 
50199 
50212 
50230 
50230 
50311 
50377 
50372 
50381 
50363 
50370 
50396 
50407 
50434 
50401 
50388 
50433 
50477 
50438 
50385 
50411 
50462 
50465 
50351 
50296 
50288 
50287 
50259 
50211 
50145 
50052 
50016 
49966 
49861 
49739 
49645 
49536 
49476 
49425 
49360 
49239 
49138 
49043 
48953 
48896 
48799 
48734 
48637 
48552 
48498 
48457 
48357 
48283 
48211 
48198 
48181 
48158 
48166 
48088 
48028 
47991 
47975 
48004 
48027 
48011 
47955 
47919 
47895 
47859 
47830 
47882 
47950 
47950 
47957 
47933 
47874 
47844 
47907 
47950 
47941 
47956 
47974 
47975 
47957 
48002 
48116 
48232 
48276 
48313 
48329 
48349 
48371 
48403 
48456 
48498 
48493 
48532 
48596 
48642 
48681 
48730 
48799 
48818 
48816 
48874 
48973 
49012 
48996 
48989 
48981 
48987 
48982 
49016 
49036 
49032 
49072 
49102 
49131 
49156 
49140 
49101 
49116 
49072 
49096 
49090 
49098 
49157 
49155 
49100 
49058 
49042 
49087 
49097 
49106 
49160 
49212 
49263 
49270 
49230 
49225 
49264 
49338 
49406 
49427 
49426 
49460 
49472 
49512 
49545 
49569 
49574 
49578 
49608 
49622 
49644 
49657 
49685 
49703 
49724 
49742 
49772 
49788 
49813 
49858 
49885 
49874 
49830 
49799 
49811 
49806 
49802 
49843 
49864 
49874 
49848 
49829 
49877 
49833 
49813 
49859 
49885 
49894 
49921 
49954 
49980 
49995 
49987 
49994 
50035 
50094 
50045 
50057 
50094 
50095 
50098 
50134 
50154 
50175 
50269 
50326 
50270 
50183 
50177 
50175 
50160 
50202 
50217 
50195 
50208 
50243 
50302 
50323 
50282 
50267 
50283 
50256 
50231 
50198 
50186 
50162 
50129 
50074 
50019 
49971 
49923 
49914 
49918 
49947 
49918 
49881 
49839 
49775 
49730 
49690 
49682 
49650 
49582 
49557 
49536 
49484 
49422 
49340 
49210 
49150 
49100 
49013 
48922 
48844 
48805 
48723 
48664 
48584 
48559 
48543 
48506 
48413 
48388 
48333 
48238 
48185 
48156 
48057 
47963 
47909 
47935 
47997 
47985 
47911 
47836 
47763 
47701 
47691 
47686 
47726 
47719 
47708 
47660 
47630 
47589 
47612 
47601 
47566 
47577 
47536 
47556 
47629 
47670 
47708 
47735 
47769 
47803 
47825 
47868 
47878 
47942 
47955 
47999 
48056 
48133 
48224 
48264 
48296 
48359 
48436 
48544 
48637 
48658 
48657 
48702 
48737 
48760 
48804 
48811 
48817 
48835 
48891 
48942 
49029 
49058 
49061 
49066 
49101 
49170 
49170 
49182 
49230 
49296 
49333 
49376 
49427 
49464 
49477 
49500 
49559 
49557 
49547 
49589 
49657 
49695 
49708 
49691 
49667 
49640 
49673 
49628 
49627 
49719 
49772 
49840 
49857 
49862 
49896 
49973 
50056 
50108 
50060 
50009 
50013 
50018 
50061 
50095 
50085 
50114 
50181 
50265 
50300 
50295 
50343 
50368 
50353 
50339 
50355 
50396 
50387 
50355 
50350 
50329 
50301 
50255 
50243 
50199 
50186 
50200 
50160 
50121 
50093 
50091 
50187 
50253 
50249 
50253 
50289 
50286 
50240 
50231 
50249 
50288 
50306 
50355 
50414 
50442 
50469 
50443 
50410 
50419 
50406 
50415 
50430 
50435 
50380 
50371 
50378 
50361 
50379 
50395 
50393 
50361 
50367 
50375 
50339 
50273 
50200 
50171 
50165 
50163 
50125 
50088 
50031 
49991 
49979 
49988 
49971 
49972 
49952 
49891 
49875 
49842 
49747 
49684 
49679 
49626 
49585 
49552 
49504 
49516 
49566 
49526 
49473 
49416 
49385 
49316 
49317 
49377 
49380 
49435 
49439 
49418 
49400 
49378 
49381 
49381 
49410 
49417 
49454 
49432 
49334 
49311 
49284 
49207 
49253 
49328 
49393 
49339 
49216 
49180 
49180 
49185 
49187 
49125 
49072 
49078 
49093 
49091 
49053 
49034 
49064 
49081 
49076 
49073 
49061 
49064 
49057 
49012 
49041 
49103 
49094 
49050 
49061 
49059 
48998 
48998 
49034 
49016 
49082 
49133 
49136 
49146 
49185 
49162 
49096 
49072 
49112 
49122 
49087 
49047 
49009 
49012 
48989 
49000 
49004 
48971 
48974 
48977 
48985 
49022 
49022 
49033 
49016 
49004 
49047 
49064 
49114 
49081 
49048 
49071 
49083 
49087 
49056 
49053 
49081 
49088 
49054 
48967 
48937 
48969 
48978 
48961 
48941 
48957 
48976 
49005 
49001 
49022 
49064 
49084 
49078 
49126 
49130 
49076 
49032 
48984 
49011 
49096 
49179 
49153 
49086 
49102 
49079 
49031 
49053 
49121 
49129 
49084 
49099 
49136 
49170 
49205 
49188 
49164 
49138 
49181 
49212 
49237 
49243 
49228 
49159 
49087 
49057 
49034 
49036 
49079 
49105 
49109 
49079 
49039 
48974 
48890 
48821 
48845 
48881 
48851 
48796 
48744 
48761 
48847 
48877 
48843 
48860 
48892 
48910 
48897 
48902 
48894 
48862 
48904 
48958 
48941 
48890 
48835 
48801 
48746 
48734 
48753 
48767 
48806 
48803 
48774 
48756 
48718 
48736 
48798 
48846 
48859 
48879 
48889 
48905 
48847 
48834 
48863 
48902 
48908 
48828 
48786 
48775 
48803 
48808 
48802 
48797 
48810 
48833 
48824 
48811 
48838 
48865 
48849 
48804 
48767 
48756 
48787 
48826 
48814 
48815 
48825 
48832 
48854 
48826 
48829 
48835 
48835 
48878 
48952 
48979 
48960 
48932 
48957 
48984 
48953 
48942 
48971 
48944 
48875 
48861 
48885 
48862 
48890 
48898 
48930 
48933 
48904 
48873 
48860 
48850 
48856 
48848 
48893 
48932 
48961 
48987 
49033 
49063 
49058 
49024 
49000 
48973 
48944 
48905 
48890 
48860 
48819 
48857 
48930 
48983 
48946 
48905 
48845 
48875 
48891 
48853 
48852 
48856 
48850 
48908 
48908 
48944 
48962 
48907 
48888 
48912 
48917 
48922 
48940 
48946 
48994 
49014 
48992 
48997 
49023 
49002 
49016 
49047 
49082 
49092 
49117 
49082 
49032 
49030 
49077 
49138 
49190 
49244 
49243 
49231 
49220 
49198 
49180 
49142 
49125 
49122 
49151 
49148 
49122 
49111 
49139 
49167 
49179 
49166 
49161 
49179 
49198 
49180 
49151 
49164 
49215 
49242 
49236 
49200 
49158 
49184 
49210 
49227 
49219 
49162 
49133 
49123 
49157 
49145 
49131 
49129 
49112 
49051 
49065 
49052 
48974 
48935 
48939 
48880 
48882 
48918 
48930 
48893 
48853 
48841 
48854 
48781 
48692 
48648 
48687 
48749 
48773 
48782 
48792 
48800 
48731 
48717 
48663 
48685 
48767 
48768 
48794 
48758 
48703 
48713 
48716 
48672 
48649 
48599 
48581 
48620 
48694 
48656 
48575 
48548 
48571 
48541 
48513 
48536 
48575 
48575 
48490 
48388 
48399 
48398 
48429 
48500 
48526 
48518 
48566 
48610 
48600 
48523 
48493 
48493 
48463 
48498 
48499 
48468 
48471 
48504 
48511 
48531 
48575 
48605 
48627 
48597 
48544 
48544 
48501 
48510 
48586 
48597 
48596 
48598 
48622 
48641 
48652 
48597 
48567 
48570 
48543 
48504 
48491 
48499 
48508 
48508 
48503 
48426 
48408 
48431 
48446 
48428 
48470 
48519 
48513 
48503 
48517 
48512 
48471 
48514 
48517 
48504 
48520 
48537 
48553 
48589 
48622 
48632 
48674 
48646 
48600 
48590 
48576 
48561 
48552 
48577 
48583 
48585 
48555 
48596 
48662 
48611 
48560 
48525 
48545 
48616 
48627 
48572 
48533 
48512 
48574 
48614 
48605 
48600 
48630 
48675 
48730 
48752 
48724 
48708 
48731 
48750 
48745 
48705 
48664 
48642 
48630 
48656 
48664 
48678 
48635 
48590 
48613 
48617 
48666 
48742 
48821 
48878 
48936 
48913 
48882 
48801 
48751 
48770 
48779 
48808 
48828 
48800 
48828 
48862 
48867 
48848 
48830 
48817 
48821 
48821 
48838 
48856 
48880 
48859 
48842 
48838 
48880 
48835 
48798 
48813 
48813 
48858 
48840 
48851 
48922 
48910 
48857 
48833 
48808 
48799 
48809 
48809 
48798 
48790 
48814 
48867 
48865 
48829 
48786 
48803 
48838 
48830 
48842 
48868 
48940 
48962 
48928 
48923 
48915 
48886 
48876 
48861 
48883 
48869 
48860 
48837 
48811 
48780 
48758 
48751 
48734 
48733 
48808 
48862 
48915 
48896 
48845 
48803 
48731 
48755 
48817 
48806 
48793 
48772 
48819 
48818 
48775 
48762 
48793 
48801 
48782 
48763 
48797 
48818 
48847 
48866 
48853 
48893 
48907 
48945 
48994 
48973 
48892 
48850 
48861 
48858 
48867 
48905 
48943 
48938 
48969 
48956 
48919 
48972 
49036 
49044 
49077 
49091 
49069 
49080 
49088 
49041 
49023 
49019 
49044 
49088 
49078 
49085 
49120 
49133 
49130 
49087 
49065 
49067 
49055 
49052 
49053 
49014 
48986 
49076 
49143 
49093 
49073 
49070 
49052 
49017 
48981 
49036 
49030 
49008 
48982 
48923 
48892 
48934 
48991 
48971 
48923 
48880 
48897 
48900 
48894 
48875 
48900 
48949 
48971 
48902 
48847 
48845 
48832 
48790 
48848 
48905 
48902 
48900 
48921 
48961 
48993 
49000 
48987 
48972 
48914 
48910 
48940 
48980 
48971 
48954 
48975 
48987 
49004 
49053 
49062 
49046 
49045 
49010 
48937 
48855 
48876 
48943 
48908 
48893 
48865 
48844 
48844 
48836 
48818 
48841 
48874 
48875 
48899 
48906 
48950 
48909 
48870 
48854 
48852 
48799 
48789 
48792 
48791 
48774 
48755 
48728 
48731 
48806 
48862 
48893 
48913 
48950 
48903 
48855 
48877 
48876 
48854 
48895 
48947 
48905 
48919 
48973 
49030 
49037 
49083 
49067 
49044 
49009 
48969 
48942 
48881 
48918 
49006 
49053 
49015 
48965 
48950 
48911 
48885 
48880 
48895 
48882 
48883 
48881 
48882 
48856 
48850 
48842 
48823 
48789 
48800 
48733 
48673 
48717 
48710 
48733 
48745 
48788 
48825 
48776 
48681 
48655 
48699 
48736 
48722 
48718 
48744 
48753 
48701 
48740 
48806 
48796 
48768 
48758 
48770 
48753 
48735 
48749 
48743 
48786 
48813 
48841 
48853 
48806 
48780 
48821 
48816 
48792 
48809 
48769 
48800 
48804 
48730 
48693 
48678 
48712 
48764 
48767 
48805 
48812 
48789 
48799 
48817 
48883 
48881 
48857 
48865 
48851 
48887 
48940 
48944 
48904 
48885 
48865 
48899 
48946 
48958 
48941 
48922 
48910 
48910 
48918 
48872 
48841 
48830 
48814 
48797 
48819 
48841 
48893 
48877 
48873 
48945 
49007 
49010 
48999 
49066 
49109 
49064 
49057 
49050 
49028 
49015 
49026 
49011 
49007 
49041 
49017 
48999 
49013 
49039 
49056 
49078 
49080 
49024 
49030 
49034 
49046 
49103 
49082 
49006 
48999 
49018 
48978 
48966 
49013 
48966 
48964 
48968 
48946 
48966 
48994 
49007 
49027 
49053 
49068 
49058 
49010 
48982 
48978 
49004 
48985 
48921 
48898 
48883 
48903 
48915 
48928 
48975 
49001 
49019 
49040 
49041 
48984 
48930 
48893 
48912 
48920 
48871 
48821 
48809 
48899 
48942 
48957 
48906 
48837 
48776 
48773 
48809 
48835 
48852 
48856 
48859 
48861 
48874 
48889 
48848 
48865 
48886 
48864 
48831 
48835 
48842 
48849 
48851 
48834 
48855 
48904 
48941 
48964 
48961 
48909 
48901 
48840 
48813 
48840 
48807 
48727 
48706 
48744 
48738 
48773 
48827 
48819 
48811 
48791 
48818 
48839 
48840 
48781 
48731 
48768 
48837 
48846 
48824 
48751 
48727 
48761 
48803 
48781 
48718 
48764 
48808 
48783 
48806 
48802 
48741 
48716 
48742 
48743 
48769 
48743 
48740 
48806 
48850 
48812 
48785 
48754 
48740 
48726 
48758 
48729 
48672 
48677 
48685 
48730 
48795 
48790 
48778 
48719 
48678 
48697 
48744 
48753 
48758 
48751 
48699 
48720 
48747 
48779 
48801 
48789 
48724 
48713 
48761 
48740 
48733 
48713 
48732 
48774 
48810 
48800 
48815 
48820 
48831 
48817 
48798 
48816 
48880 
48894 
48850 
48901 
48938 
48926 
48918 
48887 
48853 
48867 
48906 
48960 
48904 
48868 
48869 
48922 
48880 
48871 
48891 
48866 
48853 
48848 
48820 
48813 
48875 
48903 
48898 
48884 
48851 
48807 
48808 
48843 
48855 
48838 
48808 
48862 
48910 
48856 
48771 
48737 
48757 
48773 
48767 
48812 
48840 
48805 
48801 
48811 
48821 
48864 
48845 
48821 
48821 
48834 
48858 
48836 
48790 
48803 
48859 
48867 
48841 
48803 
48757 
48727 
48755 
48762 
48731 
48725 
48688 
48721 
48790 
48794 
48766 
48762 
48795 
48790 
48765 
48712 
48698 
48722 
48744 
48767 
48752 
48725 
48735 
48790 
48848 
48849 
48856 
48834 
48809 
48776 
48774 
48778 
48800 
48783 
48726 
48712 
48667 
48681 
48707 
48748 
48787 
48834 
48860 
48808 
48784 
48781 
48760 
48745 
48736 
48731 
48782 
48831 
48869 
48845 
48879 
48930 
48943 
48914 
48854 
48819 
48849 
48834 
48809 
48833 
48896 
48939 
48979 
48934 
48905 
48914 
48932 
48907 
48889 
48911 
48928 
48920 
48908 
48908 
48919 
48912 
48914 
48934 
48941 
48957 
48964 
48986 
48974 
48923 
48895 
48892 
48923 
48968 
48978 
48957 
48937 
48930 
48900 
48910 
48906 
48915 
48966 
48962 
48909 
48885 
48889 
48843 
48821 
48815 
48805 
48838 
48845 
48852 
48915 
48930 
48922 
48889 
48872 
48899 
48914 
48861 
48807 
48795 
48846 
48838 
48806 
48817 
48882 
48845 
48822 
48777 
48807 
48868 
48850 
48803 
48793 
48787 
48720 
48749 
48752 
48734 
48695 
48695 
48725 
48728 
48706 
48699 
48734 
48783 
48808 
48769 
48760 
48758 
48754 
48749 
48763 
48779 
48769 
48739 
48737 
48736 
48688 
48647 
48624 
48638 
48659 
48664 
48726 
48741 
48712 
48672 
48652 
48669 
48630 
48571 
48566 
48597 
48627 
48615 
48589 
48569 
48572 
48547 
48512 
48496 
48507 
48529 
48512 
48439 
48352 
48309 
48274 
48282 
48318 
48325 
48356 
48385 
48371 
48340 
48293 
48250 
48263 
48297 
48404 
48445 
48463 
48495 
48486 
48482 
48483 
48474 
48501 
48554 
48611 
48598 
48586 
48628 
48628 
48612 
48562 
48526 
48507 
48558 
48537 
48585 
48597 
48571 
48567 
48613 
48662 
48692 
48661 
48629 
48565 
48533 
48529 
48519 
48520 
48500 
48499 
48512 
48547 
48584 
48591 
48582 
48587 
48606 
48593 
48581 
48560 
48613 
48677 
48680 
48666 
48640 
48616 
48604 
48584 
48592 
48598 
48553 
48522 
48576 
48625 
48616 
48587 
48584 
48600 
48600 
48584 
48585 
48573 
48580 
48577 
48589 
48568 
48563 
48569 
48557 
48510 
48504 
48513 
48583 
48554 
48526 
48533 
48523 
48502 
48491 
48541 
48604 
48656 
48666 
48665 
48627 
48576 
48558 
48559 
48556 
48542 
48566 
48533 
48505 
48532 
48584 
48569 
48587 
48617 
48632 
48616 
48584 
48637 
48625 
48567 
48547 
48484 
48461 
48438 
48409 
48465 
48483 
48509 
48508 
48453 
48413 
48431 
48519 
48549 
48536 
48481 
48422 
48409 
48432 
48474 
48489 
48443 
48443 
48469 
48500 
48508 
48534 
48509 
48462 
48445 
48450 
48471 
48499 
48537 
48566 
48529 
48502 
48512 
48510 
48508 
48457 
48476 
48511 
48514 
48538 
48521 
48532 
48562 
48589 
48563 
48565 
48568 
48584 
48575 
48506 
48483 
48511 
48547 
48580 
48579 
48564 
48553 
48533 
48516 
48519 
48527 
48581 
48585 
48553 
48514 
48520 
48533 
48557 
48550 
48513 
48490 
48492 
48481 
48513 
48528 
48475 
48458 
48495 
48559 
48597 
48610 
48618 
48624 
48635 
48652 
48672 
48690 
48680 
48680 
48728 
48739 
48759 
48754 
48816 
48832 
48812 
48786 
48757 
48740 
48748 
48764 
48775 
48815 
48843 
48828 
48794 
48787 
48787 
48770 
48766 
48768 
48778 
48767 
48756 
48754 
48758 
48695 
48669 
48722 
48759 
48782 
48790 
48808 
48820 
48825 
48844 
48831 
48820 
48810 
48787 
48798 
48779 
48715 
48653 
48663 
48758 
48812 
48795 
48733 
48708 
48690 
48698 
48713 
48734 
48734 
48677 
48666 
48699 
48717 
48667 
48623 
48636 
48650 
48636 
48619 
48627 
48629 
48630 
48661 
48678 
48680 
48724 
48732 
48678 
48655 
48684 
48733 
48770 
48750 
48719 
48678 
48645 
48632 
48615 
48599 
48558 
48562 
48602 
48610 
48639 
48643 
48593 
48578 
48585 
48613 
48637 
48637 
48682 
48682 
48630 
48637 
48624 
48600 
48618 
48674 
48667 
48628 
48612 
48596 
48601 
48634 
48614 
48574 
48585 
48552 
48482 
48436 
48443 
48457 
48446 
48456 
48496 
48506 
48472 
48427 
48399 
48405 
48434 
48436 
48378 
48328 
48307 
48327 
48387 
48466 
48558 
48566 
48498 
48426 
48348 
48320 
48344 
48286 
48243 
48257 
48305 
48303 
48246 
48222 
48232 
48256 
48296 
48303 
48238 
48223 
48225 
48278 
48315 
48359 
48410 
48370 
48354 
48364 
48389 
48402 
48383 
48352 
48315 
48307 
48341 
48375 
48325 
48275 
48310 
48333 
48327 
48343 
48336 
48322 
48333 
48293 
48318 
48311 
48288 
48303 
48317 
48355 
48390 
48338 
48329 
48355 
48355 
48372 
48370 
48374 
48335 
48291 
48285 
48345 
48407 
48452 
48478 
48455 
48450 
48452 
48470 
48538 
48576 
48585 
48605 
48577 
48537 
48538 
48545 
48568 
48576 
48565 
48516 
48532 
48615 
48630 
48611 
48600 
48598 
48587 
48578 
48513 
48483 
48456 
48471 
48535 
48560 
48650 
48669 
48648 
48643 
48600 
48600 
48572 
48572 
48564 
48565 
48538 
48460 
48428 
48442 
48488 
48495 
48528 
48576 
48594 
48525 
48487 
48495 
48451 
48425 
48476 
48485 
48480 
48487 
48487 
48509 
48476 
48473 
48471 
48468 
48500 
48514 
48505 
48500 
48532 
48540 
48522 
48487 
48490 
48544 
48548 
48559 
48584 
48537 
48535 
48514 
48453 
48465 
48518 
48560 
48555 
48534 
48524 
48559 
48575 
48566 
48557 
48518 
48499 
48495 
48528 
48543 
48555 
48556 
48516 
48491 
48478 
48416 
48371 
48365 
48397 
48388 
48385 
48411 
48444 
48457 
48483 
48510 
48498 
48504 
48534 
48575 
48568 
48582 
48540 
48514 
48503 
48513 
48514 
48470 
48434 
48437 
48415 
48455 
48470 
48384 
48348 
48394 
48457 
48464 
48412 
48332 
48333 
48332 
48292 
48266 
48268 
48298 
48351 
48358 
48362 
48341 
48296 
48268 
48227 
48267 
48332 
48308 
48264 
48232 
48214 
48199 
48218 
48231 
48247 
48277 
48297 
48302 
48354 
48419 
48418 
48395 
48342 
48320 
48315 
48318 
48318 
48310 
48329 
48368 
48411 
48434 
48409 
48392 
48381 
48401 
48390 
48326 
48282 
48258 
48278 
48328 
48340 
48353 
48391 
48475 
48484 
48455 
48413 
48374 
48425 
48443 
48432 
48373 
48285 
48331 
48413 
48425 
48446 
48409 
48298 
48306 
48329 
48310 
48291 
48255 
48267 
48319 
48321 
48331 
48393 
48431 
48469 
48477 
48440 
48443 
48454 
48449 
48405 
48395 
48466 
48499 
48544 
48553 
48538 
48536 
48514 
48475 
48483 
48511 
48564 
48532 
48496 
48487 
48478 
48497 
48488 
48466 
48475 
48482 
48491 
48483 
48503 
48504 
48411 
48327 
48341 
48420 
48398 
48385 
48405 
48428 
48500 
48494 
48440 
48421 
48396 
48392 
48406 
48366 
48346 
48366 
48369 
48347 
48351 
48416 
48453 
48453 
48470 
48483 
48474 
48424 
48373 
48373 
48423 
48439 
48495 
48572 
48594 
48543 
48505 
48486 
48466 
48431 
48346 
48344 
48342 
48389 
48500 
48531 
48504 
48464 
48396 
48400 
48389 
48367 
48393 
48455 
48431 
48404 
48452 
48479 
48425 
48353 
48310 
48312 
48358 
48391 
48348 
48322 
48329 
48368 
48368 
48339 
48327 
48335 
48300 
48288 
48330 
48368 
48344 
48316 
48313 
48339 
48338 
48356 
48421 
48500 
48493 
48501 
48514 
48496 
48455 
48493 
48536 
48536 
48526 
48524 
48537 
48483 
48423 
48434 
48443 
48450 
48478 
48475 
48500 
48563 
48588 
48590 
48606 
48603 
48542 
48494 
48526 
48566 
48600 
48601 
48600 
48580 
48573 
48588 
48613 
48603 
48591 
48573 
48561 
48582 
48586 
48573 
48555 
48588 
48617 
48622 
48597 
48554 
48529 
48549 
48587 
48666 
48685 
48726 
48743 
48713 
48689 
48671 
48647 
48644 
48631 
48680 
48707 
48686 
48656 
48655 
48703 
48678 
48633 
48613 
48572 
48524 
48516 
48546 
48616 
48675 
48717 
48731 
48737 
48770 
48735 
48705 
48722 
48733 
48736 
48685 
48630 
48607 
48648 
48717 
48757 
48775 
48779 
48750 
48751 
48704 
48638 
48641 
48688 
48686 
48686 
48704 
48716 
48669 
48671 
48694 
48723 
48770 
48785 
48801 
48859 
48877 
48831 
48823 
48839 
48874 
48883 
48849 
48786 
48731 
48673 
48699 
48739 
48785 
48742 
48724 
48716 
48718 
48708 
48738 
48736 
48737 
48758 
48779 
48747 
48793 
48805 
48771 
48786 
48839 
48857 
48837 
48844 
48828 
48783 
48717 
48727 
48806 
48814 
48780 
48758 
48766 
48798 
48855 
48856 
48805 
48726 
48714 
48729 
48709 
48712 
48730 
48701 
48674 
48671 
48674 
48656 
48707 
48708 
48718 
48680 
48590 
48533 
48548 
48617 
48593 
48581 
48591 
48590 
48558 
48509 
48520 
48530 
48556 
48524 
48554 
48561 
48526 
48543 
48579 
48591 
48558 
48540 
48485 
48439 
48493 
48531 
48503 
48554 
48584 
48543 
48500 
48510 
48564 
48594 
48595 
48620 
48598 
48579 
48580 
48580 
48603 
48622 
48578 
48574 
48604 
48614 
48648 
48651 
48644 
48634 
48607 
48557 
48544 
48560 
48569 
48589 
48575 
48548 
48529 
48528 
48524 
48566 
48609 
48643 
48674 
48614 
48636 
48625 
48637 
48673 
48663 
48629 
48578 
48592 
48614 
48671 
48652 
48601 
48588 
48574 
48541 
48579 
48601 
48619 
48649 
48635 
48596 
48598 
48623 
48660 
48706 
48716 
48711 
48735 
48683 
48662 
48651 
48645 
48602 
48588 
48631 
48616 
48602 
48649 
48653 
48631 
48629 
48644 
48691 
48732 
48723 
48701 
48705 
48688 
48663 
48629 
48648 
48652 
48622 
48591 
48606 
48677 
48775 
48796 
48809 
48864 
48889 
48848 
48829 
48846 
48841 
48805 
48726 
48740 
48746 
48716 
48762 
48810 
48826 
48818 
48834 
48867 
48862 
48848 
48828 
48811 
48797 
48775 
48799 
48766 
48763 
48845 
48887 
48887 
48921 
48939 
48956 
48926 
48904 
48926 
48890 
48866 
48819 
48761 
48773 
48745 
48720 
48726 
48734 
48702 
48756 
48794 
48766 
48776 
48776 
48792 
48816 
48842 
48829 
48843 
48875 
48927 
48979 
48942 
48928 
48958 
48983 
48972 
48998 
49056 
49027 
48943 
48899 
48925 
48945 
48958 
48942 
48889 
48835 
48815 
48849 
48863 
48863 
48901 
48932 
48942 
48957 
48932 
48921 
48927 
48991 
48982 
48955 
48993 
48949 
48875 
48890 
48887 
48886 
48917 
48891 
48926 
48955 
48935 
48930 
48943 
48927 
48910 
48883 
48838 
48851 
48857 
48860 
48801 
48773 
48768 
48812 
48849 
48834 
48805 
48783 
48746 
48746 
48760 
48807 
48851 
48888 
48943 
48972 
49002 
49010 
48972 
48961 
48974 
48942 
48954 
48985 
49000 
49023 
49029 
49015 
48983 
49012 
49018 
49037 
49032 
48985 
48956 
48934 
48931 
48936 
48958 
48939 
48923 
48951 
48991 
49003 
49002 
48995 
49024 
49014 
48985 
49004 
49023 
49009 
49012 
49065 
49077 
49043 
49089 
49116 
49111 
49098 
49064 
49026 
49035 
49063 
49044 
49110 
49103 
49089 
49112 
49134 
49115 
49104 
49111 
49120 
49164 
49185 
49176 
49169 
49161 
49158 
49166 
49173 
49191 
49185 
49151 
49141 
49155 
49160 
49154 
49182 
49149 
49091 
49037 
49052 
49127 
49165 
49173 
49180 
49146 
49121 
49137 
49144 
49122 
49084 
49082 
49073 
49081 
49019 
48987 
48990 
49032 
49076 
49065 
49084 
49103 
49130 
49094 
49082 
49035 
48954 
48914 
48970 
49006 
48970 
48933 
48882 
48914 
48939 
48915 
48902 
48924 
48923 
48857 
48827 
48857 
48904 
48882 
48869 
48952 
49000 
48926 
48894 
48923 
48944 
49048 
49135 
49114 
49089 
49064 
49060 
49107 
49127 
49140 
49131 
49046 
49012 
49036 
49016 
49024 
49006 
48979 
48979 
48985 
48984 
49005 
49010 
49004 
49026 
48984 
48948 
48965 
49073 
49111 
49080 
49047 
49045 
49060 
49025 
48976 
48975 
48960 
48941 
48964 
49005 
49007 
48997 
48974 
48948 
48946 
48932 
48879 
48878 
48913 
48948 
48963 
49007 
49022 
48931 
48838 
48838 
48837 
48829 
48866 
48885 
48890 
48934 
48963 
48927 
48896 
48882 
48895 
48964 
49076 
49147 
49127 
49073 
49068 
49069 
49078 
49153 
49148 
49058 
49031 
49058 
49025 
48958 
48936 
48945 
48942 
49019 
49057 
49052 
49038 
49034 
49048 
48996 
48960 
48947 
48979 
48965 
48930 
48891 
48859 
48848 
48849 
48830 
48802 
48830 
48848 
48822 
48848 
48834 
48796 
48810 
48813 
48820 
48807 
48819 
48867 
48915 
48924 
48885 
48892 
48918 
48924 
48907 
48940 
48916 
48898 
48934 
49053 
49091 
49019 
49017 
49043 
49020 
48977 
48951 
48958 
48978 
49001 
49011 
48997 
48986 
48928 
48920 
48917 
48958 
48997 
48999 
48978 
49011 
49026 
48994 
48982 
48991 
48971 
49003 
49037 
49005 
48960 
48962 
49015 
49019 
48977 
48925 
48951 
48983 
49023 
49015 
49000 
49019 
49024 
48994 
48973 
48946 
48882 
48833 
48766 
48755 
48765 
48796 
48833 
48820 
48803 
48768 
48780 
48800 
48838 
48861 
48875 
48891 
48938 
48998 
49008 
49015 
49028 
49038 
49026 
48997 
48986 
49007 
49014 
49045 
49041 
49044 
49081 
49073 
49023 
48981 
49006 
49019 
49022 
49037 
49078 
49072 
49096 
49085 
49043 
49011 
48971 
48989 
48997 
48960 
48950 
48958 
48900 
48916 
48962 
49009 
48979 
48962 
48983 
48991 
48926 
48865 
48871 
48858 
48885 
48939 
48929 
48911 
48881 
48855 
48788 
48756 
48797 
48815 
48821 
48849 
48872 
48857 
48868 
48876 
48896 
48888 
48859 
48812 
48861 
48949 
48971 
48919 
48882 
48853 
48851 
48889 
48840 
48801 
48821 
48806 
48798 
48859 
48894 
48903 
48819 
48777 
48763 
48750 
48753 
48782 
48773 
48808 
48886 
48901 
48827 
48794 
48795 
48779 
48772 
48808 
48813 
48792 
48833 
48813 
48807 
48810 
48773 
48768 
48772 
48764 
48762 
48794 
48813 
48820 
48866 
48839 
48821 
48817 
48817 
48819 
48844 
48913 
48959 
48894 
48885 
48939 
48949 
48902 
48876 
48875 
48883 
48903 
48892 
48928 
48967 
48974 
48970 
48982 
48971 
48935 
48945 
49011 
49012 
49018 
49018 
48985 
48961 
48989 
49053 
49042 
48980 
48953 
48987 
49012 
49049 
49037 
49040 
49024 
48983 
48949 
48944 
48946 
48942 
48980 
49012 
49066 
49036 
49009 
48991 
48975 
49012 
49012 
49014 
49029 
49040 
49034 
49004 
48969 
48942 
48957 
48941 
48966 
48980 
49004 
48964 
48968 
48992 
48982 
48955 
48960 
49060 
49118 
49127 
49105 
49084 
49054 
49096 
49147 
49210 
49187 
49151 
49112 
49102 
49106 
49075 
49067 
49047 
49028 
49003 
49020 
49038 
49067 
49108 
49152 
49169 
49155 
49077 
49048 
49086 
49144 
49138 
49123 
49087 
49097 
49135 
49120 
49066 
49078 
49105 
49077 
49017 
49008 
49060 
49046 
49025 
49032 
49026 
49021 
49034 
48982 
48934 
48915 
48875 
48908 
48916 
48861 
48849 
48865 
48871 
48877 
48911 
48902 
48919 
48909 
48861 
48829 
48822 
48849 
48857 
48852 
48861 
48858 
48824 
48865 
48946 
48935 
48922 
48901 
48883 
48883 
48893 
48947 
48940 
49002 
49091 
49102 
49055 
49047 
49075 
49066 
49099 
49124 
49167 
49182 
49121 
49073 
49096 
49141 
49154 
49156 
49102 
49087 
49095 
49090 
49106 
49106 
49071 
49075 
49102 
49153 
49212 
49230 
49223 
49216 
49133 
49098 
49155 
49218 
49229 
49238 
49260 
49295 
49290 
49294 
49342 
49350 
49386 
49420 
49379 
49363 
49396 
49354 
49320 
49331 
49317 
49293 
49258 
49209 
49161 
49197 
49220 
49275 
49338 
49350 
49361 
49350 
49304 
49352 
49339 
49356 
49364 
49372 
49397 
49427 
49436 
49448 
49445 
49435 
49452 
49457 
49486 
49469 
49440 
49467 
49517 
49543 
49491 
49431 
49451 
49488 
49443 
49423 
49393 
49342 
49333 
49366 
49386 
49403 
49384 
49388 
49465 
49476 
49418 
49387 
49376 
49381 
49410 
49423 
49439 
49420 
49420 
49400 
49391 
49413 
49377 
49296 
49277 
49310 
49341 
49342 
49334 
49392 
49442 
49458 
49471 
49408 
49352 
49350 
49390 
49451 
49463 
49482 
49489 
49483 
49404 
49354 
49333 
49271 
49276 
49277 
49289 
49235 
49149 
49141 
49147 
49136 
49130 
49105 
49058 
49012 
48965 
48918 
48876 
48814 
48786 
48742 
48705 
48665 
48637 
48607 
48551 
48568 
48580 
48565 
48570 
48564 
48632 
48671 
48625 
48566 
48479 
48398 
48332 
48350 
48377 
48410 
48433 
48445 
48426 
48366 
48318 
48326 
48391 
48382 
48359 
48401 
48390 
48344 
48340 
48370 
48374 
48358 
48319 
48330 
48325 
48325 
48336 
48370 
48409 
48403 
48418 
48460 
48482 
48487 
48491 
48483 
48539 
48558 
48487 
48424 
48436 
48414 
48393 
48378 
48383 
48459 
48489 
48503 
48487 
48482 
48537 
48571 
48529 
48501 
48542 
48564 
48615 
48631 
48632 
48626 
48620 
48594 
48651 
48722 
48766 
48794 
48812 
48795 
48786 
48798 
48797 
48784 
48768 
48777 
48831 
48910 
48981 
48946 
48909 
48876 
48869 
48873 
48929 
48944 
48939 
48963 
49032 
49037 
48975 
48972 
48973 
49006 
49028 
49052 
49059 
49052 
49138 
49170 
49156 
49147 
49093 
49127 
49184 
49219 
49223 
49285 
49349 
49306 
49235 
49205 
49190 
49256 
49261 
49282 
49269 
49206 
49187 
49243 
49300 
49272 
49219 
49189 
49166 
49196 
49271 
49274 
49288 
49320 
49332 
49340 
49341 
49356 
49418 
49470 
49457 
49460 
49526 
49597 
49617 
49599 
49554 
49558 
49556 
49560 
49628 
49673 
49683 
49645 
49581 
49534 
49541 
49527 
49485 
49443 
49373 
49359 
49378 
49350 
49335 
49260 
49183 
49119 
49094 
49088 
49075 
48995 
48970 
48965 
48947 
48902 
48925 
48902 
48896 
48874 
48770 
48711 
48681 
48703 
48690 
48655 
48624 
48651 
48649 
48621 
48593 
48566 
48562 
48553 
48504 
48532 
48542 
48551 
48538 
48522 
48514 
48571 
48561 
48545 
48524 
48558 
48617 
48668 
48701 
48676 
48681 
48721 
48712 
48648 
48573 
48570 
48602 
48659 
48689 
48671 
48748 
48758 
48760 
48826 
48842 
48835 
48844 
48853 
48826 
48768 
48786 
48837 
48905 
48951 
48965 
48983 
48971 
48957 
48922 
48894 
48928 
48923 
48930 
48991 
49033 
49075 
49098 
49162 
49222 
49238 
49245 
49270 
49351 
49395 
49412 
49375 
49339 
49375 
49432 
49446 
49504 
49474 
49425 
49437 
49463 
49489 
49523 
49528 
49520 
49540 
49530 
49506 
49473 
49508 
49533 
49541 
49584 
49571 
49587 
49605 
49624 
49721 
49777 
49733 
49751 
49776 
49819 
49852 
49867 
49860 
49852 
49864 
49920 
49916 
49962 
50010 
50018 
49970 
49952 
49937 
49947 
49993 
50023 
50043 
50030 
49998 
49980 
50004 
50002 
49980 
49978 
50007 
50026 
50063 
50127 
50199 
50272 
50296 
50308 
50313 
50333 
50329 
50258 
50192 
50184 
50243 
50333 
50411 
50426 
50396 
50436 
50453 
50432 
50433 
50422 
50440 
50435 
50400 
50362 
50342 
50304 
50276 
50236 
50208 
50177 
50150 
50094 
50028 
49991 
49961 
49925 
49885 
49868 
49868 
49801 
49716 
49663 
49658 
49673 
49668 
49693 
49701 
49640 
49572 
49562 
49585 
49634 
49686 
49641 
49568 
49507 
49456 
49410 
49359 
49311 
49293 
49304 
49279 
49295 
49315 
49310 
49316 
49297 
49307 
49286 
49276 
49252 
49211 
49191 
49160 
49171 
49147 
49178 
49174 
49160 
49204 
49198 
49133 
49097 
49122 
49201 
49293 
49314 
49342 
49328 
49242 
49198 
49214 
49232 
49268 
49343 
49388 
49375 
49369 
49396 
49391 
49424 
49450 
49480 
49509 
49487 
49536 
49602 
49621 
49630 
49614 
49596 
49585 
49605 
49626 
49652 
49656 
49653 
49723 
49727 
49660 
49621 
49621 
49571 
49501 
49467 
49462 
49531 
49527 
49490 
49501 
49541 
49597 
49614 
49585 
49578 
49590 
49650 
49723 
49804 
49860 
49856 
49876 
49930 
49920 
49912 
49913 
49939 
49964 
49977 
49961 
49973 
49991 
50023 
50113 
50156 
50139 
50087 
50090 
50118 
50114 
50087 
50084 
50063 
50068 
50071 
50152 
50216 
50207 
50208 
50244 
50246 
50246 
50274 
50307 
50330 
50322 
50291 
50284 
50285 
50262 
50360 
50454 
50514 
50539 
50539 
50548 
50523 
50471 
50475 
50512 
50538 
50601 
50656 
50655 
50689 
50733 
50724 
50655 
50614 
50638 
50679 
50689 
50677 
50686 
50707 
50696 
50628 
50534 
50515 
50512 
50499 
50498 
50425 
50433 
50428 
50372 
50325 
50302 
50324 
50324 
50322 
50257 
50207 
50231 
50242 
50263 
50264 
50244 
50235 
50179 
50120 
50102 
50105 
50107 
50068 
50031 
50019 
50008 
50002 
50004 
50011 
50038 
50048 
50022 
49983 
49946 
49879 
49896 
49907 
49909 
49964 
49997 
50014 
50033 
50025 
49981 
49947 
49895 
49883 
49877 
49871 
49874 
49906 
49939 
50001 
50062 
50074 
50067 
50062 
50038 
50070 
50137 
50189 
50207 
50219 
50280 
50300 
50284 
50272 
50266 
50223 
50193 
50237 
50249 
50248 
50272 
50238 
50236 
50330 
50377 
50356 
50373 
50403 
50421 
50464 
50540 
50584 
50616 
50683 
50706 
50730 
50718 
50709 
50692 
50724 
50758 
50761 
50785 
50813 
50869 
50938 
50936 
50914 
50940 
50913 
50918 
50923 
50958 
51012 
51091 
51123 
51135 
51163 
51237 
51300 
51280 
51192 
51197 
51227 
51242 
51283 
51256 
51259 
51309 
51302 
51279 
51291 
51299 
51311 
51324 
51332 
51330 
51355 
51404 
51412 
51397 
51486 
51510 
51509 
51543 
51583 
51608 
51612 
51641 
51681 
51654 
51644 
51614 
51595 
51586 
51534 
51542 
51559 
51558 
51592 
51587 
51553 
51465 
51409 
51381 
51368 
51295 
51258 
51192 
51111 
51057 
50954 
50822 
50736 
50719 
50691 
50618 
50577 
50510 
50487 
50508 
50460 
50410 
50410 
50419 
50353 
50254 
50218 
50251 
50258 
50228 
50152 
50107 
50126 
50117 
50079 
50061 
50030 
50071 
50152 
50167 
50153 
50171 
50181 
50185 
50185 
50164 
50200 
50252 
50250 
50262 
50324 
50382 
50393 
50410 
50441 
50458 
50421 
50377 
50434 
50470 
50518 
50619 
50656 
50697 
50765 
50823 
50858 
50843 
50867 
50937 
51002 
51017 
51027 
51041 
51067 
51055 
51034 
51053 
51062 
51074 
51113 
51135 
51143 
51200 
51308 
51383 
51403 
51435 
51486 
51525 
51565 
51612 
51680 
51717 
51722 
51705 
51696 
51706 
51750 
51763 
51771 
51893 
51989 
52010 
52052 
52015 
51986 
52023 
52039 
52109 
52217 
52265 
52269 
52258 
52217 
52245 
52303 
52336 
52331 
52291 
52282 
52319 
52315 
52338 
52387 
52488 
52553 
52530 
52515 
52540 
52635 
52714 
52707 
52699 
52775 
52882 
52915 
52945 
52989 
52979 
52961 
52943 
52962 
52987 
52997 
53031 
53066 
53116 
53129 
53109 
53105 
53102 
53104 
53113 
53119 
53132 
53166 
53204 
53244 
53216 
53192 
53221 
53226 
53170 
53078 
52962 
52899 
52887 
52841 
52816 
52785 
52663 
52504 
52377 
52316 
52239 
52194 
52109 
51991 
51864 
51764 
51684 
51575 
51487 
51427 
51343 
51281 
51187 
51110 
51068 
50998 
50870 
50785 
50745 
50644 
50593 
50585 
50563 
50568 
50539 
50503 
50454 
50405 
50394 
50415 
50448 
50474 
50504 
50511 
50517 
50535 
50558 
50525 
50517 
50542 
50552 
50550 
50595 
50653 
50625 
50647 
50758 
50829 
50857 
50894 
50979 
51010 
51020 
51116 
51172 
51236 
51325 
51414 
51422 
51400 
51422 
51502 
51582 
51602 
51619 
51639 
51667 
51759 
51876 
51903 
51916 
51977 
52040 
52091 
52140 
52162 
52143 
52181 
52287 
52367 
52423 
52474 
52506 
52499 
52506 
52549 
52632 
52650 
52627 
52713 
52795 
52849 
52889 
52901 
52916 
52987 
53069 
53170 
53189 
53198 
53236 
53270 
53285 
53343 
53416 
53444 
53467 
53507 
53570 
53633 
53640 
53632 
53671 
53728 
53760 
53755 
53785 
53841 
53902 
53963 
53948 
53938 
53935 
53988 
54068 
54118 
54135 
54195 
54265 
54264 
54253 
54274 
54334 
54360 
54411 
54445 
54481 
54470 
54507 
54489 
54493 
54562 
54606 
54633 
54662 
54684 
54754 
54791 
54807 
54832 
54838 
54849 
54852 
54875 
54873 
54860 
54843 
54843 
54849 
54879 
54888 
54859 
54744 
54696 
54696 
54603 
54481 
54371 
54226 
54009 
53806 
53663 
53503 
53387 
53268 
53099 
52899 
52755 
52606 
52445 
52243 
52069 
51926 
51787 
51663 
51589 
51500 
51419 
51335 
51201 
51131 
51093 
51077 
51020 
50935 
50860 
50856 
50863 
50859 
50814 
50783 
50749 
50747 
50795 
50822 
50835 
50880 
50890 
50879 
50915 
51002 
51093 
51145 
51177 
51222 
51282 
51343 
51452 
51549 
51628 
51679 
51699 
51741 
51811 
51911 
51987 
52041 
52139 
52265 
52398 
52528 
52592 
52681 
52762 
52804 
52843 
52930 
53002 
53123 
53194 
53227 
53300 
53394 
53450 
53451 
53477 
53546 
53542 
53566 
53589 
53706 
53794 
53818 
53883 
53960 
53953 
53982 
54054 
54052 
54111 
54167 
54217 
54294 
54368 
54380 
54411 
54450 
54468 
54506 
54542 
54597 
54719 
54758 
54822 
54908 
54981 
55008 
55024 
55101 
55158 
55168 
55174 
55272 
55394 
55456 
55477 
55501 
55519 
55534 
55548 
55608 
55671 
55741 
55793 
55818 
55842 
55836 
55861 
55908 
55960 
55984 
56041 
56153 
56197 
56176 
56193 
56218 
56278 
56360 
56434 
56487 
56484 
56445 
56441 
56513 
56614 
56614 
56619 
56647 
56722 
56716 
56690 
56714 
56751 
56813 
56860 
56879 
56899 
56889 
56900 
56990 
56991 
56958 
56937 
56900 
56896 
56895 
56900 
56906 
56865 
56827 
56783 
56713 
56595 
56480 
56376 
56252 
56020 
55797 
55587 
55401 
55271 
55132 
54937 
54723 
54562 
54394 
54237 
54091 
53890 
53710 
53547 
53357 
53183 
53034 
52931 
52837 
52796 
52780 
52713 
52643 
52546 
52487 
52480 
52437 
52420 
52407 
52366 
52379 
52383 
52365 
52433 
52435 
52462 
52565 
52598 
52604 
52661 
52755 
52834 
52937 
53050 
53148 
53192 
53266 
53343 
53447 
53540 
53669 
53823 
53900 
53972 
54075 
54135 
54222 
54360 
54474 
54581 
54723 
54844 
54948 
55041 
55134 
55127 
55102 
55114 
55189 
55295 
55356 
55412 
55481 
55515 
55588 
55659 
55751 
55811 
55836 
55859 
55867 
55894 
55917 
55945 
55998 
56013 
56033 
56100 
56141 
56168 
56186 
56232 
56231 
56248 
56223 
56281 
56312 
56354 
56437 
56485 
56503 
56507 
56473 
56493 
56546 
56579 
56591 
56636 
56653 
56680 
56699 
56807 
56876 
56930 
56992 
57057 
57078 
57081 
57073 
57110 
57204 
57293 
57352 
57422 
57422 
57426 
57466 
57507 
57553 
57608 
57676 
57771 
57824 
57856 
57878 
57872 
57890 
57918 
57945 
58011 
58065 
58070 
58051 
58071 
58096 
58143 
58190 
58185 
58181 
58243 
58337 
58358 
58331 
58291 
58250 
58224 
58229 
58309 
58348 
58377 
58410 
58388 
58410 
58464 
58454 
58475 
58481 
58487 
58493 
58477 
58463 
58448 
58412 
58364 
58297 
58254 
58222 
58202 
58204 
58186 
58158 
58115 
58130 
58050 
57899 
57785 
57618 
57422 
57236 
57049 
56882 
56645 
56366 
56128 
55950 
55747 
55551 
55348 
55174 
55053 
54952 
54795 
54629 
54476 
54339 
54183 
54027 
53926 
53814 
53728 
53674 
53648 
53615 
53577 
53553 
53508 
53489 
53492 
53539 
53562 
53602 
53636 
53671 
53688 
53690 
53708 
53727 
53802 
53873 
53939 
54086 
54261 
54339 
54450 
54543 
54648 
54723 
54790 
54893 
54952 
55066 
55206 
55309 
55355 
55480 
55616 
55668 
55714 
55738 
55833 
55945 
56002 
56058 
56095 
56125 
56178 
56245 
56280 
56280 
56287 
56334 
56317 
56329 
56370 
56396 
56367 
56338 
56343 
56392 
56412 
56376 
56365 
56348 
56369 
56441 
56474 
56425 
56390 
56404 
56439 
56452 
56443 
56400 
56400 
56434 
56486 
56540 
56562 
56582 
56620 
56595 
56588 
56645 
56707 
56765 
56817 
56877 
56921 
56923 
56947 
57015 
56995 
57011 
57096 
57169 
57170 
57168 
57131 
57112 
57143 
57228 
57259 
57287 
57337 
57387 
57388 
57328 
57300 
57335 
57455 
57585 
57650 
57664 
57622 
57635 
57662 
57708 
57716 
57711 
57730 
57683 
57677 
57667 
57655 
57705 
57732 
57742 
57728 
57680 
57655 
57690 
57711 
57769 
57801 
57785 
57766 
57725 
57763 
57820 
57861 
57897 
57912 
57945 
57896 
57900 
57931 
57911 
57900 
57925 
57903 
57884 
57904 
57929 
57962 
57991 
57999 
57945 
57840 
57772 
57755 
57633 
57502 
57358 
57157 
56949 
56773 
56578 
56422 
56235 
56048 
55870 
55660 
55455 
55218 
54985 
54841 
54780 
54670 
54558 
54489 
54393 
54284 
54181 
54127 
54095 
54022 
53988 
54002 
54002 
53947 
53938 
53973 
53985 
54010 
54035 
54044 
54101 
54116 
54162 
54258 
54304 
54321 
54378 
54525 
54633 
54702 
54804 
54894 
55000 
55046 
55151 
55327 
55444 
55539 
55594 
55678 
55777 
55901 
55984 
56050 
56127 
56215 
56317 
56353 
56448 
56569 
56629 
56670 
56735 
56770 
56837 
56890 
56944 
57015 
57034 
57075 
57130 
57133 
57118 
57074 
57022 
56985 
56960 
56974 
56988 
56973 
56933 
56899 
56849 
56827 
56886 
56979 
57044 
57071 
57075 
57033 
57030 
57057 
57100 
57142 
57197 
57271 
57258 
57259 
57252 
57262 
57276 
57300 
57328 
57374 
57417 
57452 
57474 
57551 
57623 
57696 
57721 
57734 
57748 
57784 
57806 
57789 
57772 
57779 
57830 
57882 
57878 
57844 
57862 
57931 
57945 
57936 
57920 
57958 
57981 
57985 
57988 
58025 
58068 
58088 
58133 
58137 
58176 
58216 
58178 
58192 
58223 
58257 
58314 
58356 
58337 
58306 
58281 
58243 
58210 
58199 
58227 
58261 
58299 
58301 
58271 
58265 
58253 
58228 
58222 
58194 
58152 
58162 
58166 
58179 
58109 
58058 
58059 
58035 
58017 
57998 
58012 
58008 
57988 
57910 
57802 
57677 
57537 
57276 
57022 
56838 
56609 
56361 
56155 
55933 
55779 
55653 
55497 
55303 
55086 
54872 
54721 
54597 
54497 
54380 
54293 
54239 
54176 
54103 
54030 
53921 
53870 
53856 
53877 
53895 
53922 
53908 
53932 
53971 
53994 
54016 
54088 
54181 
54303 
54379 
54443 
54512 
54609 
54701 
54762 
54779 
54871 
54981 
55122 
55300 
55383 
55466 
55566 
55708 
55794 
55898 
56050 
56165 
56245 
56320 
56393 
56526 
56615 
56691 
56755 
56816 
56858 
56863 
56934 
57027 
57079 
57100 
57129 
57186 
57174 
57237 
57301 
57327 
57369 
57387 
57356 
57344 
57372 
57413 
57441 
57457 
57475 
57496 
57496 
57477 
57434 
57441 
57492 
57537 
57554 
57553 
57589 
57615 
57579 
57504 
57480 
57476 
57467 
57468 
57452 
57490 
57551 
57578 
57589 
57609 
57656 
57634 
57610 
57613 
57636 
57645 
57699 
57778 
57836 
57877 
57918 
57941 
57963 
58020 
58164 
58285 
58329 
58329 
58338 
58382 
58451 
58473 
58524 
58601 
58704 
58742 
58732 
58745 
58796 
58843 
58816 
58817 
58861 
58909 
58954 
58967 
58985 
59070 
59083 
59051 
59063 
59122 
59167 
59158 
59165 
59188 
59207 
59180 
59162 
59180 
59205 
59245 
59211 
59152 
59111 
59120 
59165 
59195 
59202 
59239 
59212 
59158 
59073 
58958 
58881 
58837 
58781 
58707 
58576 
58388 
58162 
58006 
57815 
57594 
57327 
57094 
56895 
56681 
56455 
56250 
56077 
55884 
55700 
55504 
55303 
55094 
54940 
54812 
54701 
54561 
54446 
54340 
54229 
54140 
54040 
53953 
53908 
53913 
53859 
53811 
53796 
53796 
53811 
53877 
53916 
53931 
53941 
53972 
54014 
54027 
54040 
54063 
54098 
54176 
54269 
54339 
54483 
54618 
54733 
54829 
54886 
54978 
55104 
55214 
55384 
55517 
55637 
55700 
55749 
55828 
55911 
56026 
56149 
56247 
56277 
56331 
56388 
56435 
56517 
56550 
56595 
56669 
56707 
56723 
56771 
56772 
56805 
56869 
56926 
56967 
57017 
57023 
57037 
57088 
57108 
57068 
57069 
57127 
57151 
57140 
57159 
57137 
57113 
57160 
57215 
57221 
57209 
57217 
57240 
57272 
57314 
57343 
57395 
57451 
57476 
57523 
57603 
57639 
57681 
57700 
57741 
57776 
57784 
57840 
57952 
57976 
57998 
58042 
58058 
58091 
58098 
58125 
58184 
58234 
58283 
58341 
58380 
58421 
58535 
58610 
58700 
58760 
58755 
58731 
58727 
58746 
58824 
58924 
58991 
58995 
58967 
59018 
59056 
59100 
59158 
59214 
59274 
59287 
59293 
59334 
59338 
59349 
59378 
59467 
59544 
59573 
59558 
59549 
59593 
59631 
59655 
59641 
59651 
59680 
59699 
59712 
59694 
59715 
59736 
59758 
59776 
59784 
59856 
59915 
59880 
59817 
59741 
59733 
59728 
59671 
59615 
59603 
59542 
59487 
59451 
59341 
59140 
58906 
58726 
58490 
58240 
58068 
57881 
57628 
57368 
57131 
56901 
56708 
56545 
56328 
56141 
55946 
55727 
55603 
55487 
55339 
55219 
55109 
55012 
54960 
54925 
54844 
54802 
54814 
54840 
54823 
54898 
55003 
55071 
55137 
55212 
55287 
55368 
55468 
55549 
55679 
55810 
55974 
56122 
56212 
56299 
56483 
56651 
56797 
56932 
57074 
57239 
57387 
57506 
57642 
57799 
57944 
58097 
58207 
58298 
58453 
58648 
58791 
58866 
58930 
59045 
59150 
59239 
59355 
59444 
59470 
59573 
59642 
59699 
59761 
59767 
59847 
59929 
59972 
59937 
59907 
59907 
59960 
59990 
59985 
59967 
59931 
59935 
59947 
59972 
59977 
59962 
59977 
60017 
60061 
60092 
60102 
60182 
60283 
60331 
60331 
60402 
60490 
60560 
60646 
60743 
60782 
60798 
60828 
60884 
60919 
61030 
61113 
61173 
61281 
61329 
61339 
61417 
61470 
61481 
61504 
61495 
61537 
61591 
61666 
61742 
61784 
61844 
61924 
61977 
62015 
62045 
62049 
62096 
62179 
62207 
62217 
62262 
62287 
62324 
62364 
62342 
62344 
62350 
62352 
62362 
62342 
62350 
62346 
62303 
62274 
62246 
62217 
62216 
62249 
62259 
62249 
62196 
62198 
62250 
62267 
62220 
62190 
62181 
62152 
62195 
62208 
62191 
62146 
62050 
62007 
61979 
61972 
62007 
62001 
61931 
61916 
61966 
61953 
61969 
61967 
61957 
61948 
61971 
61993 
61985 
61950 
61942 
61920 
61884 
61819 
61766 
61678 
61520 
61299 
61123 
60964 
60726 
60469 
60263 
60030 
59776 
59500 
59237 
58953 
58669 
58328 
57994 
57669 
57379 
57112 
56869 
56631 
56425 
56192 
56019 
55858 
55656 
55467 
55372 
55291 
55214 
55131 
55003 
54883 
54843 
54855 
54819 
54815 
54758 
54668 
54673 
54688 
54707 
54784 
54843 
54871 
54885 
54887 
54909 
54890 
54913 
54965 
54980 
55000 
55033 
55086 
55154 
55223 
55333 
55471 
55506 
55505 
55525 
55588 
55658 
55673 
55686 
55748 
55796 
55850 
55911 
55932 
55921 
55928 
55941 
56002 
56026 
56029 
56071 
56121 
56104 
56071 
56048 
56001 
55945 
55908 
55853 
55801 
55809 
55818 
55753 
55723 
55722 
55676 
55635 
55645 
55640 
55630 
55618 
55620 
55607 
55566 
55512 
55496 
55601 
55596 
55570 
55572 
55627 
55658 
55727 
55790 
55822 
55860 
55896 
55912 
55948 
56003 
56062 
56128 
56166 
56180 
56215 
56299 
56384 
56460 
56563 
56623 
56661 
56722 
56771 
56855 
56932 
57048 
57080 
57057 
57133 
57199 
57257 
57331 
57432 
57552 
57584 
57592 
57626 
57679 
57755 
57827 
57934 
58054 
58102 
58214 
58281 
58343 
58423 
58489 
58513 
58538 
58582 
58625 
58687 
58738 
58756 
58726 
58762 
58774 
58773 
58751 
58758 
58776 
58749 
58737 
58751 
58758 
58754 
58774 
58768 
58703 
58670 
58705 
58712 
58679 
58616 
58593 
58561 
58568 
58589 
58571 
58573 
58506 
58464 
58428 
58361 
58248 
58185 
58109 
58040 
57902 
57751 
57623 
57454 
57292 
57077 
56779 
56474 
56215 
55955 
55695 
55435 
55144 
54810 
54508 
54234 
53923 
53625 
53357 
53149 
52940 
52728 
52537 
52344 
52143 
51985 
51874 
51771 
51619 
51490 
51396 
51312 
51247 
51228 
51256 
51218 
51183 
51173 
51192 
51184 
51231 
51270 
51314 
51402 
51532 
51625 
51696 
51809 
51874 
51957 
52051 
52123 
52192 
52308 
52459 
52602 
52753 
52987 
53194 
53373 
53549 
53684 
53851 
53970 
54056 
54159 
54273 
54342 
54413 
54511 
54546 
54594 
54641 
54661 
54715 
54794 
54851 
54906 
54951 
54973 
54944 
54911 
54890 
54874 
54837 
54824 
54828 
54838 
54835 
54775 
54708 
54682 
54665 
54689 
54661 
54620 
54643 
54649 
54673 
54686 
54729 
54802 
54836 
54851 
54869 
54916 
54929 
54965 
55040 
55097 
55085 
55111 
55148 
55162 
55226 
55362 
55437 
55482 
55537 
55620 
55684 
55737 
55796 
55900 
55996 
56025 
56015 
56004 
56032 
56115 
56162 
56218 
56292 
56363 
56400 
56442 
56487 
56564 
56579 
56586 
56602 
56660 
56776 
56873 
56914 
56903 
56877 
56857 
56933 
56994 
57026 
57076 
57086 
57089 
57139 
57185 
57232 
57242 
57223 
57190 
57169 
57153 
57166 
57125 
57102 
57055 
56989 
57003 
57007 
57038 
57047 
57000 
56933 
56891 
56843 
56843 
56863 
56789 
56774 
56750 
56720 
56672 
56623 
56588 
56523 
56434 
56322 
56191 
56077 
55945 
55777 
55620 
55506 
55369 
55213 
55063 
54857 
54630 
54420 
54195 
53982 
53802 
53600 
53397 
53160 
52928 
52653 
52423 
52184 
51964 
51765 
51580 
51374 
51225 
51132 
50987 
50885 
50778 
50649 
50561 
50482 
50379 
50278 
50172 
50132 
50116 
50130 
50101 
50098 
50112 
50167 
50235 
50264 
50235 
50248 
50280 
50341 
50388 
50471 
50554 
50660 
50773 
50874 
51039 
51195 
51316 
51441 
51517 
51612 
51777 
51891 
52030 
52207 
52327 
52390 
52453 
52559 
52667 
52776 
52888 
52940 
52990 
53058 
53108 
53127 
53131 
53140 
53146 
53189 
53222 
53214 
53241 
53303 
53329 
53373 
53431 
53483 
53504 
53502 
53543 
53550 
53536 
53496 
53474 
53493 
53523 
53592 
53598 
53620 
53693 
53764 
53804 
53870 
53978 
54043 
54088 
54189 
54272 
54336 
54342 
54411 
54496 
54576 
54647 
54690 
54736 
54751 
54772 
54845 
54919 
54973 
55012 
55111 
55218 
55317 
55361 
55388 
55414 
55452 
55518 
55572 
55623 
55659 
55679 
55745 
55802 
55820 
55871 
55904 
55948 
55984 
55987 
56002 
56062 
56137 
56164 
56166 
56206 
56218 
56249 
56302 
56350 
56427 
56488 
56556 
56590 
56637 
56684 
56724 
56737 
56720 
56728 
56783 
56838 
56858 
56887 
56927 
56922 
56880 
56849 
56867 
56821 
56793 
56726 
56619 
56551 
56472 
56351 
56207 
56079 
55990 
55766 
55539 
55344 
55165 
54952 
54704 
54458 
54188 
53874 
53628 
53413 
53190 
52979 
52775 
52642 
52470 
52301 
52175 
52033 
51955 
51868 
51770 
51695 
51618 
51564 
51554 
51546 
51512 
51442 
51391 
51422 
51433 
51509 
51581 
51602 
51693 
51753 
51772 
51835 
51957 
52049 
52148 
52235 
52353 
52418 
52525 
52635 
52706 
52818 
52952 
53077 
53183 
53355 
53447 
53563 
53677 
53768 
53848 
53932 
53958 
54031 
54163 
54226 
54215 
54209 
54257 
54331 
54377 
54428 
54465 
54427 
54391 
54415 
54412 
54385 
54378 
54419 
54401 
54340 
54257 
54167 
54119 
54157 
54164 
54163 
54177 
54138 
54060 
53986 
53976 
54003 
53983 
53957 
53904 
53885 
53890 
53883 
53846 
53812 
53840 
53919 
53945 
53953 
54019 
54071 
54032 
54058 
54113 
54102 
54098 
54124 
54143 
54195 
54235 
54285 
54290 
54256 
54291 
54260 
54238 
54311 
54406 
54431 
54442 
54493 
54516 
54536 
54532 
54567 
54626 
54665 
54700 
54744 
54779 
54810 
54852 
54888 
54887 
54923 
54969 
55014 
55067 
55098 
55064 
54961 
54908 
54916 
54950 
54938 
54897 
54824 
54757 
54706 
54586 
54530 
54469 
54458 
54505 
54499 
54427 
54337 
54265 
54169 
54052 
53848 
53623 
53440 
53203 
52926 
52672 
52426 
52203 
51961 
51714 
51475 
51315 
51108 
50874 
50631 
50404 
50157 
49893 
49694 
49477 
49319 
49192 
49027 
48870 
48784 
48683 
48599 
48529 
48512 
48519 
48445 
48353 
48310 
48306 
48311 
48294 
48281 
48340 
48416 
48484 
48551 
48683 
48791 
48850 
48916 
49002 
49129 
49235 
49351 
49503 
49630 
49758 
49949 
50155 
50388 
50582 
50756 
50942 
51138 
51329 
51462 
51531 
51656 
51806 
51935 
52071 
52191 
52370 
52513 
52583 
52595 
52656 
52723 
52768 
52804 
52814 
52805 
52792 
52809 
52840 
52873 
52901 
52891 
52852 
52854 
52845 
52819 
52809 
52829 
52783 
52748 
52720 
52664 
52693 
52667 
52581 
52554 
52546 
52551 
52507 
52384 
52231 
52145 
52107 
52051 
51984 
51918 
51856 
51766 
51737 
51742 
51772 
51716 
51705 
51717 
51721 
51703 
51655 
51647 
51667 
51655 
51637 
51626 
51590 
51584 
51571 
51567 
51586 
51609 
51645 
51712 
51709 
51731 
51755 
51725 
51710 
51746 
51721 
51695 
51741 
51791 
51842 
51902 
51940 
51945 
51938 
51905 
51886 
51894 
51939 
52056 
52119 
52115 
52122 
52122 
52116 
52147 
52175 
52217 
52242 
52176 
52105 
52065 
52038 
51888 
51744 
51652 
51505 
51420 
51242 
51030 
50860 
50650 
50438 
50234 
49989 
49767 
49611 
49473 
49258 
48992 
48773 
48572 
48395 
48268 
48115 
47941 
47834 
47765 
47718 
47721 
47699 
47648 
47566 
47503 
47531 
47577 
47606 
47618 
47621 
47641 
47652 
47676 
47689 
47744 
47779 
47860 
48026 
48129 
48204 
48315 
48478 
48607 
48759 
48898 
49079 
49242 
49332 
49463 
49631 
49774 
49974 
50110 
50192 
50367 
50511 
50650 
50806 
50931 
51099 
51355 
51502 
51585 
51738 
51883 
52002 
52107 
52177 
52219 
52309 
52428 
52496 
52522 
52567 
52655 
52732 
52777 
52770 
52781 
52793 
52837 
52860 
52903 
52961 
53009 
53081 
53101 
53066 
53060 
53135 
53143 
53160 
53214 
53258 
53285 
53300 
53374 
53415 
53427 
53499 
53522 
53594 
53656 
53715 
53751 
53740 
53790 
53830 
53859 
53902 
53960 
54012 
54089 
54139 
54153 
54187 
54256 
54334 
54425 
54488 
54535 
54573 
54634 
54692 
54737 
54818 
54815 
54822 
54902 
54954 
54973 
55028 
55059 
55059 
55106 
55206 
55328 
55412 
55419 
55412 
55412 
55390 
55385 
55376 
55339 
55351 
55424 
55508 
55541 
55545 
55565 
55528 
55475 
55426 
55371 
55255 
55163 
55023 
54837 
54629 
54428 
54246 
54031 
53755 
53501 
53276 
53019 
52757 
52499 
52289 
52070 
51837 
51629 
51492 
51310 
51101 
50925 
50748 
50565 
50417 
50328 
50267 
50224 
50153 
50083 
50041 
50022 
50026 
50040 
50026 
50041 
50027 
50033 
50066 
50089 
50123 
50206 
50310 
50427 
50525 
50581 
50660 
50746 
50838 
50930 
51068 
51209 
51357 
51478 
51613 
51774 
51900 
52012 
52082 
52159 
52275 
52370 
52453 
52564 
52631 
52712 
52808 
52907 
53002 
53050 
53038 
53081 
53153 
53224 
53300 
53364 
53403 
53423 
53453 
53478 
53481 
53423 
53376 
53391 
53428 
53473 
53452 
53382 
53393 
53374 
53315 
53265 
53212 
53220 
53253 
53289 
53310 
53329 
53357 
53344 
53344 
53406 
53505 
53524 
53487 
53452 
53468 
53548 
53571 
53588 
53612 
53668 
53693 
53729 
53794 
53825 
53922 
54042 
54156 
54226 
54388 
54539 
54588 
54677 
54808 
54919 
55017 
55120 
55246 
55417 
55569 
55710 
55915 
56124 
56294 
56467 
56654 
56885 
57112 
57248 
57438 
57676 
57905 
58087 
58226 
58361 
58591 
58918 
59176 
59391 
59592 
59753 
59984 
60183 
60382 
60593 
60752 
60942 
61131 
61285 
61366 
61491 
61636 
61676 
61694 
61680 
61626 
61538 
61462 
61345 
61238 
61062 
60830 
60655 
60455 
60180 
59890 
59604 
59332 
59094 
58828 
58585 
58304 
58061 
57833 
57625 
57440 
57252 
57054 
56868 
56715 
56599 
56459 
56320 
56206 
56080 
55987 
55877 
55773 
55670 
55532 
55401 
55319 
55258 
55176 
55142 
55068 
54986 
54962 
54923 
54863 
54800 
54729 
54672 
54649 
54664 
54653 
54621 
54588 
54584 
54624 
54609 
54529 
54513 
54504 
54526 
54534 
54510 
54545 
54530 
54497 
54541 
54537 
54472 
54462 
54423 
54350 
54321 
54237 
54163 
54087 
54034 
53949 
53854 
53799 
53710 
53605 
53507 
53429 
53349 
53279 
53236 
53201 
53140 
52956 
52798 
52683 
52630 
52547 
52463 
52405 
52348 
52282 
52177 
52072 
51994 
51982 
51964 
51942 
51942 
51936 
51911 
51891 
51867 
51858 
51885 
51909 
51905 
51857 
51849 
51821 
51760 
51754 
51693 
51588 
51541 
51452 
51359 
51323 
51293 
51257 
51175 
51106 
51040 
50954 
50896 
50817 
50709 
50594 
50506 
50433 
50364 
50311 
50223 
50149 
50094 
49999 
49945 
49890 
49844 
49773 
49690 
49642 
49598 
49543 
49513 
49461 
49392 
49374 
49425 
49420 
49405 
49419 
49399 
49358 
49328 
49300 
49293 
49292 
49318 
49337 
49346 
49355 
49361 
49285 
49236 
49220 
49264 
49296 
49289 
49252 
49252 
49257 
49281 
49279 
49259 
49191 
49097 
48993 
48906 
48830 
48702 
48552 
48398 
48147 
47971 
47790 
47555 
47322 
47117 
46911 
46673 
46437 
46148 
45886 
45695 
45502 
45354 
45192 
45035 
44943 
44816 
44663 
44570 
44501 
44463 
44407 
44346 
44328 
44264 
44216 
44206 
44213 
44244 
44281 
44286 
44307 
44336 
44363 
44404 
44477 
44579 
44692 
44751 
44809 
44860 
45001 
45132 
45233 
45285 
45369 
45435 
45537 
45669 
45822 
46032 
46248 
46422 
46574 
46742 
46929 
47010 
47139 
47329 
47544 
47730 
47853 
48011 
48179 
48378 
48520 
48650 
48746 
48810 
48845 
48921 
49042 
49161 
49303 
49361 
49403 
49519 
49619 
49675 
49755 
49875 
49971 
50101 
50257 
50437 
50558 
50733 
50960 
51162 
51378 
51581 
51759 
51965 
52187 
52423 
52702 
52998 
53278 
53524 
53700 
53936 
54191 
54410 
54603 
54792 
55013 
55251 
55421 
55566 
55727 
55907 
56117 
56311 
56399 
56525 
56690 
56812 
56861 
56957 
57080 
57190 
57331 
57492 
57566 
57606 
57669 
57725 
57745 
57780 
57832 
57872 
57920 
57946 
57991 
58041 
58074 
58141 
58201 
58261 
58341 
58434 
58506 
58536 
58540 
58493 
58446 
58416 
58395 
58388 
58401 
58393 
58361 
58328 
58305 
58287 
58237 
58171 
58092 
58036 
58046 
57968 
57916 
57906 
57852 
57790 
57758 
57733 
57658 
57575 
57475 
57422 
57317 
57169 
57010 
56915 
56822 
56747 
56682 
56586 
56433 
56291 
56232 
56176 
56049 
55890 
55727 
55576 
55410 
55242 
55052 
54809 
54582 
54345 
54036 
53758 
53461 
53138 
52813 
52526 
52248 
51864 
51518 
51244 
50931 
50564 
50190 
49867 
49588 
49308 
49030 
48744 
48484 
48210 
48021 
47825 
47596 
47383 
47163 
46967 
46782 
46610 
46443 
46345 
46240 
46120 
46060 
46020 
45958 
45882 
45791 
45738 
45726 
45679 
45626 
45622 
45604 
45608 
45633 
45646 
45670 
45692 
45713 
45730 
45711 
45762 
45824 
45855 
45891 
45950 
46014 
46060 
46148 
46201 
46272 
46307 
46330 
46413 
46529 
46610 
46671 
46745 
46812 
46891 
46946 
46960 
46974 
46986 
46993 
47036 
47052 
47095 
47137 
47171 
47244 
47277 
47287 
47318 
47376 
47390 
47438 
47493 
47542 
47612 
47688 
47766 
47845 
47935 
48027 
48099 
48136 
48169 
48195 
48265 
48364 
48453 
48469 
48471 
48479 
48563 
48666 
48700 
48767 
48844 
48962 
49045 
49111 
49174 
49232 
49288 
49308 
49395 
49511 
49603 
49708 
49820 
49888 
49920 
49929 
49998 
50112 
50209 
50305 
50424 
50516 
50624 
50707 
50763 
50779 
50798 
50831 
50845 
50897 
50992 
51072 
51152 
51239 
51360 
51419 
51474 
51542 
51579 
51653 
51708 
51781 
51833 
51822 
51896 
51931 
51928 
51905 
51943 
51990 
51998 
51977 
52008 
52059 
52078 
52087 
52055 
52015 
52050 
52092 
52092 
52092 
52098 
52083 
52051 
52107 
52124 
52119 
52159 
52144 
52161 
52178 
52190 
52172 
52141 
52131 
52182 
52216 
52166 
52139 
52151 
52166 
52164 
52119 
52073 
52056 
52081 
52131 
52193 
52214 
52182 
52166 
52201 
52192 
52162 
52080 
52050 
52060 
52092 
52079 
52064 
52003 
51837 
51666 
51540 
51374 
51179 
50994 
50817 
50691 
50484 
50273 
50078 
49910 
49684 
49465 
49282 
49048 
48855 
48657 
48473 
48306 
48138 
48035 
47893 
47732 
47575 
47464 
47378 
47329 
47278 
47206 
47103 
47050 
47030 
46960 
46869 
46822 
46864 
46930 
46942 
46958 
46982 
47034 
47090 
47108 
47138 
47173 
47300 
47363 
47414 
47467 
47546 
47646 
47750 
47889 
48009 
48063 
48075 
48132 
48239 
48380 
48449 
48554 
48677 
48766 
48835 
48892 
48995 
49094 
49170 
49286 
49366 
49404 
49530 
49604 
49629 
49659 
49696 
49747 
49757 
49749 
49751 
49759 
49789 
49805 
49853 
49851 
49806 
49778 
49760 
49763 
49810 
49871 
49876 
49845 
49833 
49840 
49822 
49822 
49853 
49841 
49791 
49802 
49857 
49901 
49972 
49986 
49949 
49977 
50042 
50132 
50199 
50229 
50278 
50299 
50308 
50360 
50406 
50436 
50448 
50551 
50579 
50572 
50545 
50546 
50595 
50654 
50650 
50605 
50657 
50748 
50748 
50720 
50755 
50804 
50816 
50808 
50856 
50920 
50993 
51055 
51095 
51202 
51241 
51220 
51221 
51307 
51401 
51446 
51529 
51577 
51569 
51567 
51619 
51689 
51743 
51746 
51712 
51729 
51733 
51737 
51740 
51732 
51751 
51749 
51702 
51674 
51722 
51786 
51846 
51816 
51769 
51741 
51757 
51753 
51700 
51643 
51582 
51555 
51540 
51543 
51502 
51503 
51536 
51587 
51603 
51549 
51511 
51478 
51425 
51436 
51477 
51497 
51499 
51458 
51412 
51391 
51410 
51464 
51460 
51486 
51461 
51449 
51422 
51408 
51397 
51398 
51388 
51351 
51357 
51419 
51420 
51377 
51392 
51390 
51305 
51159 
51040 
50897 
50732 
50601 
50404 
50242 
50030 
49832 
49613 
49480 
49298 
49071 
48853 
48670 
48426 
48183 
48033 
47912 
47755 
47616 
47468 
47290 
47160 
47073 
46983 
46851 
46731 
46613 
46519 
46479 
46459 
46395 
46394 
46437 
46470 
46480 
46441 
46449 
46513 
46584 
46584 
46583 
46666 
46687 
46674 
46722 
46761 
46819 
46899 
47000 
47112 
47207 
47270 
47379 
47536 
47619 
47722 
47815 
47897 
47943 
47991 
48057 
48121 
48208 
48262 
48325 
48364 
48437 
48478 
48530 
48641 
48706 
48755 
48843 
48897 
48876 
48834 
48837 
48866 
48904 
48934 
48967 
48982 
48977 
48939 
48922 
48929 
48947 
48973 
49042 
49082 
49065 
49061 
49091 
49140 
49179 
49222 
49254 
49263 
49257 
49260 
49257 
49343 
49409 
49431 
49493 
49608 
49674 
49704 
49757 
49843 
49927 
50024 
50141 
50305 
50434 
50510 
50609 
50730 
50807 
50891 
50961 
51010 
51018 
51051 
51118 
51184 
51229 
51278 
51292 
51318 
51352 
51375 
51408 
51419 
51451 
51452 
51471 
51474 
51539 
51608 
51629 
51666 
51693 
51708 
51724 
51761 
51830 
51904 
51947 
51957 
51970 
51988 
51997 
52044 
52055 
52071 
52126 
52170 
52243 
52296 
52333 
52339 
52380 
52439 
52410 
52338 
52329 
52366 
52426 
52472 
52438 
52397 
52356 
52312 
52302 
52311 
52296 
52330 
52331 
52263 
52229 
52199 
52180 
52131 
52100 
52084 
52058 
52040 
51998 
51958 
51895 
51799 
51741 
51699 
51651 
51589 
51446 
51279 
51132 
50981 
50793 
50707 
50637 
50481 
50366 
50267 
50125 
49922 
49792 
49668 
49542 
49423 
49306 
49174 
49030 
48943 
48859 
48799 
48729 
48575 
48457 
48345 
48232 
48176 
48079 
47997 
47957 
47951 
47925 
47880 
47915 
47973 
48043 
48087 
48113 
48089 
48046 
48002 
47994 
48048 
48114 
48163 
48263 
48347 
48398 
48441 
48480 
48456 
48486 
48522 
48579 
48683 
48785 
48910 
48922 
48905 
49011 
49154 
49253 
49295 
49379 
49489 
49549 
49563 
49632 
49725 
49867 
49886 
49909 
49936 
49967 
50012 
49997 
49998 
50017 
50060 
50101 
50129 
50148 
50167 
50164 
50156 
50144 
50105 
50091 
50096 
50153 
50148 
50171 
50269 
50325 
50323 
50321 
50270 
50249 
50284 
50285 
50241 
50168 
50178 
50180 
50220 
50257 
50299 
50336 
50335 
50335 
50371 
50423 
50473 
50454 
50439 
50429 
50381 
50385 
50392 
50377 
50392 
50457 
50506 
50456 
50468 
50493 
50516 
50554 
50659 
50708 
50646 
50682 
50747 
50736 
50721 
50721 
50739 
50737 
50738 
50767 
50772 
50794 
50778 
50819 
50901 
50980 
51056 
51102 
51119 
51065 
51034 
51035 
51034 
51035 
51073 
51120 
51120 
51107 
51082 
51102 
51128 
51085 
51062 
51038 
51031 
51094 
51177 
51213 
51227 
51219 
51206 
51257 
51280 
51269 
51254 
51293 
51296 
51344 
51355 
51314 
51249 
51225 
51192 
51178 
51214 
51181 
51152 
51125 
51080 
51062 
51014 
50944 
50877 
50795 
50706 
50569 
50399 
50246 
50108 
49965 
49842 
49698 
49524 
49388 
49221 
49069 
48927 
48758 
48599 
48497 
48347 
48208 
48114 
47971 
47852 
47806 
47737 
47662 
47576 
47447 
47320 
47270 
47245 
47248 
47215 
47144 
47152 
47162 
47167 
47168 
47137 
47126 
47191 
47276 
47334 
47342 
47429 
47512 
47507 
47552 
47618 
47670 
47703 
47778 
47851 
47880 
47953 
47972 
47985 
48044 
48152 
48267 
48298 
48374 
48409 
48500 
48537 
48558 
48639 
48730 
48793 
48827 
48881 
48995 
49053 
49085 
49109 
49139 
49163 
49178 
49244 
49325 
49366 
49461 
49605 
49696 
49731 
49759 
49790 
49806 
49861 
49944 
49960 
49970 
49987 
49991 
50001 
50037 
50055 
50094 
50105 
50126 
50177 
50206 
50184 
50178 
50184 
50209 
50201 
50145 
50115 
50163 
50213 
50157 
50139 
50176 
50191 
50194 
50179 
50154 
50118 
50123 
50165 
50201 
50216 
50240 
50265 
50301 
50372 
50415 
50462 
50481 
50453 
50456 
50474 
50446 
50459 
50464 
50462 
50461 
50458 
50485 
50545 
50534 
50534 
50573 
50624 
50623 
50604 
50619 
50652 
50680 
50679 
50670 
50641 
50645 
50663 
50652 
50719 
50713 
50688 
50734 
50760 
50717 
50711 
50714 
50717 
50718 
50710 
50731 
50717 
50709 
50692 
50659 
50625 
50599 
50631 
50629 
50622 
50598 
50567 
50552 
50496 
50475 
50504 
50410 
50323 
50314 
50318 
50275 
50240 
50232 
50200 
50196 
50171 
50086 
50015 
49982 
49985 
50009 
49974 
49882 
49767 
49658 
49565 
49464 
49394 
49313 
49270 
49276 
49227 
49172 
49128 
49103 
49079 
49021 
48967 
48931 
48891 
48875 
48925 
48939 
48887 
48847 
48782 
48741 
48766 
48791 
48816 
48760 
48649 
48601 
48595 
48622 
48684 
48742 
48714 
48660 
48651 
48681 
48644 
48614 
48585 
48587 
48539 
48534 
48542 
48548 
48557 
48506 
48481 
48538 
48568 
48597 
48602 
48630 
48633 
48682 
48779 
48800 
48819 
48850 
48887 
48982 
49088 
49154 
49200 
49241 
49287 
49361 
49440 
49556 
49657 
49699 
49780 
49884 
49911 
49970 
50026 
50059 
50117 
50166 
50216 
50204 
50224 
50236 
50202 
50174 
50201 
50270 
50297 
50342 
50322 
50336 
50358 
50408 
50433 
50478 
50498 
50548 
50616 
50653 
50686 
50654 
50643 
50605 
50610 
50646 
50704 
50725 
50736 
50724 
50670 
50615 
50653 
50743 
50712 
50679 
50681 
50704 
50669 
50669 
50708 
50746 
50762 
50802 
50808 
50787 
50762 
50744 
50783 
50809 
50859 
50931 
50939 
50894 
50885 
50971 
51014 
51048 
51084 
51072 
51098 
51166 
51164 
51142 
51183 
51216 
51213 
51191 
51135 
51125 
51173 
51116 
51104 
51130 
51108 
51115 
51119 
51093 
50988 
50975 
50980 
50911 
50850 
50841 
50836 
50785 
50728 
50709 
50667 
50590 
50558 
50546 
50552 
50527 
50494 
50472 
50424 
50396 
50412 
50404 
50389 
50337 
50326 
50328 
50322 
50314 
50367 
50400 
50427 
50380 
50357 
50321 
50307 
50317 
50301 
50302 
50323 
50296 
50297 
50305 
50315 
50316 
50246 
50156 
50108 
50077 
49999 
49991 
50026 
50071 
50092 
50099 
50160 
50124 
50089 
50136 
50150 
50202 
50205 
50187 
50149 
50135 
50144 
50157 
50176 
50223 
50249 
50259 
50275 
50322 
50329 
50343 
50373 
50392 
50372 
50373 
50402 
50406 
50404 
50466 
50511 
50512 
50566 
50606 
50621 
50582 
50472 
50426 
50388 
50435 
50509 
50536 
50502 
50502 
50502 
50533 
50594 
50563 
50519 
50523 
50541 
50558 
50551 
50488 
50501 
50548 
50546 
50611 
50647 
50606 
50549 
50593 
50612 
50619 
50586 
50558 
50618 
50692 
50733 
50717 
50678 
50640 
50633 
50638 
50665 
50688 
50783 
50806 
50799 
50805 
50799 
50777 
50799 
50823 
50845 
50852 
50798 
50801 
50868 
50923 
50966 
50991 
51040 
51055 
51079 
51085 
51147 
51155 
51149 
51107 
51063 
51015 
50994 
50951 
50983 
50966 
50983 
51027 
51038 
51013 
50985 
50949 
50949 
50945 
50922 
50853 
50859 
50901 
50896 
50930 
50913 
50843 
50798 
50786 
50815 
50789 
50745 
50699 
50713 
50750 
50770 
50848 
50856 
50822 
50800 
50772 
50756 
50756 
50714 
50699 
50679 
50700 
50731 
50697 
50643 
50642 
50659 
50636 
50604 
50563 
50553 
50550 
50518 
50526 
50550 
50515 
50502 
50478 
50479 
50466 
50403 
50351 
50333 
50305 
50277 
50281 
50279 
50266 
50276 
50257 
50189 
50163 
50196 
50212 
50172 
50184 
50238 
50275 
50320 
50321 
50261 
50281 
50234 
50169 
50203 
50271 
50297 
50303 
50250 
50245 
50247 
50247 
50178 
50136 
50121 
50112 
50121 
50139 
50091 
50105 
50140 
50140 
50103 
50122 
50183 
50190 
50189 
50224 
50246 
50270 
50303 
50280 
50243 
50237 
50213 
50212 
50189 
50140 
50171 
50215 
50287 
50353 
50307 
50309 
50304 
50267 
50229 
50231 
50289 
50279 
50246 
50207 
50234 
50251 
50257 
50237 
50155 
50136 
50145 
50166 
50182 
50206 
50234 
50181 
50225 
50263 
50267 
50194 
50255 
50350 
50313 
50267 
50245 
50220 
50194 
50212 
50273 
50270 
50292 
50307 
50337 
50409 
50439 
50397 
50402 
50446 
50441 
50415 
50463 
50493 
50500 
50519 
50526 
50447 
50408 
50445 
50453 
50383 
50334 
50314 
50351 
50352 
50361 
50404 
50406 
50441 
50488 
50477 
50470 
50439 
50375 
50396 
50373 
50317 
50322 
50347 
50296 
50278 
50332 
50370 
50361 
50320 
50309 
50314 
50255 
50217 
50207 
50192 
50180 
50135 
50120 
50114 
50126 
50126 
50141 
50153 
50119 
50111 
50132 
50165 
50182 
50208 
50189 
50174 
50129 
50106 
50121 
50143 
50150 
50107 
50062 
50063 
50109 
50102 
50056 
50061 
50079 
50063 
50051 
50049 
50045 
50027 
50051 
50063 
50016 
49987 
49969 
49918 
49963 
50015 
50006 
50031 
50067 
50041 
50056 
50039 
50014 
49976 
49993 
50020 
50023 
50056 
50021 
49992 
50027 
50064 
50086 
50080 
50059 
50087 
50061 
49985 
49988 
50034 
50060 
50048 
50050 
50098 
50126 
50112 
50117 
50136 
50137 
50156 
50200 
50236 
50234 
50234 
50225 
50217 
50237 
50251 
50272 
50247 
50245 
50247 
50228 
50176 
50151 
50121 
50077 
50064 
50058 
50037 
50017 
49988 
49985 
49997 
50026 
50080 
50127 
50104 
50083 
50123 
50095 
50099 
50103 
50079 
50062 
50037 
50037 
50040 
50046 
50077 
50167 
50191 
50144 
50087 
50080 
50072 
50047 
49997 
49966 
49985 
49990 
50021 
50091 
50103 
50122 
50129 
50093 
50095 
50075 
50018 
49993 
50010 
50055 
50045 
50028 
50021 
50021 
50002 
49965 
49936 
49898 
49860 
49830 
49830 
49818 
49817 
49817 
49801 
49779 
49777 
49735 
49719 
49753 
49754 
49800 
49890 
49860 
49844 
49912 
49907 
49888 
49904 
49858 
49813 
49813 
49838 
49828 
49800 
49803 
49777 
49720 
49684 
49702 
49695 
49666 
49661 
49700 
49708 
49693 
49683 
49672 
49670 
49658 
49617 
49561 
49582 
49592 
49633 
49715 
49687 
49689 
49683 
49675 
49715 
49670 
49686 
49703 
49666 
49632 
49648 
49633 
49597 
49564 
49516 
49544 
49583 
49632 
49697 
49682 
49625 
49584 
49546 
49579 
49659 
49650 
49595 
49531 
49477 
49461 
49477 
49527 
49665 
49683 
49633 
49629 
49613 
49605 
49580 
49536 
49511 
49476 
49458 
49500 
49498 
49534 
49562 
49538 
49492 
49518 
49517 
49530 
49538 
49586 
49617 
49609 
49624 
49633 
49673 
49681 
49609 
49597 
49582 
49514 
49452 
49436 
49506 
49494 
49424 
49437 
49422 
49371 
49374 
49395 
49401 
49408 
49396 
49414 
49405 
49367 
49369 
49432 
49457 
49455 
49465 
49477 
49521 
49561 
49530 
49497 
49461 
49515 
49549 
49580 
49592 
49617 
49673 
49729 
49715 
49689 
49686 
49645 
49649 
49607 
49570 
49569 
49605 
49615 
49621 
49632 
49658 
49698 
49715 
49678 
49614 
49609 
49609 
49584 
49561 
49606 
49574 
49488 
49487 
49507 
49470 
49446 
49476 
49496 
49439 
49415 
49425 
49427 
49429 
49417 
49387 
49378 
49409 
49451 
49458 
49494 
49527 
49594 
49622 
49609 
49556 
49525 
49523 
49542 
49549 
49541 
49503 
49537 
49532 
49502 
49480 
49450 
49465 
49422 
49417 
49434 
49426 
49388 
49344 
49369 
49413 
49450 
49483 
49479 
49462 
49412 
49411 
49402 
49341 
49280 
49251 
49257 
49320 
49301 
49324 
49359 
49374 
49360 
49321 
49345 
49365 
49371 
49390 
49395 
49442 
49478 
49458 
49439 
49408 
49359 
49296 
49294 
49315 
49331 
49333 
49356 
49345 
49312 
49291 
49303 
49350 
49400 
49426 
49447 
49486 
49517 
49554 
49554 
49526 
49508 
49539 
49550 
49527 
49517 
49506 
49562 
49579 
49614 
49582 
49495 
49452 
49512 
49524 
49571 
49611 
49623 
49603 
49570 
49579 
49593 
49546 
49587 
49626 
49610 
49573 
49587 
49621 
49640 
49637 
49635 
49630 
49593 
49637 
49647 
49641 
49658 
49664 
49640 
49612 
49660 
49697 
49655 
49653 
49693 
49706 
49693 
49660 
49651 
49684 
49698 
49640 
49624 
49645 
49693 
49728 
49715 
49724 
49747 
49808 
49863 
49907 
49849 
49847 
49871 
49845 
49802 
49815 
49870 
49861 
49810 
49806 
49817 
49841 
49804 
49760 
49757 
49756 
49742 
49726 
49644 
49614 
49673 
49703 
49706 
49704 
49699 
49665 
49611 
49590 
49640 
49700 
49661 
49633 
49652 
49708 
49721 
49700 
49656 
49681 
49713 
49767 
49795 
49796 
49829 
49865 
49888 
49865 
49802 
49813 
49836 
49851 
49793 
49788 
49817 
49835 
49904 
49900 
49902 
49881 
49856 
49836 
49816 
49754 
49736 
49714 
49624 
49595 
49584 
49549 
49592 
49571 
49517 
49447 
49398 
49449 
49534 
49544 
49509 
49496 
49488 
49479 
49465 
49417 
49391 
49373 
49378 
49375 
49403 
49419 
49406 
49344 
49294 
49287 
49254 
49296 
49317 
49296 
49265 
49273 
49258 
49253 
49279 
49323 
49392 
49413 
49363 
49302 
49259 
49264 
49239 
49199 
49230 
49333 
49434 
49476 
49474 
49464 
49453 
49412 
49358 
49387 
49443 
49508 
49571 
49589 
49640 
49576 
49503 
49504 
49486 
49502 
49548 
49494 
49443 
49502 
49518 
49481 
49482 
49473 
49479 
49513 
49511 
49478 
49414 
49390 
49360 
49381 
49439 
49440 
49441 
49445 
49414 
49382 
49357 
49334 
49385 
49417 
49396 
49396 
49430 
49480 
49522 
49567 
49546 
49501 
49465 
49489 
49480 
49477 
49479 
49472 
49473 
49531 
49521 
49508 
49491 
49502 
49480 
49523 
49576 
49563 
49478 
49439 
49466 
49489 
49499 
49511 
49537 
49550 
49507 
49488 
49429 
49423 
49456 
49506 
49547 
49536 
49525 
49543 
49587 
49614 
49569 
49601 
49630 
49650 
49620 
49635 
49611 
49554 
49540 
49589 
49636 
49636 
49620 
49616 
49644 
49679 
49690 
49699 
49685 
49589 
49595 
49622 
49605 
49625 
49631 
49665 
49656 
49577 
49507 
49455 
49439 
49458 
49468 
49495 
49533 
49548 
49550 
49493 
49447 
49439 
49470 
49488 
49494 
49477 
49464 
49439 
49427 
49400 
49391 
49394 
49450 
49465 
49488 
49535 
49513 
49498 
49494 
49471 
49465 
49485 
49456 
49446 
49482 
49464 
49438 
49451 
49460 
49481 
49540 
49564 
49527 
49471 
49462 
49477 
49466 
49424 
49426 
49474 
49488 
49497 
49568 
49660 
49699 
49653 
49677 
49684 
49662 
49632 
49624 
49655 
49695 
49705 
49697 
49745 
49782 
49808 
49815 
49787 
49725 
49699 
49725 
49718 
49655 
49571 
49576 
49631 
49667 
49675 
49647 
49623 
49637 
49675 
49685 
49677 
49696 
49704 
49693 
49692 
