43777 
43930 
44046 
44159 
44309 
44397 
44460 
44566 
44739 
44882 
44941 
45027 
45080 
45110 
45176 
45238 
45335 
45421 
45454 
45510 
45571 
45647 
45743 
45801 
45884 
45937 
45929 
45984 
46029 
46071 
46133 
46226 
46236 
46271 
46354 
46391 
46393 
46388 
46434 
46460 
46458 
46518 
46578 
46592 
46666 
46661 
46594 
46576 
46536 
46544 
46602 
46620 
46572 
46549 
46616 
46635 
46639 
46698 
46752 
46678 
46671 
46663 
46642 
46654 
46697 
46687 
46642 
46666 
46707 
46695 
46729 
46769 
46798 
46803 
46772 
46756 
46690 
46661 
46710 
46750 
46857 
46921 
46920 
46884 
46845 
46816 
46810 
46843 
46827 
46847 
46912 
46895 
46898 
46914 
46950 
46925 
46876 
46846 
46863 
46873 
46892 
46912 
46947 
46947 
46959 
46965 
46973 
46966 
46954 
46935 
46884 
46874 
46893 
46933 
46937 
46922 
46958 
46964 
46962 
46977 
47024 
47007 
47001 
46976 
46981 
46954 
46868 
46712 
46566 
46386 
46201 
45997 
45741 
45408 
45072 
44790 
44523 
44235 
43966 
43747 
43500 
43332 
43172 
42990 
42798 
42658 
42557 
42495 
42413 
42351 
42242 
42160 
42074 
42015 
42005 
42030 
42043 
42037 
42059 
42135 
42148 
42167 
42242 
42284 
42325 
42407 
42616 
42776 
42860 
42934 
43017 
43093 
43183 
43272 
43400 
43523 
43661 
43781 
43905 
44008 
44128 
44235 
44323 
44432 
44537 
44669 
44800 
44870 
44966 
45061 
45185 
45234 
45229 
45305 
45374 
45433 
45520 
45596 
45695 
45742 
45788 
45902 
45929 
45943 
46054 
46098 
46149 
46167 
46185 
46192 
46199 
46156 
46136 
46224 
46308 
46352 
46364 
46347 
46338 
46330 
46323 
46323 
46355 
46382 
46423 
46404 
46421 
46448 
46431 
46399 
46388 
46448 
46502 
46512 
46527 
46476 
46406 
46398 
46434 
46457 
46493 
46474 
46446 
46412 
46425 
46456 
46486 
46503 
46562 
46586 
46584 
46607 
46619 
46673 
46714 
46693 
46664 
46631 
46632 
46675 
46776 
46781 
46824 
46877 
46880 
46880 
46923 
46965 
46985 
46997 
47001 
46994 
47002 
46981 
46992 
47029 
47047 
47063 
47060 
47122 
47165 
47194 
47200 
47175 
47150 
47133 
47187 
47148 
47102 
47138 
47133 
47105 
47083 
47114 
47172 
47150 
47178 
47195 
47201 
47176 
47158 
47125 
47075 
46943 
46711 
46549 
46413 
46115 
45769 
45487 
45234 
44920 
44623 
44375 
44087 
43784 
43514 
43299 
43133 
42992 
42797 
42615 
42541 
42417 
42309 
42192 
42079 
42074 
42074 
42029 
42004 
41997 
41980 
42001 
42058 
42133 
42204 
42229 
42290 
42344 
42420 
42513 
42571 
42644 
42740 
42837 
42935 
43081 
43164 
43273 
43379 
43538 
43644 
43753 
43863 
43956 
44052 
44228 
44355 
44454 
44621 
44765 
44857 
44935 
45003 
45098 
45211 
45316 
45417 
45526 
45592 
45638 
45717 
45786 
45789 
45849 
45874 
45844 
45870 
45946 
46009 
46043 
46044 
46087 
46114 
46114 
46136 
46111 
46096 
46092 
46114 
46089 
46095 
46145 
46165 
46163 
46208 
46281 
46274 
46306 
46376 
46379 
46346 
46347 
46378 
46379 
46350 
46369 
46422 
46429 
46464 
46474 
46435 
46402 
46482 
46539 
46576 
46561 
46548 
46611 
46632 
46627 
46688 
46671 
46633 
46621 
46617 
46650 
46733 
46747 
46741 
46703 
46705 
46754 
46820 
46900 
46918 
46967 
46982 
46907 
46860 
46899 
46976 
47026 
47102 
47115 
47129 
47197 
47252 
47262 
47245 
47235 
47262 
47273 
47292 
47339 
47326 
47289 
47243 
47272 
47340 
47286 
47219 
47209 
47162 
47161 
47180 
47179 
47210 
47277 
47376 
47383 
47382 
47419 
47416 
47417 
47438 
47444 
47397 
47384 
47429 
47400 
47297 
47207 
47032 
46867 
46706 
46476 
46157 
45789 
45423 
45096 
44776 
44521 
44248 
43978 
43741 
43467 
43235 
43039 
42901 
42775 
42617 
42471 
42366 
42254 
42159 
42106 
42052 
42061 
42019 
41996 
41953 
41893 
41927 
41963 
41987 
42026 
42064 
42118 
42214 
42359 
42461 
42514 
42619 
42763 
42908 
42998 
43076 
43159 
43237 
43349 
43524 
43705 
43879 
44044 
44143 
44225 
44331 
44546 
44716 
44885 
44969 
45030 
45144 
45264 
45380 
45427 
45474 
45542 
45652 
45726 
45759 
45780 
45803 
45893 
45976 
46025 
46125 
46204 
46253 
46286 
46291 
46340 
46383 
46365 
46392 
46431 
46438 
46422 
46408 
46346 
46316 
46339 
46371 
46387 
46384 
46402 
46379 
46346 
46322 
46314 
46309 
46329 
46388 
46411 
46378 
46345 
46330 
46302 
46310 
46359 
46376 
46413 
46445 
46484 
46542 
46542 
46533 
46620 
46655 
46664 
46651 
46680 
46737 
46777 
46808 
46847 
46903 
46930 
46886 
46903 
46984 
46993 
46997 
47050 
47041 
47039 
47020 
46989 
47005 
47059 
47129 
47174 
47195 
47225 
47236 
47236 
47261 
47298 
47344 
47406 
47405 
47363 
47377 
47382 
47410 
47416 
47386 
47372 
47406 
47460 
47505 
47498 
47516 
47517 
47480 
47468 
47445 
47424 
47420 
47443 
47463 
47467 
47490 
47520 
47534 
47539 
47562 
47572 
47554 
47534 
47530 
47486 
47448 
47423 
47406 
47347 
47235 
47038 
46797 
46516 
46172 
45863 
45583 
45199 
44816 
44503 
44250 
43997 
43792 
43555 
43317 
43073 
42871 
42687 
42515 
42327 
42176 
42048 
41964 
41940 
41938 
41937 
41925 
41907 
41936 
41955 
41932 
41922 
41998 
42046 
42067 
42117 
42188 
42299 
42413 
42464 
42497 
42604 
42730 
42820 
42886 
42995 
43157 
43352 
43504 
43622 
43724 
43834 
43943 
44044 
44201 
44360 
44481 
44604 
44729 
44862 
44966 
45131 
45292 
45379 
45476 
45557 
45601 
45659 
45722 
45795 
45897 
45984 
46080 
46108 
46085 
46050 
46054 
46117 
46176 
46211 
46182 
46110 
46124 
46139 
46157 
46165 
46148 
46117 
46121 
46122 
46105 
46080 
46047 
46038 
46018 
46009 
46088 
46119 
46150 
46171 
46182 
46171 
46158 
46183 
46226 
46275 
46287 
46287 
46271 
46293 
46328 
46338 
46413 
46441 
46481 
46527 
46621 
46611 
46593 
46645 
46676 
46745 
46789 
46762 
46765 
46856 
46928 
46966 
46992 
47014 
47040 
47011 
47056 
47149 
47178 
47176 
47219 
47247 
47260 
47268 
47319 
47350 
47407 
47452 
47473 
47457 
47467 
47507 
47546 
47587 
47601 
47603 
47571 
47603 
47636 
47622 
47624 
47643 
47692 
47761 
47776 
47730 
47686 
47675 
47720 
47807 
47830 
47891 
47901 
47868 
47823 
47822 
47810 
47776 
47725 
47638 
47567 
47490 
47377 
47265 
47164 
46926 
46563 
46234 
45913 
45590 
45268 
44923 
44643 
44369 
44068 
43771 
43525 
43278 
43087 
42909 
42672 
42560 
42447 
42317 
42244 
42188 
42142 
42077 
42059 
42111 
42244 
42303 
42317 
42408 
42568 
42784 
42957 
43151 
43345 
43473 
43615 
43839 
44057 
44241 
44470 
44692 
44906 
45100 
45258 
45439 
45696 
45946 
46216 
46481 
46729 
46976 
47175 
47453 
47688 
47865 
48042 
48218 
48433 
48652 
48826 
48981 
49151 
49328 
49409 
49525 
49723 
49842 
49945 
50036 
50099 
50135 
50150 
50201 
50245 
50240 
50212 
50154 
50129 
50122 
50163 
50222 
50267 
50253 
50228 
50171 
50125 
50131 
50098 
50059 
50061 
50095 
50076 
50007 
49933 
49930 
49923 
49924 
49888 
49871 
49877 
49894 
49917 
49878 
49882 
49881 
49836 
49827 
49888 
49943 
49920 
49984 
50024 
50056 
50099 
50136 
50153 
50152 
50211 
50284 
50287 
50328 
50368 
50404 
50490 
50478 
50459 
50470 
50525 
50550 
50551 
50589 
50618 
50633 
50630 
50606 
50550 
50581 
50628 
50610 
50611 
50623 
50683 
50699 
50684 
50658 
50619 
50633 
50585 
50531 
50487 
50447 
50447 
50451 
50464 
50467 
50461 
50426 
50362 
50331 
50311 
50272 
50186 
50138 
50139 
50123 
50089 
50008 
49900 
49847 
49819 
49796 
49710 
49598 
49442 
49248 
49033 
48813 
48563 
48297 
47994 
47650 
47292 
46924 
46563 
46191 
45821 
45414 
45004 
44605 
44174 
43756 
43361 
42964 
42622 
42350 
42143 
41950 
41773 
41567 
41376 
41186 
41017 
40906 
40845 
40786 
40767 
40764 
40839 
40909 
40907 
40926 
41012 
41072 
41160 
41274 
41385 
41464 
41588 
41792 
41994 
42100 
42197 
42317 
42465 
42681 
42889 
43067 
43220 
43355 
43519 
43681 
43823 
43980 
44101 
44233 
44392 
44587 
44747 
44863 
45003 
45138 
45207 
45286 
45320 
45323 
45355 
45335 
45273 
45285 
45269 
45236 
45182 
45118 
45099 
45123 
45116 
45097 
45047 
45052 
45082 
45039 
44949 
44945 
44974 
44912 
44883 
44857 
44786 
44746 
44702 
44652 
44657 
44719 
44714 
44766 
44818 
44800 
44771 
44750 
44725 
44702 
44746 
44757 
44744 
44773 
44755 
44797 
44797 
44805 
44883 
44949 
45010 
45054 
45105 
45155 
45120 
45094 
45145 
45222 
45204 
45214 
45297 
45337 
45377 
45450 
45507 
45527 
45526 
45584 
45629 
45614 
45614 
45661 
45773 
45855 
45871 
45878 
45930 
45982 
46004 
45982 
45937 
45943 
45942 
45932 
45924 
45930 
45970 
45961 
45934 
45931 
45929 
45974 
45966 
45979 
45977 
45979 
46015 
45975 
45940 
45871 
45890 
45903 
45916 
45926 
45900 
45843 
45699 
45545 
45390 
45209 
44946 
44647 
44384 
44147 
43866 
43512 
43066 
42717 
42393 
42047 
41688 
41356 
41027 
40741 
40425 
40116 
39774 
39493 
39271 
39026 
38879 
38741 
38558 
38422 
38370 
38325 
38244 
38219 
38211 
38252 
38328 
38344 
38338 
38405 
38480 
38568 
38615 
38679 
38766 
38885 
38997 
39150 
39272 
39364 
39490 
39653 
39832 
39981 
40151 
40336 
40524 
40701 
40896 
41101 
41273 
41443 
41585 
41737 
41905 
42013 
42124 
42236 
42396 
42544 
42621 
42685 
42800 
42923 
43016 
43069 
43102 
43139 
43131 
43126 
43113 
43097 
43059 
43017 
42966 
42921 
42912 
42908 
42886 
42881 
42900 
42897 
42814 
42759 
42771 
42716 
42647 
42636 
42661 
42655 
42653 
42614 
42612 
42544 
42516 
42517 
42462 
42471 
42490 
42530 
42561 
42568 
42577 
42607 
42655 
42710 
42753 
42785 
42868 
42960 
42999 
43050 
43108 
43166 
43211 
43225 
43306 
43373 
43403 
43414 
43396 
43415 
43410 
43433 
43485 
43561 
43685 
43771 
43773 
43753 
43793 
43850 
43896 
43893 
43878 
43942 
43973 
43982 
43988 
44032 
44122 
44151 
44122 
44102 
44140 
44218 
44214 
44198 
44203 
44206 
44225 
44260 
44256 
44274 
44312 
44328 
44306 
44293 
44324 
44354 
44332 
44275 
44217 
44134 
44114 
44111 
44104 
44146 
44092 
43913 
43724 
43578 
43432 
43237 
42958 
42627 
42288 
41908 
41488 
41080 
40669 
40286 
39950 
39611 
39291 
38985 
38650 
38415 
38182 
37946 
37703 
37466 
37273 
37104 
36943 
36819 
36707 
36600 
36518 
36468 
36463 
36432 
36475 
36523 
36534 
36572 
36654 
36720 
36844 
36963 
37055 
37192 
37296 
37411 
37532 
37690 
37872 
38007 
38156 
38260 
38392 
38568 
38783 
39041 
39301 
39434 
39592 
39808 
40033 
40200 
40367 
40572 
40733 
40856 
40996 
41140 
41256 
41401 
41575 
41673 
41751 
41874 
41947 
41981 
42014 
42071 
42083 
42083 
42095 
42083 
42063 
42050 
42069 
42040 
42010 
42103 
42139 
42116 
42060 
42010 
41974 
41934 
41929 
41965 
41939 
41905 
41946 
41988 
42035 
42063 
42121 
42184 
42187 
42187 
42217 
42270 
42278 
42254 
42294 
42338 
42367 
42423 
42507 
42566 
42630 
42677 
42676 
42705 
42750 
42807 
42895 
42948 
43006 
43115 
43220 
43220 
43232 
43290 
43358 
43463 
43495 
43552 
43622 
43693 
43746 
43757 
43757 
43782 
43787 
43822 
43844 
43862 
43879 
43952 
44000 
43992 
44013 
44043 
44114 
44125 
44137 
44138 
44119 
44103 
44113 
44150 
44209 
44232 
44218 
44172 
44164 
44162 
44202 
44253 
44233 
44218 
44232 
44236 
44276 
44286 
44269 
44266 
44283 
44295 
44297 
44270 
44201 
44201 
44171 
44107 
43975 
43815 
43665 
43431 
43146 
42863 
42510 
42121 
41800 
41440 
41069 
40751 
40447 
40079 
39719 
39365 
39053 
38782 
38533 
38249 
37955 
37722 
37556 
37402 
37273 
37194 
37148 
37066 
37031 
37026 
37040 
37047 
37024 
37055 
37142 
37245 
37353 
37450 
37591 
37728 
37863 
38045 
38227 
38392 
38512 
38662 
38830 
39012 
39201 
39399 
39563 
39739 
39915 
40036 
40226 
40453 
40652 
40774 
40911 
41117 
41360 
41510 
41601 
41745 
41906 
42065 
42184 
42302 
42366 
42417 
42462 
42438 
42478 
42554 
42504 
42534 
42591 
42603 
42605 
42663 
42695 
42698 
42678 
42650 
42654 
42623 
42629 
42632 
42653 
42608 
42569 
42515 
42454 
42443 
42386 
42330 
42276 
42272 
42317 
42294 
42268 
42238 
42211 
42220 
42236 
42234 
42279 
42344 
42369 
42341 
42313 
42361 
42391 
42428 
42436 
42421 
42417 
42455 
42467 
42487 
42518 
42534 
42578 
42645 
42734 
42774 
42778 
42826 
42878 
42922 
42920 
42960 
43017 
43050 
43069 
43126 
43231 
43328 
43367 
43320 
43356 
43407 
43426 
43436 
43506 
43560 
43577 
43576 
43538 
43502 
43502 
43535 
43602 
43644 
43677 
43716 
43734 
43736 
43751 
43730 
43666 
43620 
43575 
43590 
43652 
43682 
43680 
43663 
43629 
43596 
43543 
43502 
43339 
43160 
43009 
42767 
42478 
42169 
41887 
41565 
41184 
40880 
40536 
40174 
39820 
39459 
39094 
38763 
38431 
38071 
37722 
37420 
37135 
36862 
36638 
36438 
36296 
36183 
36098 
36043 
35947 
35848 
35761 
35707 
35703 
35723 
35813 
35856 
35878 
35940 
35955 
36037 
36207 
36327 
36394 
36503 
36621 
36787 
36976 
37133 
37252 
37419 
37634 
37882 
38092 
38285 
38482 
38739 
38979 
39132 
39331 
39535 
39696 
39854 
39953 
40063 
40211 
40344 
40453 
40540 
40608 
40670 
40757 
40884 
40963 
40987 
40962 
40912 
40895 
40891 
40855 
40844 
40887 
40903 
40861 
40793 
40732 
40683 
40630 
40578 
40540 
40508 
40507 
40443 
40375 
40372 
40333 
40344 
40352 
40355 
40376 
40424 
40457 
40408 
40356 
40381 
40394 
40393 
40420 
40466 
40562 
40655 
40682 
40687 
40706 
40802 
40889 
40874 
40809 
40853 
40957 
41028 
41055 
41115 
41117 
41097 
41113 
41090 
41089 
41167 
41212 
41243 
41313 
41366 
41395 
41472 
41555 
41557 
41550 
41624 
41756 
41803 
41847 
41835 
41854 
41949 
41988 
41957 
41978 
42020 
42083 
42083 
42050 
42025 
42030 
42024 
42041 
42044 
42044 
42083 
42160 
42147 
42090 
42020 
42049 
42059 
42117 
42124 
42043 
41985 
41940 
41902 
41898 
41836 
41674 
41475 
41231 
40988 
40736 
40476 
40167 
39821 
39461 
39093 
38700 
38285 
37909 
37574 
37239 
36866 
36529 
36221 
35887 
35662 
35438 
35186 
34943 
34778 
34595 
34420 
34300 
34223 
34180 
34113 
34099 
34104 
34069 
34080 
34100 
34165 
34231 
34252 
34334 
34464 
34566 
34693 
34810 
34945 
35096 
35215 
35363 
35498 
35679 
35845 
36008 
36210 
36468 
36696 
36872 
37020 
37128 
37299 
37557 
37862 
38107 
38249 
38344 
38387 
38482 
38662 
38891 
39032 
39139 
39271 
39364 
39489 
39617 
39689 
39701 
39727 
39724 
39734 
39757 
39750 
39743 
39820 
39818 
39793 
39792 
39801 
39765 
39673 
39589 
39610 
39642 
39615 
39612 
39645 
39680 
39739 
39734 
39759 
39746 
39745 
39793 
39820 
39809 
39871 
39932 
39963 
40027 
40086 
40168 
40234 
40256 
40285 
40332 
40439 
40495 
40552 
40640 
40730 
40789 
40867 
40950 
40965 
40955 
41008 
41065 
41098 
41077 
41114 
41209 
41253 
41276 
41327 
41348 
41381 
41476 
41580 
41681 
41728 
41780 
41832 
41885 
41893 
41941 
42042 
42106 
42109 
42097 
42106 
42164 
42221 
42221 
42247 
42267 
42232 
42174 
42188 
42252 
42233 
42217 
42229 
42203 
42171 
42117 
42114 
42139 
42124 
42093 
42025 
42017 
41981 
41949 
41918 
41830 
41683 
41532 
41334 
41000 
40682 
40353 
39989 
39622 
39316 
38966 
38585 
38219 
37860 
37470 
37091 
36742 
36409 
36072 
35810 
35575 
35376 
35156 
34996 
34867 
34741 
34639 
34538 
34445 
34381 
34352 
34319 
34346 
34388 
34417 
34465 
34513 
34558 
34714 
34891 
35059 
35202 
35355 
35489 
35626 
35746 
35848 
35984 
36137 
36304 
36487 
36698 
36843 
36999 
37223 
37405 
37546 
37687 
37842 
38015 
38205 
38314 
38455 
38594 
38729 
38841 
38905 
38996 
39106 
39205 
39330 
39394 
39451 
39483 
39461 
39464 
39478 
39429 
39391 
39389 
39379 
39358 
39306 
39206 
39191 
39160 
39146 
39145 
39096 
39075 
39025 
38981 
38954 
38920 
38928 
38917 
38902 
38899 
38845 
38832 
38837 
38824 
38864 
38835 
38768 
38776 
38842 
38871 
38887 
38917 
38991 
39021 
39034 
39114 
39215 
39319 
39341 
39384 
39496 
39521 
39571 
39673 
39758 
39768 
39817 
39876 
39897 
39927 
39998 
40083 
40172 
40200 
40205 
40246 
40294 
40328 
40389 
40396 
40380 
40429 
40523 
40600 
40620 
40664 
40715 
40791 
40795 
40794 
40798 
40864 
40961 
40989 
40995 
41060 
41045 
41009 
41052 
41032 
41025 
41096 
41128 
41167 
41185 
41160 
41142 
41158 
41165 
41134 
41061 
41056 
41048 
40944 
40898 
40871 
40841 
40753 
40621 
40488 
40294 
40037 
39766 
39515 
39233 
38903 
38556 
38218 
37927 
37607 
37244 
36841 
36480 
36184 
35854 
35522 
35177 
34856 
34581 
34390 
34246 
34045 
33834 
33709 
33619 
33489 
33436 
33388 
33376 
33391 
33397 
33383 
33413 
33484 
33599 
33696 
33811 
33977 
34141 
34234 
34352 
34502 
34678 
34820 
34934 
35112 
35266 
35465 
35690 
35914 
36165 
36416 
36607 
36807 
37000 
37162 
37409 
37664 
37862 
37976 
38026 
38157 
38326 
38525 
38650 
38819 
39011 
39171 
39260 
39366 
39452 
39518 
39538 
39609 
39660 
39663 
39637 
39643 
39655 
39676 
39635 
39595 
39586 
39523 
39460 
39444 
39386 
39381 
39400 
39439 
39452 
39424 
39404 
39392 
39478 
39546 
39535 
39547 
39530 
39530 
39528 
39581 
39632 
39663 
39698 
39744 
39786 
39844 
39955 
40054 
40093 
40170 
40211 
40217 
40237 
40309 
40403 
40457 
40510 
40564 
40627 
40685 
40708 
40749 
40799 
40820 
40798 
40798 
40899 
41009 
41049 
41094 
41171 
41234 
41274 
41382 
41509 
41545 
41524 
41512 
41518 
41529 
41581 
41601 
41671 
41764 
41778 
41715 
41674 
41666 
41668 
41754 
41807 
41842 
41858 
41843 
41877 
41932 
41956 
41949 
41936 
41910 
41856 
41859 
41868 
41865 
41838 
41802 
41770 
41772 
41767 
41770 
41774 
41731 
41629 
41497 
41339 
41237 
41085 
40841 
40524 
40206 
39889 
39570 
39285 
38922 
38538 
38179 
37767 
37410 
37103 
36766 
36422 
36110 
35823 
35528 
35265 
35005 
34807 
34697 
34576 
34500 
34355 
34268 
34179 
34103 
34054 
34024 
34017 
34030 
34136 
34273 
34339 
34417 
34453 
34567 
34738 
34875 
35002 
35161 
35300 
35463 
35648 
35801 
36021 
36278 
36466 
36585 
36766 
36962 
37101 
37271 
37442 
37641 
37910 
38159 
38331 
38488 
38637 
38831 
38985 
39081 
39136 
39276 
39445 
39521 
39572 
39640 
39645 
39655 
39728 
39792 
39848 
39841 
39823 
39806 
39806 
39809 
39775 
39795 
39759 
39767 
39762 
39749 
39743 
39724 
39680 
39665 
39703 
39745 
39808 
39826 
39836 
39809 
39765 
39726 
39731 
39759 
39797 
39774 
39752 
39787 
39831 
39849 
39899 
39921 
39928 
39944 
39948 
40012 
40110 
40209 
40246 
40308 
40352 
40353 
40412 
40438 
40466 
40560 
40650 
40673 
40760 
40830 
40869 
40925 
40987 
41033 
41091 
41203 
41300 
41368 
41383 
41396 
41431 
41518 
41566 
41583 
41642 
41737 
41702 
41634 
41679 
41723 
41731 
41726 
41794 
41887 
41910 
41904 
41911 
41969 
41992 
41972 
41961 
41949 
41972 
41974 
41983 
42004 
42010 
41969 
42011 
42067 
42090 
42077 
42041 
42020 
42007 
41945 
41926 
41896 
41855 
41754 
41681 
41675 
41604 
41503 
41412 
41299 
41153 
40947 
40596 
40257 
39920 
39622 
39320 
38994 
38651 
38273 
37893 
37536 
37212 
36861 
36545 
36195 
35875 
35603 
35407 
35198 
34987 
34829 
34743 
34641 
34481 
34402 
34355 
34314 
34309 
34326 
34319 
34329 
34353 
34378 
34484 
34561 
34609 
34715 
34785 
34844 
34927 
35000 
35043 
35080 
35121 
35151 
35203 
35226 
35286 
35272 
35284 
35351 
35458 
35563 
35675 
35778 
35893 
36057 
36182 
36261 
36334 
36424 
36478 
36514 
36621 
36753 
36838 
36917 
36964 
36963 
37032 
37135 
37129 
37151 
37200 
37270 
37263 
37229 
37183 
37139 
37138 
37147 
37095 
37095 
37088 
37075 
37097 
37112 
37062 
37105 
37157 
37128 
37121 
37141 
37200 
37255 
37341 
37377 
37326 
37309 
37359 
37423 
37459 
37487 
37547 
37648 
37716 
37720 
37766 
37811 
37938 
38027 
38039 
38050 
38075 
38142 
38207 
38270 
38317 
38345 
38390 
38531 
38642 
38733 
38799 
38850 
38863 
38960 
39101 
39183 
39212 
39231 
39228 
39266 
39404 
39513 
39629 
39737 
39840 
39950 
40028 
40070 
40047 
40077 
40150 
40280 
40328 
40319 
40352 
40400 
40460 
40535 
40564 
40587 
40709 
40853 
40910 
40936 
40966 
40975 
40981 
41034 
40986 
40969 
41016 
41071 
41105 
41162 
41225 
41236 
41191 
41246 
41256 
41174 
41117 
41121 
41180 
41158 
41139 
41171 
41207 
41193 
41094 
40955 
40826 
40646 
40423 
40184 
39907 
39627 
39295 
38938 
38627 
38299 
37958 
37644 
37299 
36928 
36607 
36275 
36029 
35806 
35608 
35393 
35215 
35018 
34840 
34723 
34624 
34564 
34533 
34484 
34464 
34432 
34392 
34415 
34487 
34585 
34584 
34631 
34726 
34808 
34882 
34989 
35130 
35214 
35312 
35419 
35532 
35651 
35759 
35812 
35943 
36133 
36318 
36522 
36676 
36780 
36908 
37064 
37215 
37344 
37454 
37629 
37830 
38029 
38160 
38283 
38412 
38499 
38662 
38824 
38965 
39109 
39252 
39423 
39574 
39641 
39813 
40044 
40195 
40289 
40388 
40473 
40542 
40577 
40622 
40717 
40839 
40911 
40951 
40990 
41044 
41056 
41050 
41083 
41108 
41078 
41039 
41059 
41095 
41145 
41175 
41241 
41319 
41331 
41313 
41311 
41327 
41341 
41319 
41340 
41447 
41495 
41457 
41453 
41429 
41387 
41404 
41467 
41512 
41540 
41555 
41589 
41624 
41604 
41654 
41666 
41662 
41688 
41672 
41703 
41706 
41724 
41799 
41874 
41892 
41922 
42025 
42070 
42087 
42128 
42141 
42163 
42224 
42248 
42291 
42338 
42378 
42370 
42397 
42389 
42394 
42422 
42466 
42516 
42543 
42571 
42542 
42573 
42599 
42622 
42643 
42662 
42713 
42704 
42686 
42692 
42733 
42762 
42792 
42821 
42847 
42859 
42844 
42844 
42850 
42902 
42919 
42951 
43018 
43007 
43021 
43023 
42948 
42899 
42847 
42832 
42791 
42750 
42686 
42546 
42319 
42059 
41802 
41508 
41202 
40906 
40560 
40205 
39878 
39595 
39292 
38967 
38588 
38262 
37975 
37713 
37467 
37189 
36971 
36793 
36629 
36508 
36396 
36301 
36172 
36094 
35983 
35910 
35871 
35785 
35772 
35821 
35843 
35850 
35876 
35893 
35894 
35924 
35981 
36049 
36111 
36105 
36162 
36216 
36250 
36317 
36375 
36486 
36626 
36703 
36817 
36960 
37099 
37141 
37237 
37397 
37535 
37642 
37819 
37947 
38006 
38140 
38264 
38413 
38556 
38704 
38834 
39006 
39175 
39305 
39418 
39556 
39659 
39660 
39717 
39821 
39901 
40052 
40200 
40309 
40433 
40531 
40607 
40670 
40791 
40859 
40909 
40971 
41059 
41147 
41231 
41327 
41427 
41521 
41560 
41585 
41674 
41748 
41783 
41826 
41861 
41949 
42062 
42064 
42042 
42073 
42088 
42117 
42176 
42169 
42208 
42238 
42312 
42358 
42386 
42432 
42437 
42453 
42466 
42453 
42442 
42468 
42514 
42487 
42477 
42498 
42519 
42493 
42487 
42504 
42526 
42553 
42569 
42562 
42588 
42648 
42645 
42647 
42640 
42667 
42686 
42681 
42703 
42718 
42752 
42769 
42746 
42767 
42778 
42793 
42811 
42807 
42773 
42762 
42760 
42757 
42683 
42722 
42773 
42740 
42743 
42707 
42658 
42630 
42608 
42593 
42540 
42440 
42356 
42349 
42301 
42203 
42108 
42060 
42012 
41894 
41808 
41731 
41638 
41562 
41451 
41365 
41369 
41293 
41177 
41107 
41041 
40961 
40907 
40848 
40757 
40651 
40503 
40324 
40167 
40009 
39836 
39698 
39515 
39375 
39236 
39068 
38922 
38843 
38751 
38672 
38637 
38582 
38476 
38382 
38360 
38343 
38314 
38306 
38309 
38276 
38209 
38183 
38176 
38173 
38162 
38134 
38110 
38114 
38205 
38245 
38283 
38289 
38297 
38275 
38289 
38340 
38392 
38407 
38415 
38443 
38510 
38530 
38467 
38470 
38531 
38551 
38593 
38666 
38712 
38739 
38780 
38814 
38890 
38935 
38949 
38958 
38974 
39040 
39125 
39117 
39149 
39189 
39192 
39190 
39236 
39296 
39324 
39383 
39431 
39419 
39403 
39449 
39573 
39657 
39694 
39755 
39872 
39987 
40029 
40060 
40108 
40095 
40055 
40072 
40149 
40204 
40265 
40347 
40422 
40421 
40421 
40389 
40419 
40485 
40508 
40540 
40582 
40621 
40671 
40655 
40665 
40666 
40631 
40613 
40657 
40717 
40777 
40874 
40908 
40897 
40906 
40933 
40916 
40921 
40981 
41033 
41105 
41195 
41274 
41309 
41323 
41357 
41375 
41395 
41408 
41412 
41429 
41388 
41312 
41279 
41338 
41391 
41378 
41317 
41282 
41267 
41244 
41253 
41246 
41262 
41249 
41210 
41165 
41174 
41145 
41157 
41150 
41132 
41137 
41127 
41118 
41098 
41051 
41035 
41056 
41058 
41057 
41029 
41037 
41108 
41174 
41167 
41136 
41141 
41151 
41152 
41139 
41141 
41228 
41339 
41399 
41439 
41424 
41437 
41491 
41538 
41578 
41637 
41688 
41718 
41699 
41693 
41661 
41695 
41744 
41733 
41752 
41744 
41756 
41797 
41834 
41896 
41944 
41969 
41984 
41993 
42025 
42065 
42087 
42186 
42267 
42295 
42286 
42301 
42298 
42319 
42356 
42380 
42417 
42479 
42541 
42537 
42497 
42485 
42556 
42557 
42556 
42548 
42631 
42764 
42813 
42830 
42867 
42910 
42918 
42929 
42917 
42944 
42972 
42978 
42990 
43033 
43055 
43060 
43087 
43113 
43169 
43204 
43221 
43255 
43273 
43315 
43331 
43332 
43346 
43381 
43384 
43341 
43334 
43313 
43304 
43338 
43427 
43480 
43456 
43461 
43495 
43469 
43457 
43491 
43441 
43421 
43442 
43481 
43503 
43499 
43460 
43443 
43412 
43406 
43403 
43422 
43396 
43362 
43368 
43378 
43348 
43326 
43373 
43372 
43361 
43361 
43379 
43395 
43373 
43333 
43300 
43273 
43276 
43253 
43196 
43183 
43233 
43213 
43245 
43237 
43211 
43151 
43078 
43084 
43043 
43057 
43034 
42970 
42928 
42946 
42953 
42977 
42978 
42955 
42965 
42970 
42949 
42974 
42967 
42915 
42847 
42833 
42866 
42921 
42948 
43003 
43012 
42962 
42941 
42946 
42981 
42990 
42998 
42980 
42956 
42924 
42938 
42971 
42955 
42945 
42910 
42908 
42940 
42975 
42952 
42873 
42798 
42802 
42843 
42905 
42959 
43001 
42968 
42937 
42954 
42885 
42808 
42756 
42720 
42696 
42660 
42608 
42610 
42612 
42650 
42736 
42732 
42696 
42679 
42716 
42710 
42693 
42680 
42705 
42731 
42674 
42696 
42699 
42648 
42648 
42690 
42671 
42707 
42714 
42656 
42644 
42643 
42643 
42694 
42739 
42780 
42727 
42685 
42702 
42688 
42671 
42649 
42649 
42667 
42688 
42709 
42706 
42689 
42671 
42650 
42691 
42717 
42744 
42732 
42725 
42724 
42725 
42733 
42743 
42682 
42644 
42642 
42636 
42614 
42597 
42617 
42667 
42681 
42700 
42758 
42769 
42727 
42700 
42679 
42675 
42746 
42776 
42738 
42737 
42676 
42666 
42634 
42585 
42499 
42448 
42456 
42476 
42510 
42561 
42579 
42558 
42536 
42485 
42435 
42448 
42411 
42396 
42403 
42377 
42358 
42384 
42354 
42353 
42379 
42383 
42383 
42354 
42346 
42332 
42351 
42374 
42343 
42272 
42196 
42213 
42233 
42217 
42126 
42065 
42063 
42075 
42069 
42076 
42089 
42111 
42142 
42068 
42002 
41982 
41996 
42020 
42072 
42064 
42066 
42041 
42042 
42071 
42113 
42148 
42146 
42174 
42189 
42216 
42188 
42174 
42140 
42123 
42132 
42161 
42098 
42028 
42009 
42029 
42067 
42103 
42108 
42102 
42070 
42022 
42046 
42121 
42132 
42119 
42107 
42088 
42108 
42200 
42262 
42246 
42176 
42147 
42131 
42114 
42095 
42066 
42096 
42083 
42031 
41997 
42036 
42071 
42074 
42080 
42071 
42073 
42115 
42167 
42217 
42267 
42300 
42293 
42210 
42175 
42166 
42167 
42187 
42190 
42196 
42163 
42179 
42239 
42248 
42224 
42230 
42263 
42281 
42274 
42299 
42327 
42341 
42308 
42253 
42235 
42223 
42271 
42297 
42329 
42338 
42415 
42391 
42364 
42367 
42404 
42406 
42393 
42396 
42405 
42438 
42472 
42510 
42475 
42484 
42480 
42473 
42493 
42527 
42560 
42635 
42649 
42608 
42537 
42501 
42537 
42576 
42544 
42521 
42556 
42655 
42685 
42642 
42574 
42515 
42491 
42465 
42507 
42541 
42534 
42559 
42623 
42611 
42569 
42568 
42593 
42641 
42650 
42645 
42696 
42731 
42766 
42782 
42724 
42715 
42728 
42720 
42699 
42706 
42699 
42650 
42615 
42558 
42538 
42560 
42650 
42712 
42714 
42695 
42702 
42711 
42731 
42715 
42702 
42747 
42773 
42755 
42724 
42713 
42761 
42830 
42872 
42849 
42803 
42771 
42763 
42771 
42730 
42728 
42724 
42706 
42744 
42762 
42760 
42788 
42779 
42793 
42831 
42802 
42772 
42780 
42761 
42726 
42717 
42633 
42644 
42657 
42666 
42698 
42686 
42614 
42617 
42655 
42713 
42720 
42720 
42738 
42754 
42723 
42674 
42687 
42717 
42730 
42739 
42702 
42660 
42672 
42664 
42676 
42697 
42748 
42776 
42764 
42727 
42687 
42717 
42770 
42822 
42845 
42818 
42743 
42706 
42687 
42727 
42791 
42834 
42821 
42799 
42802 
42827 
42830 
42815 
42812 
42803 
42819 
42857 
42852 
42781 
42708 
42743 
42759 
42822 
42812 
42807 
42848 
42903 
42890 
42873 
42878 
42920 
42930 
42895 
42906 
42849 
42746 
42699 
42757 
42831 
42873 
42914 
42944 
42934 
42911 
42889 
42910 
42905 
42857 
42825 
42849 
42884 
42908 
42875 
42864 
42856 
42803 
42817 
42874 
42865 
42810 
42809 
42814 
42857 
42913 
42921 
42881 
42859 
42835 
42822 
42821 
42794 
42740 
42721 
42756 
42824 
42880 
42914 
42926 
42885 
42902 
42904 
42861 
42870 
42868 
42855 
42885 
42856 
42825 
42841 
42826 
42848 
42888 
42868 
42899 
42911 
42863 
42862 
42844 
42778 
42738 
42757 
42770 
42794 
42796 
42786 
42774 
42767 
42776 
42734 
42690 
42693 
42723 
42726 
42752 
42795 
42797 
42776 
42803 
42858 
42831 
42802 
42763 
42786 
42803 
42767 
42734 
42725 
42753 
42775 
42779 
42817 
42788 
42775 
42800 
42854 
42915 
42973 
43016 
42980 
42936 
42866 
42896 
42853 
42811 
42818 
42889 
42946 
42893 
42854 
42792 
42767 
42746 
42757 
42770 
42765 
42740 
42722 
42723 
42740 
42773 
42771 
42759 
42796 
42816 
42856 
42864 
42858 
42809 
42794 
42745 
42726 
42784 
42837 
42874 
42925 
42897 
42874 
42893 
42882 
42890 
42931 
42959 
42933 
42889 
42845 
42767 
42705 
42744 
42813 
42823 
42800 
42816 
42821 
42835 
42879 
42892 
42914 
42890 
42820 
42786 
42787 
42767 
42748 
42733 
42740 
42787 
42811 
42808 
42760 
42774 
42767 
42750 
42730 
42731 
42779 
42800 
42756 
42719 
42708 
42692 
42665 
42673 
42737 
42748 
42779 
42774 
42772 
42807 
42810 
42771 
42777 
42697 
42611 
42641 
42669 
42746 
42780 
42789 
42802 
42776 
42761 
42779 
42767 
42713 
42688 
42721 
42797 
42874 
42871 
42874 
42841 
42767 
42735 
42723 
42703 
42688 
42701 
42768 
42785 
42784 
42750 
42733 
42756 
42776 
42742 
42748 
42756 
42759 
42798 
42803 
42833 
42883 
42830 
42797 
42846 
42882 
42907 
42900 
42910 
42936 
42912 
42901 
42922 
42917 
42837 
42824 
42842 
42860 
42815 
42827 
42804 
42800 
42776 
42736 
42769 
42812 
42845 
42878 
42924 
42897 
42897 
42924 
42934 
42894 
42874 
42927 
42912 
42903 
42891 
42894 
42931 
42948 
42935 
42953 
42919 
42912 
42935 
42934 
42912 
42897 
42911 
42908 
42919 
42893 
42886 
42939 
42944 
42971 
42988 
42958 
42969 
42973 
42907 
42914 
42950 
42912 
42917 
42946 
42958 
42978 
42995 
42974 
42977 
43002 
42985 
42950 
42954 
42958 
42960 
42997 
43083 
43088 
43039 
42995 
42973 
42964 
42979 
42980 
42954 
42980 
43032 
43040 
43027 
43048 
43074 
43053 
43030 
43005 
42936 
42916 
42900 
42911 
42910 
42919 
42906 
42948 
43034 
43101 
43102 
43154 
43121 
43112 
43098 
43130 
43115 
43042 
43016 
43008 
43037 
43081 
43050 
43017 
42994 
43020 
43055 
43058 
43001 
42974 
42998 
43025 
42980 
42980 
43007 
43022 
43046 
43023 
43019 
42974 
42989 
43040 
43075 
43069 
43069 
43023 
42987 
42934 
42850 
42827 
42875 
42917 
42938 
42948 
42895 
42879 
42951 
42970 
42971 
42965 
42977 
42974 
42897 
42882 
42906 
42921 
42948 
42970 
42948 
42962 
42997 
43009 
42988 
42974 
42957 
42933 
42949 
43013 
43030 
43020 
43015 
42937 
42882 
42890 
42931 
42961 
42914 
42873 
42879 
42938 
42988 
43028 
42997 
42924 
42888 
42879 
42824 
42851 
42897 
42941 
43020 
43038 
43033 
43053 
43020 
42994 
43003 
43015 
42976 
42898 
42886 
42925 
42939 
42936 
42864 
42803 
42810 
42865 
42890 
42927 
42905 
42870 
42889 
42905 
42887 
42819 
42778 
42751 
42792 
42879 
42919 
42934 
42972 
42991 
43002 
42974 
42918 
42903 
42908 
42907 
42884 
42915 
42925 
42926 
42923 
42902 
42908 
42955 
42953 
42940 
42910 
42905 
42892 
42929 
42903 
42861 
42855 
42859 
42897 
42897 
42918 
42906 
42923 
42941 
42847 
42803 
42815 
42851 
42918 
42924 
42920 
42910 
42887 
42861 
42851 
42850 
42850 
42839 
42843 
42868 
42862 
42846 
42835 
42823 
42851 
42828 
42811 
42803 
42797 
42833 
42836 
42823 
42836 
42840 
42859 
42901 
42916 
42913 
42897 
42890 
42840 
42820 
42903 
42936 
43005 
43031 
42999 
42963 
42963 
42967 
42951 
42952 
42945 
42924 
42879 
42878 
42916 
42939 
42933 
42949 
43001 
42992 
42964 
42932 
42917 
42888 
42879 
42892 
42910 
42935 
42957 
42961 
42949 
42951 
42935 
42949 
43009 
43045 
43009 
42993 
43075 
43149 
43176 
43182 
43136 
43096 
43077 
43054 
43040 
43038 
43006 
43055 
43062 
43041 
42961 
42933 
42932 
42932 
42972 
42960 
42928 
42966 
43023 
43060 
43076 
43093 
43108 
43139 
43118 
43088 
43037 
42999 
43041 
43054 
43061 
43021 
43020 
43043 
43070 
43073 
43044 
43008 
42949 
43060 
43155 
43148 
43093 
43027 
43045 
43025 
43009 
43043 
42997 
42963 
42984 
43021 
42997 
42993 
43047 
43100 
43133 
43124 
43112 
43084 
43018 
43033 
43114 
43113 
43112 
43131 
43119 
43107 
43112 
43133 
43112 
43067 
43014 
42989 
42974 
42915 
42929 
42948 
42976 
43009 
42990 
42962 
42957 
42948 
43001 
43017 
43062 
43094 
43114 
43138 
43150 
43174 
43159 
43154 
43150 
43164 
43165 
43144 
43157 
43193 
43189 
43183 
43132 
43105 
43089 
43134 
43114 
43060 
42974 
42960 
43018 
43015 
43000 
42971 
42968 
42990 
43045 
42977 
42935 
42967 
43039 
43068 
43064 
43059 
43022 
43054 
43030 
42950 
42952 
43049 
43052 
43008 
43034 
43057 
43034 
42999 
42982 
42997 
43014 
43018 
42972 
42972 
43024 
43022 
43004 
42998 
42978 
42973 
43043 
43043 
43038 
43065 
43018 
42961 
42985 
43021 
43045 
43019 
42999 
42986 
42971 
43036 
43077 
43015 
43017 
43029 
43069 
43071 
43104 
43128 
43068 
43077 
43112 
43054 
43020 
43008 
42986 
42956 
42945 
42943 
42970 
43021 
43019 
43051 
43078 
43064 
43086 
43062 
43015 
43003 
42978 
42946 
43005 
43001 
42961 
42964 
42994 
43038 
43019 
42946 
42903 
42899 
42949 
42940 
42909 
42967 
43024 
42982 
43000 
43011 
42987 
42987 
42973 
42982 
43030 
43057 
43009 
42944 
42915 
42940 
43010 
43032 
43028 
43016 
42986 
42980 
42931 
42957 
43072 
43101 
43070 
43012 
42984 
42962 
42944 
42903 
42842 
42857 
42842 
42888 
42938 
42885 
42816 
42786 
42770 
42769 
42743 
42807 
42834 
42832 
42824 
42870 
42900 
42926 
42875 
42787 
42749 
42789 
42822 
42844 
42911 
42949 
42889 
42846 
42823 
42825 
42865 
42911 
42937 
42900 
42894 
42879 
42881 
42892 
42881 
42854 
42829 
42848 
42816 
42768 
42774 
42827 
42862 
42814 
42835 
42827 
42887 
42931 
42914 
42933 
42903 
42870 
42905 
42899 
42956 
42957 
42918 
42920 
42947 
42971 
42963 
43017 
43030 
42982 
42976 
42981 
43025 
43013 
42957 
42950 
42943 
42936 
42989 
42989 
42998 
43032 
43004 
42987 
42992 
42987 
42984 
42956 
42930 
42895 
42878 
42930 
42979 
42982 
42998 
42992 
42988 
42976 
42905 
42901 
42888 
42897 
42967 
42998 
42969 
42958 
42983 
42981 
42954 
42925 
42880 
42843 
42858 
42861 
42800 
42798 
42840 
42864 
42876 
42886 
42870 
42903 
42890 
42872 
42873 
42850 
42831 
42802 
42830 
42853 
42866 
42873 
42880 
42863 
42803 
42754 
42728 
42702 
42721 
42758 
42753 
42725 
42725 
42777 
42838 
42829 
42776 
42814 
42877 
42890 
42845 
42794 
42808 
42818 
42840 
42832 
42836 
42856 
42881 
42849 
42857 
42828 
42816 
42820 
42842 
42865 
42840 
42815 
42823 
42831 
42861 
42791 
42755 
42791 
42820 
42789 
42767 
42780 
42791 
42719 
42620 
42578 
42603 
42636 
42643 
42658 
42756 
42770 
42723 
42689 
42677 
42697 
42715 
42719 
42760 
42813 
42847 
42916 
42969 
42978 
42920 
42883 
42859 
42854 
42832 
42853 
42861 
42866 
42886 
42916 
42916 
42888 
42875 
42807 
42790 
42845 
42858 
42836 
42834 
42831 
42805 
42773 
42764 
42822 
42857 
42877 
42880 
42895 
42895 
42886 
42866 
42827 
42827 
42832 
42846 
42821 
42785 
42838 
42875 
42890 
42866 
42839 
42819 
42811 
42821 
42831 
42889 
42969 
43004 
42987 
42940 
42906 
42907 
42907 
42894 
42931 
42955 
42949 
42881 
42821 
42799 
42791 
42835 
42904 
42928 
42864 
42811 
42795 
42805 
42856 
42879 
42822 
42833 
42906 
42877 
42869 
42897 
42889 
42933 
42958 
42935 
42933 
42929 
42898 
42891 
42883 
42845 
42815 
42824 
42898 
42952 
42956 
42985 
43014 
43018 
42946 
42879 
42852 
42879 
42929 
42929 
42923 
42925 
42936 
43009 
43040 
43032 
42996 
42991 
42969 
42897 
42812 
42842 
42895 
42942 
42938 
42926 
42962 
42966 
43000 
42982 
42925 
42892 
42917 
42940 
42972 
43010 
42969 
42935 
42906 
42947 
42993 
43010 
42960 
42951 
42952 
42925 
42949 
42967 
42923 
42862 
42835 
42913 
42934 
42932 
42918 
42895 
42942 
42964 
42937 
42962 
42924 
42854 
42873 
42918 
42981 
42998 
42968 
42983 
43006 
43008 
42943 
42894 
42946 
42977 
42969 
42984 
42986 
42967 
42985 
42964 
42993 
43013 
43002 
43035 
43034 
42970 
42967 
42985 
42955 
42930 
42903 
42913 
42900 
42923 
42986 
42941 
42913 
42938 
42943 
42945 
42903 
42878 
42844 
42812 
42826 
42857 
42864 
42926 
42951 
42923 
42906 
42898 
42910 
42968 
42959 
42946 
42947 
42915 
42915 
42969 
43004 
42976 
42895 
42865 
42908 
42908 
42843 
42813 
42796 
42808 
42825 
42862 
42905 
42891 
42843 
42805 
42795 
42808 
42848 
42900 
42985 
43023 
42976 
42942 
42928 
42894 
42884 
42878 
42848 
42843 
42833 
42800 
42782 
42765 
42762 
42755 
42797 
42825 
42818 
42804 
42774 
42827 
42836 
42789 
42766 
42780 
42781 
42760 
42787 
42812 
42820 
42838 
42874 
42875 
42852 
42834 
42836 
42817 
42844 
42914 
42902 
42882 
42936 
42950 
42932 
42986 
43013 
42956 
42893 
42883 
42883 
42895 
42907 
42937 
42928 
42912 
42894 
42874 
42855 
42869 
42884 
42895 
42916 
42956 
42917 
42980 
43008 
43015 
42968 
42901 
42898 
42907 
42918 
42853 
42782 
42767 
42859 
42945 
42978 
42936 
42953 
42950 
42943 
42875 
42834 
42804 
42773 
42801 
42803 
42842 
42874 
42838 
42813 
42837 
42830 
42854 
42842 
42842 
42785 
42721 
42716 
42763 
42744 
42650 
42694 
42744 
42773 
42749 
42727 
42773 
42820 
42846 
42833 
42819 
42790 
42733 
42677 
42675 
42721 
42711 
42709 
42756 
42749 
42744 
42724 
42703 
42676 
42658 
42686 
42682 
42646 
42627 
42601 
42611 
42651 
42671 
42684 
42695 
42682 
42645 
42644 
42724 
42750 
42708 
42661 
42628 
42598 
42596 
42602 
42636 
42651 
42630 
42627 
42611 
42636 
42692 
42634 
42646 
42701 
42705 
42628 
42563 
42548 
42587 
42583 
42604 
42639 
42637 
42724 
42766 
42734 
42682 
42627 
42614 
42612 
42577 
42579 
42588 
42566 
42555 
42551 
42532 
42502 
42453 
42470 
42526 
42554 
42535 
42500 
42450 
42456 
42473 
42528 
42550 
42512 
42503 
42510 
42496 
42456 
42448 
42466 
42478 
42491 
42458 
42443 
42460 
42511 
42558 
42547 
42510 
42530 
42503 
42513 
42550 
42551 
42523 
42533 
42536 
42532 
42573 
42628 
42655 
42629 
42620 
42654 
42676 
42705 
42667 
42639 
42607 
42577 
42528 
42524 
42546 
42561 
42590 
42657 
42668 
42572 
42538 
42525 
42470 
42505 
42568 
42639 
42648 
42648 
42611 
42603 
42596 
42553 
42578 
42641 
42587 
42491 
42499 
42594 
42626 
42587 
42540 
42566 
42630 
42661 
42638 
42608 
42598 
42601 
42614 
42574 
42560 
42620 
42624 
42612 
42590 
42613 
42654 
42706 
42718 
42660 
42607 
42572 
42634 
42707 
42701 
42655 
42683 
42694 
42698 
42668 
42685 
42708 
42673 
42612 
42528 
42518 
42589 
42714 
42739 
42653 
42599 
42588 
42570 
42584 
42595 
42582 
42614 
42609 
42575 
42584 
42610 
42620 
42666 
42621 
42619 
42590 
42585 
42626 
42632 
42612 
42569 
42516 
42509 
42549 
42581 
42557 
42580 
42622 
42624 
42616 
42578 
42564 
42549 
42585 
42617 
42610 
42597 
42625 
42659 
42680 
42715 
42703 
42676 
42636 
42616 
42640 
42596 
42554 
42555 
42591 
42655 
42725 
42718 
42640 
42625 
42665 
42648 
42636 
42636 
42687 
42723 
42788 
42779 
42762 
42785 
42711 
42673 
42655 
42614 
42627 
42638 
42625 
42628 
42649 
42640 
42595 
42585 
42616 
42606 
42573 
42549 
42604 
42612 
42583 
42587 
42584 
42581 
42589 
42554 
42620 
42717 
42760 
42771 
42783 
42789 
42751 
42654 
42548 
42541 
42537 
42549 
42527 
42554 
42581 
42641 
42652 
42629 
42596 
42577 
42629 
42645 
42585 
42584 
42566 
42503 
42509 
42557 
42579 
42575 
42603 
42632 
42700 
42732 
42706 
42664 
42650 
42646 
42706 
42730 
42709 
42700 
42684 
42665 
42622 
42607 
42638 
42654 
42644 
42591 
42526 
42504 
42482 
42528 
42584 
42592 
42590 
42657 
42635 
42651 
42674 
42685 
42615 
42589 
42619 
42655 
42657 
42677 
42684 
42683 
42685 
42629 
42535 
42493 
42502 
42508 
42534 
42630 
42647 
42636 
42591 
42557 
42560 
42557 
42493 
42434 
42449 
42450 
42436 
42413 
42404 
42487 
42492 
42408 
42387 
42409 
42409 
42446 
42496 
42477 
42439 
42395 
42385 
42414 
42400 
42336 
42374 
42374 
42360 
42436 
42504 
42497 
42440 
42430 
42460 
42460 
42483 
42524 
42547 
42515 
42514 
42519 
42502 
42452 
42492 
42529 
42533 
42545 
42540 
42514 
42543 
42515 
42454 
42386 
42338 
42318 
42330 
42376 
42406 
42412 
42402 
42411 
42406 
42496 
42562 
42541 
42521 
42550 
42562 
42510 
42478 
42495 
42463 
42425 
42486 
42545 
42515 
42501 
42513 
42504 
42476 
42501 
42553 
42569 
42569 
42605 
42586 
42552 
42581 
42559 
42542 
42549 
42510 
42486 
42536 
42530 
42511 
42580 
42624 
42658 
42723 
42700 
42679 
42683 
42645 
42633 
42643 
42603 
42548 
42588 
42628 
42630 
42655 
42681 
42626 
42584 
42590 
42616 
42596 
42614 
42649 
42670 
42678 
42658 
42643 
42622 
42578 
42535 
42554 
42533 
42514 
42531 
42519 
42545 
42609 
42637 
42669 
42643 
42605 
42578 
42544 
42531 
42531 
42531 
42544 
42548 
42531 
42501 
42502 
42516 
42509 
42543 
42530 
42497 
42541 
42557 
42526 
42529 
42524 
42406 
42326 
42305 
42267 
42279 
42286 
42294 
42291 
42305 
42272 
42310 
42330 
42259 
42188 
42163 
42190 
42202 
42177 
42242 
42224 
42184 
42215 
42235 
42226 
42180 
42188 
42230 
42226 
42209 
42221 
42232 
42224 
42296 
42365 
42341 
42354 
42384 
42447 
42478 
42491 
42415 
42383 
42388 
42398 
42373 
42373 
42372 
42360 
42375 
42330 
42288 
42303 
42330 
42311 
42303 
42332 
42354 
42346 
42391 
42430 
42419 
42401 
42385 
42381 
42345 
42357 
42364 
42323 
42326 
42351 
42365 
42354 
42334 
42336 
42367 
42458 
42497 
42457 
42411 
42488 
42531 
42580 
42588 
42558 
42503 
42467 
42485 
42490 
42474 
42483 
42547 
42529 
42497 
42528 
42577 
42598 
42586 
42576 
42610 
42614 
42622 
42660 
42680 
42702 
42713 
42719 
42758 
42811 
42835 
42868 
42883 
42881 
42891 
42905 
42894 
42882 
42888 
42882 
42867 
42843 
42799 
42732 
42710 
42737 
42743 
42758 
42795 
42824 
42826 
42837 
42885 
42878 
43001 
43058 
43036 
42924 
42878 
42866 
42838 
42855 
42842 
42759 
42731 
42728 
42704 
42721 
42792 
42849 
42832 
42783 
42760 
42751 
42739 
42713 
42717 
42724 
42707 
42639 
42625 
42593 
42544 
42464 
42397 
42351 
42341 
42322 
42327 
42329 
42273 
42204 
42158 
42173 
42175 
42146 
42095 
42097 
42099 
42097 
42088 
42081 
42082 
42039 
42007 
42020 
42042 
42025 
41988 
41933 
41951 
42045 
42054 
41988 
41941 
41913 
41888 
41844 
41872 
41887 
41918 
41948 
41925 
41930 
41942 
41929 
41961 
42000 
42013 
42082 
42079 
42048 
42038 
42130 
42187 
42181 
42165 
42177 
42255 
42316 
42348 
42313 
42340 
42368 
42373 
42340 
42314 
42322 
42336 
42407 
42469 
42477 
42436 
42400 
42389 
42425 
42444 
42428 
42398 
42428 
42477 
42523 
42582 
42584 
42609 
42600 
42555 
42556 
42518 
42522 
42559 
42596 
42593 
42592 
42587 
42582 
42599 
42672 
42697 
42744 
42768 
42766 
42770 
42767 
42740 
42732 
42772 
42833 
42878 
42869 
42877 
42847 
42808 
42823 
42863 
42881 
42872 
42849 
42829 
42838 
42868 
42905 
42906 
42874 
42901 
42968 
43005 
42959 
42969 
43037 
43002 
42987 
42945 
42885 
42917 
42941 
42958 
42964 
42930 
42960 
42923 
42812 
42769 
42768 
42733 
42778 
42859 
42896 
42889 
42864 
42842 
42857 
42886 
42902 
42926 
42952 
42946 
42941 
42951 
42939 
42910 
42909 
42943 
42953 
42921 
42907 
42887 
42918 
42892 
42850 
42880 
42882 
42872 
42883 
42881 
42804 
42698 
42618 
42602 
42595 
42571 
42520 
42514 
42486 
42440 
42382 
42339 
42283 
42216 
42221 
42143 
42084 
42111 
42103 
42081 
42016 
41946 
41920 
41956 
41983 
41925 
41934 
41999 
42011 
41987 
42010 
41928 
41891 
41939 
41919 
41874 
41911 
41964 
41994 
41996 
41977 
41979 
42017 
42072 
42080 
42042 
42045 
42059 
42045 
41966 
41939 
41982 
42059 
42152 
42111 
42044 
42124 
42225 
42253 
42216 
42249 
42311 
42331 
42384 
42445 
42410 
42426 
42457 
42458 
42462 
42481 
42477 
42503 
42564 
42623 
42624 
42599 
42594 
42585 
42597 
42617 
42588 
42617 
42657 
42659 
42697 
42756 
42755 
42763 
42773 
42781 
42818 
42863 
42905 
42878 
42896 
42948 
42990 
43012 
43001 
42995 
42984 
43012 
43065 
43074 
43055 
43007 
42994 
43003 
43027 
43057 
43066 
43102 
43120 
43094 
43168 
43249 
43275 
43272 
43268 
43253 
43224 
43213 
43211 
43228 
43238 
43253 
43310 
43339 
43366 
43416 
43460 
43503 
43525 
43500 
43456 
43439 
43446 
43440 
43418 
43402 
43413 
43389 
43386 
43363 
43393 
43385 
43355 
43359 
43374 
43446 
43488 
43500 
43524 
43490 
43479 
43481 
43477 
43444 
43412 
43460 
43490 
43465 
43439 
43468 
43499 
43508 
43505 
43539 
43589 
43617 
43598 
43513 
43426 
43367 
43330 
43324 
43258 
43185 
43173 
43153 
43122 
43122 
43089 
43037 
43007 
42970 
42947 
42903 
42836 
42745 
42716 
42790 
42779 
42698 
42655 
42711 
42793 
42771 
42767 
42742 
42671 
42637 
42693 
42759 
42737 
42721 
42720 
42709 
42737 
42773 
42791 
42798 
42754 
42721 
42720 
42755 
42756 
42786 
42862 
42884 
42876 
42874 
42823 
42811 
42800 
42801 
42772 
42718 
42680 
42617 
42591 
42648 
42686 
42686 
42714 
42722 
42664 
42616 
42643 
42704 
42739 
42711 
42727 
42762 
42781 
42775 
42740 
42784 
42943 
43000 
43041 
43048 
43009 
43029 
43034 
43002 
43069 
43121 
43108 
43107 
43107 
43101 
43152 
43191 
43198 
43218 
43246 
43261 
43244 
43236 
43192 
43209 
43260 
43270 
43314 
43366 
43365 
43335 
43308 
43290 
43309 
43291 
43297 
43384 
43449 
43462 
43441 
43464 
43501 
43512 
43507 
43497 
43484 
43488 
43538 
43527 
43517 
43552 
43607 
43635 
43649 
43685 
43690 
43654 
43602 
43627 
43720 
43722 
43707 
43680 
43616 
43581 
43626 
43641 
43638 
43659 
43660 
43637 
43647 
43655 
43628 
43562 
43555 
43570 
43575 
43609 
43641 
43672 
43605 
43583 
43602 
43554 
43551 
43586 
43607 
43606 
43560 
43554 
43599 
43625 
43610 
43577 
43594 
43608 
43599 
43586 
43552 
43544 
43532 
43482 
43454 
43400 
43379 
43339 
43289 
43255 
43239 
43199 
43154 
43109 
43116 
43052 
42996 
42931 
42838 
42823 
42826 
42842 
42842 
42831 
42867 
42903 
42839 
42782 
42782 
42766 
42740 
42767 
42768 
42710 
42636 
42677 
42795 
42869 
42901 
42864 
42785 
42748 
42714 
42751 
42794 
42757 
42717 
42788 
42862 
42876 
42887 
42906 
42936 
42906 
42854 
42849 
42825 
42841 
42907 
42974 
43092 
43105 
43077 
43049 
43047 
43031 
43041 
43048 
43080 
43119 
43131 
43169 
43136 
43117 
43129 
43134 
43128 
43086 
43075 
43095 
43151 
43201 
43220 
43245 
43254 
43271 
43295 
43325 
43366 
43383 
43364 
43317 
43267 
43271 
43281 
43311 
43326 
43345 
43459 
43501 
43522 
43493 
43472 
43481 
43522 
43546 
43503 
43408 
43402 
43439 
43423 
43436 
43450 
43499 
43544 
43521 
43464 
43426 
43389 
43386 
43351 
43288 
43296 
43322 
43325 
43315 
43298 
43287 
43295 
43337 
43370 
43390 
43378 
43401 
43444 
43466 
43482 
43479 
43446 
43399 
43421 
43405 
43424 
43470 
43462 
43482 
43467 
43456 
43444 
43454 
43488 
43540 
43623 
43592 
43566 
43571 
43565 
43548 
43520 
43495 
43481 
43444 
43350 
43317 
43307 
43277 
43254 
43198 
43016 
42861 
42784 
42722 
42676 
42621 
42565 
42508 
42418 
42379 
42320 
42254 
42201 
42149 
42065 
41985 
41976 
41946 
41938 
41930 
41901 
41855 
41843 
41818 
41818 
41812 
41786 
41779 
41753 
41721 
41764 
41773 
41772 
41769 
41774 
41784 
41798 
41804 
41817 
41859 
41902 
41896 
41939 
41979 
42010 
42037 
42012 
42020 
42043 
42005 
42025 
42124 
42149 
42176 
42187 
42222 
42222 
42217 
42243 
42304 
42301 
42351 
42399 
42393 
42434 
42468 
42506 
42549 
42569 
42630 
42718 
42771 
42771 
42753 
42772 
42770 
42819 
42822 
42796 
42813 
42884 
42902 
42918 
42947 
42959 
43009 
43057 
43092 
43130 
43211 
43282 
43363 
43394 
43371 
43360 
43344 
43356 
43359 
43412 
43448 
43472 
43479 
43480 
43563 
43597 
43625 
43647 
43715 
43691 
43637 
43618 
43673 
43747 
43814 
43854 
43819 
43860 
43867 
43842 
43820 
43790 
43810 
43855 
43812 
43789 
43814 
43880 
43896 
43941 
43965 
44007 
44010 
43983 
43983 
43981 
44004 
44042 
44080 
44099 
44025 
43984 
43998 
44004 
44001 
43997 
44008 
44028 
44038 
44040 
44074 
44129 
44155 
44167 
44183 
44161 
44094 
44066 
44060 
44079 
44041 
44065 
44105 
44129 
44192 
44202 
44129 
44112 
44067 
43974 
43855 
43768 
43700 
43623 
43545 
43426 
43287 
43139 
43042 
42974 
42906 
42858 
42778 
42677 
42602 
42536 
42456 
42384 
42388 
42335 
42232 
42225 
42205 
42189 
42173 
42166 
42227 
42197 
42180 
42158 
42106 
42070 
42028 
41995 
41979 
41982 
41979 
42003 
42040 
42053 
42076 
42126 
42248 
42295 
42324 
42324 
42343 
42351 
42381 
42348 
42364 
42389 
42370 
42372 
42374 
42415 
42491 
42535 
42596 
42655 
42669 
42696 
42788 
42814 
42794 
42812 
42876 
42960 
43061 
43153 
43167 
43143 
43166 
43254 
43319 
43294 
43286 
43321 
43334 
43382 
43414 
43455 
43494 
43460 
43451 
43509 
43562 
43605 
43615 
43637 
43674 
43696 
43726 
43743 
43788 
43809 
43816 
43831 
43831 
43891 
43886 
43892 
43909 
43964 
44022 
44000 
43986 
43987 
44047 
44073 
44079 
44122 
44135 
44158 
44235 
44339 
44408 
44419 
44428 
44401 
44360 
44347 
44358 
44481 
44561 
44597 
44628 
44616 
44603 
44595 
44645 
44659 
44599 
44540 
44603 
44722 
44757 
44791 
44779 
44739 
44721 
44737 
44788 
44839 
44851 
44840 
44879 
44903 
44915 
44900 
44863 
44868 
44808 
44801 
44860 
44856 
44803 
44735 
44731 
44767 
44841 
44836 
44778 
44737 
44776 
44809 
44863 
44954 
44924 
44810 
44718 
44621 
44493 
44347 
44209 
44058 
43895 
43731 
43554 
43332 
43156 
43054 
42949 
42848 
42701 
42580 
42508 
42406 
42266 
42120 
42007 
41891 
41807 
41765 
41724 
41624 
41520 
41411 
41368 
41346 
41308 
41235 
41205 
41171 
41127 
41104 
41145 
41168 
41167 
41178 
41170 
41097 
41086 
41093 
41102 
41130 
41178 
41265 
41342 
41341 
41294 
41281 
41305 
41342 
41384 
41466 
41489 
41517 
41602 
41677 
41692 
41701 
41734 
41743 
41749 
41832 
41903 
41909 
41964 
41995 
42013 
42098 
42150 
42245 
42357 
42395 
42445 
42505 
42542 
42579 
42677 
42767 
42813 
42854 
42878 
42976 
43068 
43127 
43171 
43228 
43261 
43267 
43317 
43386 
43364 
43349 
43400 
43466 
43503 
43536 
43649 
43776 
43857 
43876 
43866 
43926 
44038 
44130 
44146 
44163 
44223 
44292 
44328 
44325 
44341 
44386 
44438 
44475 
44541 
44577 
44611 
44627 
44693 
44758 
44822 
44900 
44964 
44993 
45034 
45069 
45092 
45121 
45155 
45156 
45158 
45125 
45208 
45273 
45286 
45302 
45354 
45417 
45440 
45420 
45425 
45481 
45630 
45686 
45705 
45737 
45726 
45753 
45793 
45763 
45758 
45827 
45815 
45771 
45792 
45790 
45777 
45848 
45905 
45896 
45851 
45822 
45786 
45779 
45759 
45739 
45675 
45539 
45442 
45359 
45208 
45018 
44831 
44620 
44360 
44161 
43988 
43788 
43632 
43506 
43371 
43269 
43180 
43026 
42900 
42828 
42713 
42639 
42553 
42456 
42398 
42315 
42250 
42210 
42193 
42137 
42099 
42167 
42163 
42084 
42028 
42004 
41965 
42000 
42049 
42037 
42030 
42079 
42078 
42081 
42103 
42187 
42310 
42397 
42449 
42555 
42644 
42649 
42701 
42784 
42874 
42950 
42992 
43009 
43113 
43210 
43261 
43291 
43371 
43445 
43534 
43614 
43699 
43761 
43813 
43823 
43807 
43888 
43994 
44084 
44154 
44217 
44279 
44372 
44478 
44516 
44538 
44538 
44584 
44665 
44707 
44666 
44658 
44736 
44816 
44826 
44830 
44812 
44797 
44820 
44859 
44933 
44984 
45016 
45063 
45136 
45169 
45168 
45187 
45253 
45340 
45346 
45415 
45445 
45428 
45443 
45491 
45533 
45556 
45593 
45584 
45619 
45658 
45645 
45638 
45650 
45690 
45740 
45723 
45707 
45724 
45762 
45804 
45814 
45850 
45925 
45970 
46056 
46104 
46119 
46139 
46125 
46132 
46190 
46184 
46162 
46173 
46183 
46259 
46319 
46342 
46333 
46335 
46344 
46296 
46288 
46317 
46366 
46376 
46349 
46344 
46387 
46373 
46305 
46301 
46289 
46224 
46132 
46014 
45815 
45634 
45438 
45201 
44952 
44705 
44469 
44280 
44118 
43941 
43788 
43629 
43539 
43454 
43328 
43213 
43102 
42976 
42889 
42820 
42756 
42714 
42672 
42597 
42562 
42538 
42516 
42527 
42513 
42524 
42545 
42483 
42491 
42515 
42533 
42558 
42587 
42611 
42687 
42795 
42850 
42928 
43009 
43056 
43172 
43279 
43389 
43465 
43567 
43595 
43668 
43810 
43849 
43937 
44066 
44183 
44274 
44353 
44406 
44458 
44532 
44626 
44714 
44797 
44896 
45002 
45111 
45179 
45269 
45356 
45393 
45466 
45513 
45580 
45673 
45727 
45790 
45814 
45879 
46015 
46126 
46221 
46281 
46335 
46349 
46384 
46413 
46390 
46418 
46433 
46462 
46524 
46606 
46676 
46743 
46798 
46826 
46823 
46820 
46837 
46882 
46912 
46978 
47054 
47098 
47110 
47123 
47124 
47149 
47158 
47166 
47221 
47286 
47245 
47187 
47181 
47213 
47223 
47241 
47272 
47328 
47317 
47276 
47264 
47250 
47198 
47192 
47237 
47290 
47318 
47300 
47256 
47258 
47278 
47305 
47350 
47354 
47363 
47332 
47301 
47329 
47351 
47347 
47339 
47321 
47345 
47384 
47441 
47489 
47433 
47383 
47355 
47321 
47321 
47323 
47276 
47263 
47258 
47185 
47097 
46979 
46850 
46696 
46468 
46158 
45866 
45524 
45182 
44923 
44683 
44419 
44140 
43924 
43739 
43570 
43334 
43119 
42946 
42801 
42679 
42553 
42367 
42244 
42163 
42094 
42036 
41944 
41826 
41749 
41728 
41654 
41694 
41765 
41759 
41742 
41764 
41824 
41859 
41903 
41970 
42018 
42025 
42108 
42251 
42344 
42461 
42625 
42735 
42806 
42891 
43048 
43193 
43355 
43508 
43635 
43759 
43843 
43970 
44108 
44173 
44282 
44438 
44579 
44758 
44896 
44965 
45060 
45172 
45271 
45368 
45474 
45592 
45707 
45811 
45889 
45936 
46003 
46054 
46062 
46081 
46162 
46236 
46315 
46383 
46470 
46566 
46602 
46614 
46661 
46700 
46817 
46917 
47031 
47072 
47129 
47146 
47155 
47211 
47325 
47407 
47453 
47507 
47500 
47502 
47489 
47496 
47583 
47701 
47741 
47721 
47722 
47775 
47835 
47867 
47922 
47925 
47940 
47988 
48001 
48043 
48079 
48117 
48156 
48152 
48138 
48144 
48206 
48288 
48377 
48453 
48477 
48481 
48476 
48507 
48545 
48560 
48601 
48657 
48626 
48589 
48656 
48795 
48855 
48835 
48852 
48897 
48867 
48891 
48906 
48950 
48970 
48921 
48862 
48878 
48896 
48933 
48923 
48861 
48856 
48886 
48902 
48907 
48822 
48692 
48542 
48340 
48138 
47850 
47525 
47210 
46902 
46577 
46221 
45837 
45447 
45148 
44875 
44600 
44354 
44124 
43868 
43639 
43486 
43263 
42979 
42757 
42636 
42482 
42357 
42278 
42193 
42037 
41873 
41796 
41791 
41796 
41826 
41838 
41851 
41876 
41889 
41972 
42086 
42191 
42308 
42414 
42470 
42543 
42606 
42685 
42845 
43028 
43169 
43307 
43420 
43535 
43704 
43858 
43949 
44074 
44209 
44290 
44442 
44621 
44738 
44872 
44981 
45087 
45229 
45348 
45435 
45538 
45648 
45803 
45913 
46021 
46158 
46247 
46282 
46385 
46502 
46597 
46665 
46738 
46833 
46924 
46976 
46992 
47057 
47158 
47242 
47353 
47441 
47555 
47651 
47662 
47690 
47764 
47769 
47756 
47845 
47984 
48093 
48129 
48119 
48122 
48136 
48199 
48307 
48320 
48309 
48329 
48377 
48385 
48435 
48499 
48537 
48591 
48686 
48719 
48752 
48793 
48830 
48823 
48880 
48957 
48996 
49003 
49045 
49076 
49074 
49106 
49092 
49073 
49135 
49150 
49145 
49169 
49191 
49267 
49345 
49408 
49434 
49451 
49450 
49430 
49423 
49422 
49446 
49485 
49546 
49568 
49556 
49570 
49582 
49568 
49550 
49621 
49634 
49620 
49623 
49622 
49669 
49718 
49669 
49537 
49491 
49523 
49524 
49507 
49516 
49548 
49453 
49299 
49133 
48902 
48660 
48359 
48010 
47657 
47318 
46919 
46538 
46159 
45785 
45478 
45242 
44997 
44710 
44429 
44227 
44011 
43720 
43473 
43296 
43109 
42966 
42889 
42822 
42706 
42593 
42546 
42491 
42456 
42498 
42559 
42573 
42612 
42685 
42718 
42768 
42866 
42968 
43027 
43089 
43194 
43366 
43537 
43661 
43742 
43830 
44020 
44243 
44410 
44542 
44688 
44803 
44938 
45093 
45259 
45388 
45460 
45530 
45667 
45874 
46017 
46109 
46260 
46334 
46422 
46592 
46761 
46894 
46968 
47060 
47169 
47289 
47346 
47397 
47503 
47619 
47723 
47816 
47838 
47846 
47903 
47965 
48025 
48113 
48165 
48187 
48242 
48320 
48366 
48413 
48439 
48446 
48449 
48486 
48557 
48555 
48572 
48631 
48715 
48753 
48769 
48796 
48799 
48807 
48822 
48867 
48882 
48928 
48931 
48976 
49042 
49084 
49129 
49155 
49203 
49235 
49220 
49249 
49283 
49261 
49309 
49334 
49362 
49390 
49415 
49474 
49473 
49475 
49512 
49522 
49546 
49597 
49593 
49612 
49672 
49741 
49707 
49664 
49651 
49620 
49637 
49654 
49734 
49800 
49837 
49900 
49909 
49888 
49902 
49917 
49913 
49858 
49822 
49819 
49859 
49895 
49915 
49963 
50014 
50059 
50085 
50078 
50109 
50076 
50063 
50042 
50097 
50130 
50122 
50098 
50049 
50022 
49867 
49607 
49307 
48961 
48564 
48182 
47827 
47480 
47108 
46747 
46389 
46024 
45705 
45375 
45091 
44853 
44575 
44342 
44150 
43973 
43777 
43535 
43363 
43303 
43216 
43104 
43056 
43068 
43060 
43047 
43052 
43076 
43082 
43098 
43150 
43208 
43265 
43348 
43443 
43515 
43587 
43679 
43765 
43916 
44126 
44262 
44327 
44436 
44533 
44695 
44869 
44984 
45133 
45249 
45339 
45503 
45642 
45765 
45933 
46107 
46229 
46339 
46453 
46573 
46704 
46830 
46960 
47067 
47105 
47231 
47302 
47398 
47513 
47618 
47693 
47795 
47875 
47901 
47964 
48058 
48123 
48214 
48281 
48311 
48328 
48359 
48432 
48510 
48572 
48581 
48596 
48638 
48684 
48720 
48741 
48744 
48782 
48826 
48871 
48883 
48907 
48945 
49005 
49049 
49035 
49028 
49079 
49100 
49181 
49229 
49281 
49323 
49353 
49379 
49403 
49424 
49437 
49449 
49479 
49566 
49595 
49666 
49671 
49668 
49664 
49649 
49614 
49656 
49710 
49720 
49762 
49773 
49795 
49837 
49865 
49824 
49842 
49857 
49895 
49927 
49964 
49989 
49986 
49973 
49999 
50001 
50005 
50040 
50038 
50005 
50003 
50042 
50057 
50050 
50092 
50098 
50068 
49998 
49998 
50053 
50088 
50119 
50095 
50038 
49980 
49985 
49939 
49893 
49782 
49632 
49470 
49206 
48847 
48484 
48119 
47757 
47348 
46924 
46547 
46168 
45804 
45477 
45196 
44893 
44608 
44340 
44099 
43876 
43704 
43508 
43348 
43250 
43109 
42970 
42874 
42784 
42718 
42697 
42684 
42703 
42683 
42740 
42856 
42929 
42943 
43034 
43108 
43156 
43268 
43416 
43584 
43697 
43819 
43970 
44109 
44266 
44485 
44736 
44925 
45040 
45185 
45332 
45449 
45584 
45727 
45877 
45997 
46083 
46201 
46402 
46561 
46639 
46715 
46854 
46945 
47081 
47267 
47380 
47450 
47529 
47657 
47738 
47807 
47900 
47969 
48008 
48043 
48115 
48195 
48275 
48352 
48394 
48433 
48470 
48536 
48595 
48655 
48673 
48696 
48709 
48746 
48786 
48847 
48860 
48902 
48939 
48955 
48994 
49038 
49125 
49176 
49186 
49228 
49295 
49362 
49379 
49385 
49375 
49347 
49411 
49484 
49517 
49557 
49574 
49599 
49652 
49702 
49680 
49716 
49795 
49826 
49854 
49848 
49843 
49846 
49850 
49875 
49892 
49895 
49938 
50006 
50023 
50009 
50033 
50091 
50105 
50119 
50153 
50128 
50108 
50227 
50321 
50344 
50299 
50260 
50256 
50310 
50400 
50441 
50435 
50398 
50362 
50349 
50388 
50455 
50457 
50445 
50433 
50433 
50409 
50382 
50368 
50296 
50171 
50002 
49773 
49453 
49030 
48642 
48248 
47875 
47474 
47045 
46636 
46234 
45859 
45508 
45167 
44850 
44607 
44318 
44043 
43890 
43766 
43653 
43477 
43271 
43192 
43175 
43163 
43127 
43071 
43055 
43115 
43170 
43245 
43284 
43288 
43346 
43493 
43619 
43715 
43828 
43973 
44071 
44204 
44330 
44431 
44567 
44705 
44848 
44989 
45194 
45415 
45642 
45861 
46057 
46208 
46337 
46443 
46563 
46661 
46820 
46959 
47066 
47186 
47330 
47467 
47653 
47764 
47859 
48006 
48164 
48248 
48324 
48452 
48521 
48638 
48781 
48873 
48962 
49046 
49093 
49133 
49166 
49156 
49202 
49240 
49303 
49387 
49447 
49435 
49419 
49427 
49460 
49500 
49565 
49618 
49638 
49663 
49755 
49849 
49893 
49914 
49920 
49873 
49871 
49950 
50045 
50058 
50128 
50126 
50069 
50099 
50110 
50163 
50208 
50225 
50245 
50305 
50332 
50361 
50355 
50358 
50391 
50434 
50442 
50467 
50462 
50480 
50541 
50558 
50526 
50501 
50490 
50503 
50543 
50589 
50638 
50664 
50701 
50689 
50720 
50716 
50710 
50707 
50675 
50656 
50665 
50679 
50706 
50784 
50857 
50819 
50854 
50935 
50952 
50889 
50872 
50898 
50903 
50903 
50904 
50894 
50900 
50863 
50782 
50686 
50555 
50367 
50146 
49852 
49518 
49122 
48681 
48254 
47824 
47306 
46803 
46333 
45877 
45511 
45155 
44835 
44539 
44260 
44051 
43819 
43638 
43526 
43347 
43210 
43107 
43054 
43003 
42919 
42888 
42895 
42925 
42974 
43053 
43091 
43157 
43202 
43305 
43461 
43518 
43605 
43729 
43804 
43880 
44018 
44168 
44307 
44472 
44683 
44889 
45089 
45270 
45427 
45604 
45794 
45985 
46189 
46354 
46509 
46660 
46849 
47041 
47241 
47410 
47517 
47681 
47859 
47969 
48017 
48052 
48166 
48260 
48348 
48449 
48591 
48687 
48726 
48774 
48897 
48957 
49020 
49101 
49176 
49234 
49324 
49372 
49368 
49365 
49442 
49562 
49662 
49697 
49716 
49778 
49791 
49756 
49755 
49774 
49807 
49843 
49876 
49894 
49846 
49836 
49879 
49917 
49957 
49939 
49926 
49959 
49983 
49957 
49954 
50028 
50106 
50094 
50094 
50093 
50136 
50206 
50217 
50177 
50151 
50199 
50224 
50247 
50285 
50341 
50344 
50338 
50389 
50432 
50446 
50504 
50562 
50597 
50584 
50562 
50550 
50460 
50433 
50530 
50654 
50738 
50770 
50778 
50806 
50817 
50828 
50829 
50838 
50901 
50950 
50969 
50910 
50874 
50886 
50938 
51020 
51031 
51016 
50949 
50888 
50841 
50774 
50739 
50637 
50535 
50312 
49953 
49552 
49086 
48592 
48133 
47677 
47245 
46830 
46407 
46013 
45682 
45364 
44983 
44664 
44359 
44050 
43775 
43584 
43446 
43248 
43116 
43027 
42960 
42855 
42772 
42745 
42728 
42749 
42763 
42828 
42919 
42958 
42990 
43106 
43210 
43332 
43484 
43612 
43797 
43974 
44146 
44354 
44548 
44718 
44878 
45067 
45223 
45378 
45564 
45758 
45991 
46210 
46389 
46536 
46708 
46866 
47004 
47169 
47314 
47457 
47638 
47811 
47969 
48132 
48262 
48385 
48483 
48570 
48671 
48738 
48780 
48885 
49001 
49082 
49199 
49278 
49387 
49456 
49435 
49414 
49441 
49449 
49422 
49477 
49522 
49549 
49568 
49597 
49643 
49618 
49627 
49629 
49609 
49594 
49637 
49662 
49632 
49608 
49638 
49717 
49658 
49658 
49715 
49775 
49823 
49862 
49905 
49931 
49986 
49990 
49985 
50021 
50073 
50068 
50046 
50062 
50041 
50033 
50077 
50169 
50192 
50238 
50289 
50391 
50424 
50362 
50346 
50416 
50514 
50541 
50566 
50654 
50725 
50726 
50749 
50778 
50791 
50841 
50903 
50983 
51015 
51014 
50991 
50920 
50945 
51016 
51005 
51002 
51001 
50984 
51002 
51034 
51088 
51109 
51103 
51099 
51125 
51137 
51086 
51108 
51109 
51075 
51003 
50910 
50731 
50506 
50182 
49843 
49473 
49028 
48531 
48045 
47571 
47082 
46607 
46242 
45929 
45576 
45185 
44844 
44583 
44390 
44224 
44028 
43853 
43728 
43614 
43500 
43446 
43434 
43382 
43325 
43360 
43409 
43470 
43574 
43698 
43830 
43935 
43973 
44071 
44177 
44331 
44441 
44553 
44688 
44848 
45047 
45252 
45414 
45625 
45797 
45988 
46178 
46318 
46494 
46720 
46846 
47015 
47186 
47387 
47620 
47831 
47970 
48134 
48325 
48469 
48546 
48640 
48741 
48839 
48913 
49021 
49073 
49172 
49307 
49411 
49448 
49539 
49564 
49630 
49712 
49748 
49746 
49779 
49808 
49817 
49820 
49883 
49896 
49867 
49926 
49943 
49919 
49936 
49891 
49872 
49875 
49850 
49853 
49913 
50014 
50038 
50015 
50023 
50012 
49988 
50012 
50060 
50105 
50133 
50136 
50101 
50127 
50141 
50138 
50157 
50203 
50241 
50248 
50246 
50246 
50292 
50401 
50453 
50504 
50559 
50583 
50544 
50580 
50632 
50632 
50628 
50650 
50704 
50733 
50771 
50820 
50882 
50897 
50900 
50957 
50939 
50968 
51020 
51003 
51072 
51174 
51190 
51198 
51231 
51228 
51196 
51166 
51194 
51236 
51229 
51127 
51068 
51100 
51099 
51077 
50981 
50850 
50646 
50386 
50121 
49763 
49315 
48841 
48375 
47902 
47446 
46972 
46567 
46150 
45737 
45447 
45192 
44882 
44563 
44296 
44069 
43892 
43743 
43585 
43463 
43376 
43344 
43303 
43297 
43353 
43406 
43447 
43480 
43503 
43520 
43610 
43705 
43834 
43965 
44111 
44234 
44327 
44476 
44670 
44823 
45022 
45256 
45482 
45666 
45879 
46139 
46312 
46472 
46673 
46836 
47050 
47279 
47474 
47647 
47854 
47977 
48059 
48176 
48315 
48470 
48646 
48777 
48902 
49081 
49209 
49261 
49365 
49507 
49568 
49598 
49667 
49725 
49721 
49776 
49855 
49919 
49985 
50024 
50070 
50102 
50104 
50080 
50099 
50122 
50105 
50051 
50007 
50006 
50047 
50113 
50146 
50039 
50006 
50070 
50078 
50119 
50159 
50179 
50211 
50235 
50291 
50345 
50322 
50342 
50385 
50423 
50418 
50447 
50515 
50573 
50527 
50535 
50593 
50625 
50641 
50673 
50693 
50738 
50789 
50779 
50770 
50851 
50891 
50940 
50964 
50958 
50988 
51011 
51022 
51085 
51142 
51247 
51289 
51290 
51312 
51337 
51344 
51366 
51410 
51423 
51438 
51461 
51519 
51526 
51536 
51560 
51531 
51459 
51413 
51445 
51443 
51415 
51358 
51301 
51255 
51141 
50960 
50752 
50438 
50047 
49609 
49093 
48617 
48131 
47672 
47237 
46776 
46289 
45801 
45293 
44862 
44517 
44235 
43978 
43733 
43460 
43223 
43091 
43001 
42905 
42861 
42837 
42845 
42869 
42890 
42934 
42984 
43102 
43215 
43319 
43441 
43551 
43701 
43888 
44135 
44348 
44530 
44746 
45028 
45367 
45670 
45943 
46246 
46586 
46894 
47221 
47560 
47931 
48219 
48472 
48759 
49040 
49285 
49572 
49842 
50078 
50357 
50671 
50965 
51172 
51425 
51681 
51884 
52072 
52279 
52499 
52664 
52804 
52957 
53042 
53101 
53170 
53269 
53347 
53410 
53485 
53536 
53580 
53602 
53631 
53683 
53740 
53820 
53868 
53864 
53846 
53821 
53836 
53912 
54008 
53994 
53982 
54067 
54152 
54145 
54156 
54153 
54157 
54150 
54144 
54220 
54285 
54384 
54482 
54536 
54545 
54620 
54679 
54735 
54812 
54890 
54961 
55054 
55129 
55152 
55191 
55235 
55347 
55397 
55383 
55432 
55545 
55589 
55636 
55654 
55670 
55716 
55745 
55807 
55857 
55841 
55875 
55962 
56022 
56069 
56103 
56111 
56166 
56205 
56243 
56242 
56266 
56288 
56355 
56395 
56387 
56337 
56331 
56318 
56292 
56279 
56242 
56141 
55967 
55748 
55478 
55113 
54675 
54217 
53688 
53062 
52445 
51818 
51210 
50576 
49899 
49285 
48703 
48104 
47595 
47074 
46566 
46131 
45758 
45417 
45133 
44836 
44571 
44370 
44190 
44040 
43980 
43889 
43788 
43745 
43721 
43752 
43839 
43912 
44013 
44125 
44251 
44392 
44576 
44791 
45014 
45248 
45490 
45751 
45993 
46244 
46458 
46692 
46982 
47214 
47452 
47674 
47906 
48180 
48432 
48690 
48924 
49128 
49334 
49537 
49756 
49975 
50145 
50271 
50391 
50562 
50699 
50788 
50941 
51042 
51109 
51170 
51213 
51244 
51207 
51237 
51295 
51344 
51357 
51314 
51279 
51225 
51156 
51055 
50946 
50871 
50832 
50746 
50696 
50648 
50619 
50574 
50491 
50423 
50414 
50403 
50374 
50339 
50298 
50309 
50291 
50238 
50196 
50139 
50135 
50120 
50179 
50219 
50211 
50182 
50178 
50226 
50279 
50343 
50378 
50379 
50396 
50417 
50432 
50426 
50409 
50442 
50509 
50541 
50608 
50700 
50705 
50721 
50752 
50719 
50733 
50765 
50801 
50842 
50900 
50932 
50961 
51033 
51090 
51096 
51120 
51168 
51140 
51127 
51171 
51194 
51194 
51211 
51254 
51266 
51270 
51279 
51249 
51205 
51182 
51170 
51135 
51137 
51149 
51075 
50898 
50727 
50495 
50191 
49831 
49381 
48830 
48274 
47718 
47152 
46597 
46004 
45417 
44781 
44116 
43477 
42879 
42371 
41853 
41307 
40773 
40305 
39904 
39562 
39272 
39019 
38776 
38525 
38394 
38345 
38277 
38217 
38212 
38258 
38317 
38369 
38530 
38654 
38758 
38892 
39028 
39197 
39390 
39602 
39795 
40010 
40220 
40458 
40697 
40967 
41281 
41615 
41889 
42146 
42418 
42701 
43015 
43343 
43545 
43770 
44052 
44301 
44597 
44906 
45116 
45352 
45566 
45789 
45947 
46111 
46268 
46389 
46520 
46643 
46723 
46768 
46895 
46984 
47011 
47051 
47097 
47139 
47181 
47171 
47127 
47084 
47068 
47117 
47099 
47056 
47003 
46936 
46933 
46854 
46792 
46747 
46724 
46736 
46752 
46743 
46718 
46681 
46678 
46678 
46657 
46659 
46666 
46673 
46690 
46690 
46775 
46828 
46796 
46869 
46921 
47011 
47099 
47124 
47122 
47158 
47209 
47256 
47364 
47462 
47519 
47594 
47708 
47774 
47819 
47870 
47919 
47976 
47987 
47978 
48076 
48226 
48301 
48362 
48395 
48419 
48479 
48561 
48611 
48680 
48723 
48747 
48711 
48703 
48749 
48769 
48781 
48740 
48691 
48710 
48753 
48819 
48844 
48888 
48865 
48819 
48742 
48649 
48529 
48314 
47962 
47534 
47065 
46630 
46174 
45640 
45057 
44464 
43832 
43179 
42591 
42081 
41554 
40991 
40450 
40014 
39542 
39074 
38679 
38327 
38032 
37726 
37471 
37311 
37153 
37069 
37021 
36940 
36882 
36869 
36931 
37054 
37157 
37277 
37389 
37505 
37660 
37773 
37946 
38111 
38282 
38498 
38725 
38951 
39198 
39460 
39724 
40037 
40284 
40583 
40919 
41199 
41491 
41811 
42127 
42381 
42636 
42965 
43292 
43624 
43825 
44032 
44223 
44430 
44647 
44876 
45069 
45225 
45385 
45505 
45631 
45763 
45839 
45903 
45891 
45882 
45935 
46000 
46031 
46072 
46087 
46087 
45997 
45944 
45902 
45854 
45849 
45825 
45776 
45773 
45695 
45614 
45610 
45584 
45560 
45553 
45566 
45602 
45635 
45653 
45669 
45688 
45684 
45697 
45686 
45703 
45725 
45834 
46000 
46093 
46134 
46168 
46242 
46323 
46366 
46404 
46477 
46563 
46622 
46667 
46747 
46814 
46898 
46943 
47025 
47105 
47163 
47252 
47323 
47394 
47460 
47518 
47601 
47687 
47746 
47764 
47816 
47878 
47899 
47909 
47928 
47941 
47978 
48045 
48154 
48243 
48282 
48313 
48343 
48385 
48417 
48396 
48420 
48446 
48495 
48560 
48583 
48566 
48508 
48482 
48473 
48329 
48136 
47909 
47602 
47212 
46783 
46305 
45733 
45163 
44620 
43969 
43259 
42583 
41936 
41369 
40738 
40097 
39507 
38900 
38324 
37874 
37403 
36972 
36620 
36281 
35959 
35717 
35574 
35413 
35290 
35253 
35234 
35222 
35268 
35325 
35379 
35475 
35660 
35828 
35989 
36158 
36356 
36564 
36842 
37080 
37327 
37577 
37866 
38197 
38521 
38834 
39139 
39432 
39653 
39932 
40240 
40569 
40953 
41316 
41679 
42016 
42351 
42656 
42921 
43152 
43401 
43678 
43964 
44210 
44398 
44548 
44757 
45006 
45161 
45244 
45311 
45402 
45493 
45540 
45598 
45589 
45631 
45693 
45673 
45606 
45570 
45526 
45529 
45545 
45502 
45456 
45421 
45419 
45311 
45236 
45269 
45285 
45246 
45199 
45151 
45109 
45093 
45089 
45080 
45074 
45057 
45042 
45131 
45206 
45231 
45302 
45353 
45386 
45458 
45598 
45703 
45825 
45911 
45958 
46011 
46100 
46178 
46204 
46291 
46427 
46553 
46625 
46709 
46766 
46838 
46942 
47015 
47124 
47266 
47335 
47405 
47485 
47530 
47613 
47651 
47713 
47836 
47917 
47942 
48018 
48093 
48123 
48134 
48193 
48249 
48303 
48357 
48431 
48469 
48483 
48500 
48542 
48573 
48570 
48575 
48613 
48659 
48692 
48717 
48683 
48642 
48608 
48566 
48477 
48358 
48204 
48006 
47711 
47363 
46951 
46427 
45889 
45348 
44746 
44134 
43499 
42868 
42232 
41639 
41044 
40401 
39768 
39180 
38568 
38023 
37576 
37157 
36693 
36312 
36053 
35840 
35662 
35514 
35418 
35298 
35204 
35156 
35225 
35301 
35374 
35473 
35558 
35668 
35794 
35962 
36186 
36477 
36729 
36960 
37176 
37391 
37621 
37884 
38192 
38514 
38843 
39168 
39457 
39789 
40153 
40513 
40800 
41070 
41453 
41839 
42130 
42423 
42722 
42999 
43272 
43502 
43749 
43966 
44160 
44290 
44428 
44579 
44701 
44829 
44892 
44906 
44886 
44902 
44919 
44886 
44846 
44808 
44810 
44824 
44810 
44739 
44659 
44572 
44479 
44409 
44304 
44233 
44158 
44052 
43953 
43876 
43786 
43747 
43762 
43772 
43709 
43648 
43589 
43595 
43622 
43601 
43601 
43651 
43698 
43686 
43634 
43671 
43729 
43765 
43785 
43805 
43773 
43824 
43895 
43968 
44134 
44231 
44311 
44335 
44365 
44419 
44444 
44488 
44566 
44670 
44743 
44800 
44853 
44865 
44851 
44891 
44960 
45027 
45104 
45163 
45265 
45309 
45334 
45359 
45429 
45460 
45498 
45545 
45618 
45684 
45707 
45802 
45810 
45817 
45882 
45897 
45932 
45960 
45915 
45834 
45767 
45707 
45546 
45353 
45096 
44742 
44329 
43913 
43398 
42818 
42282 
41723 
41119 
40545 
39941 
39305 
38712 
38191 
37655 
37154 
36719 
36382 
36055 
35727 
35382 
35066 
34767 
34519 
34358 
34234 
34139 
34046 
34019 
34058 
34110 
34204 
34326 
34444 
34566 
34758 
35013 
35184 
35331 
35507 
35740 
36056 
36291 
36577 
36919 
37192 
37443 
37754 
38124 
38435 
38719 
38983 
39223 
39535 
39923 
40261 
40632 
40982 
41273 
41503 
41740 
41999 
42244 
42422 
42587 
42776 
42940 
43072 
43220 
43312 
43381 
43434 
43459 
43502 
43544 
43511 
43504 
43529 
43533 
43553 
43486 
43442 
43398 
43335 
43345 
43363 
43347 
43256 
43176 
43203 
43232 
43284 
43299 
43306 
43324 
43338 
43356 
43414 
43436 
43520 
43594 
43609 
43619 
43670 
43721 
43713 
43779 
43859 
43906 
43991 
44040 
44111 
44157 
44152 
44198 
44263 
44313 
44369 
44399 
44460 
44535 
44611 
44612 
44621 
44657 
44706 
44810 
44895 
45023 
45110 
45134 
45129 
45172 
45270 
45330 
45398 
45492 
45579 
45651 
45704 
45780 
45899 
46009 
46137 
46284 
46368 
46466 
46627 
46790 
46917 
46989 
46983 
47001 
47002 
47036 
47039 
47043 
47011 
46902 
46720 
46512 
46233 
45813 
45305 
44791 
44254 
43724 
43158 
42514 
41824 
41212 
40609 
40019 
39426 
38830 
38280 
37792 
37332 
36884 
36457 
36083 
35720 
35369 
35101 
34953 
34835 
34728 
34618 
34594 
34599 
34661 
34750 
34810 
34835 
34936 
35088 
35254 
35409 
35590 
35872 
36123 
36420 
36640 
36851 
37067 
37332 
37669 
37995 
38307 
38615 
38913 
39190 
39439 
39745 
40050 
40396 
40696 
40982 
41346 
41618 
41849 
42100 
42369 
42649 
42875 
43099 
43274 
43372 
43471 
43646 
43792 
43945 
44100 
44222 
44253 
44277 
44303 
44329 
44300 
44275 
44260 
44255 
44254 
44245 
44214 
44170 
44128 
44115 
44086 
44052 
44073 
44081 
44053 
44043 
44013 
44049 
44087 
44054 
44064 
44116 
44128 
44126 
44126 
44145 
44216 
44261 
44247 
44275 
44313 
44403 
44469 
44541 
44575 
44626 
44729 
44813 
44911 
44996 
45058 
45113 
45205 
45251 
45336 
45441 
45548 
45702 
45825 
45921 
46011 
46065 
46091 
46205 
46349 
46464 
46544 
46664 
46698 
46680 
46737 
46821 
46914 
47036 
47186 
47274 
47284 
47309 
47356 
47357 
47305 
47260 
47248 
47252 
47222 
47187 
47156 
47103 
47043 
46930 
46748 
46568 
46307 
45999 
45575 
45162 
44694 
44087 
43516 
42993 
42429 
41822 
41237 
40661 
40098 
39569 
39062 
38604 
38161 
37710 
37317 
37010 
36745 
36501 
36261 
36019 
35832 
35694 
35676 
35644 
35634 
35657 
35740 
35870 
35972 
36133 
36280 
36445 
36647 
36855 
37066 
37293 
37555 
37750 
37918 
38165 
38467 
38731 
38980 
39237 
39580 
39879 
40127 
40375 
40721 
41049 
41356 
41684 
42000 
42279 
42578 
42841 
43086 
43314 
43525 
43779 
43971 
44083 
44230 
44304 
44384 
44498 
44638 
44735 
44774 
44779 
44835 
44811 
44753 
44747 
44693 
44665 
44687 
44686 
44622 
44552 
44524 
44463 
44356 
44291 
44289 
44257 
44201 
44232 
44316 
44310 
44226 
44210 
44234 
44303 
44347 
44328 
44269 
44255 
44278 
44269 
44288 
44354 
44396 
44445 
44453 
44511 
44669 
44762 
44815 
44918 
44996 
45055 
45120 
45254 
45325 
45393 
45441 
45481 
45524 
45615 
45699 
45800 
45913 
45987 
46040 
46124 
46216 
46245 
46324 
46374 
46419 
46496 
46557 
46553 
46513 
46512 
46576 
46611 
46579 
46583 
46628 
46688 
46727 
46729 
46749 
46724 
46658 
46595 
46600 
46553 
46381 
46167 
45915 
45593 
45227 
44839 
44389 
43899 
43358 
42821 
42288 
41715 
41129 
40644 
40125 
39555 
38976 
38497 
38072 
37660 
37236 
36816 
36419 
36053 
35750 
35471 
35185 
34932 
34689 
34559 
34466 
34371 
34329 
34348 
34328 
34310 
34354 
34488 
34684 
34805 
34903 
35046 
35211 
35309 
35475 
35714 
35932 
36147 
36375 
36578 
36780 
37050 
37277 
37515 
37780 
38054 
38303 
38566 
38823 
39053 
39297 
39554 
39797 
39977 
40133 
40363 
40571 
40732 
40936 
41143 
41305 
41436 
41522 
41601 
41636 
41685 
41786 
41778 
41788 
41846 
41929 
41991 
42043 
42133 
42164 
42146 
42188 
42189 
42180 
42179 
42195 
42258 
42301 
42333 
42355 
42430 
42449 
42459 
42493 
42506 
42531 
42588 
42587 
42637 
42738 
42841 
42869 
42893 
42931 
42969 
42981 
43100 
43194 
43276 
43286 
43326 
43406 
43464 
43524 
43543 
43715 
43862 
43915 
43922 
43982 
44060 
44160 
44234 
44308 
44405 
44474 
44481 
44542 
44661 
44768 
44888 
45024 
45114 
45165 
45160 
45175 
45245 
45300 
45403 
45509 
45604 
45671 
45705 
45708 
45713 
45761 
45818 
45831 
45732 
45700 
45654 
45550 
45426 
45210 
44862 
44508 
44089 
43650 
43197 
42702 
42231 
41778 
41278 
40723 
40205 
39715 
39265 
38872 
38505 
38122 
37782 
37482 
37234 
36985 
36798 
36651 
36495 
36365 
36263 
36218 
36217 
36214 
36170 
36194 
36250 
36303 
36369 
36460 
36602 
36730 
36871 
36967 
37094 
37255 
37429 
37626 
37808 
37980 
38222 
38475 
38670 
38875 
39079 
39294 
39478 
39684 
39947 
40228 
40416 
40632 
40901 
41162 
41403 
41630 
41825 
42027 
42206 
42423 
42648 
42859 
43041 
43193 
43352 
43484 
43670 
43807 
43911 
44043 
44214 
44349 
44493 
44665 
44766 
44821 
44848 
44880 
44978 
45053 
45064 
45127 
45225 
45334 
45397 
45411 
45423 
45485 
45553 
45627 
45699 
45761 
45773 
45769 
45758 
45789 
45821 
45857 
45882 
45897 
45945 
45978 
46034 
46084 
46111 
46136 
46108 
46122 
46184 
46248 
46313 
46407 
46448 
46477 
46506 
46544 
46605 
46632 
46648 
46714 
46736 
46745 
46788 
46836 
46857 
46829 
46869 
46937 
46997 
47046 
47089 
47084 
47067 
47070 
47062 
47109 
47148 
47159 
47211 
47260 
47253 
47278 
47309 
47359 
47410 
47427 
47460 
47471 
47492 
47484 
47465 
47373 
47273 
47252 
47213 
47151 
47030 
46807 
46526 
46196 
45765 
45259 
44732 
44171 
43643 
43147 
42612 
42064 
41541 
41066 
40597 
40166 
39802 
39433 
39038 
38724 
38449 
38198 
37944 
37722 
37614 
37501 
37409 
37338 
37225 
37101 
37009 
36966 
36964 
37014 
37077 
37126 
37167 
37246 
37337 
37416 
37563 
37750 
37899 
38043 
38177 
38314 
38472 
38611 
38730 
38893 
39026 
39153 
39274 
39448 
39648 
39768 
39918 
40076 
40201 
40358 
40542 
40733 
40907 
41101 
41297 
41481 
41618 
41794 
41991 
42224 
42445 
42605 
42752 
42939 
43117 
43344 
43564 
43706 
43858 
44057 
44207 
44416 
44565 
44761 
44911 
45065 
45283 
45473 
45593 
45749 
45899 
45995 
46068 
46108 
46251 
46365 
46487 
46575 
46594 
46659 
46733 
46851 
46941 
46991 
47080 
47158 
47232 
47272 
47322 
47383 
47428 
47489 
47533 
47572 
47640 
47701 
47722 
47813 
47885 
47974 
47996 
48014 
47976 
47928 
47942 
47931 
47989 
48071 
48180 
48251 
48286 
48298 
48296 
48295 
48310 
48274 
48257 
48262 
48289 
48291 
48284 
48238 
48233 
48225 
48219 
48234 
48234 
48231 
48174 
48161 
48196 
48222 
48243 
48288 
48301 
48291 
48278 
48265 
48264 
48219 
48202 
48190 
48188 
48141 
48100 
48079 
48057 
47982 
47879 
47761 
47553 
47283 
46955 
46527 
46126 
45743 
45296 
44886 
44540 
44160 
43738 
43325 
42942 
42559 
42172 
41830 
41515 
41196 
40888 
40589 
40273 
39915 
39625 
39373 
39125 
38879 
38670 
38525 
38366 
38222 
38129 
38047 
37940 
37761 
37660 
37584 
37506 
37486 
37495 
37457 
37485 
37468 
37430 
37471 
37565 
37641 
37741 
37812 
37897 
38011 
38088 
38186 
38284 
38389 
38510 
38644 
38771 
38931 
39137 
39297 
39473 
39668 
39811 
39981 
40181 
40334 
40516 
40705 
40858 
41014 
41161 
41327 
41440 
41526 
41668 
41832 
42003 
42134 
42244 
42358 
42479 
42664 
42867 
42990 
43104 
43187 
43244 
43340 
43448 
43558 
43674 
43726 
43825 
43935 
43988 
44106 
44242 
44272 
44362 
44489 
44595 
44653 
44673 
44724 
44827 
44872 
44945 
45053 
45092 
45144 
45205 
45266 
45359 
45470 
45509 
45581 
45649 
45714 
45788 
45871 
45944 
45980 
46033 
46107 
46147 
46130 
46150 
46204 
46271 
46329 
46334 
46347 
46396 
46449 
46513 
46581 
46601 
46626 
46627 
46637 
46623 
46632 
46691 
46729 
46768 
46875 
46958 
47025 
47046 
47013 
47035 
47080 
47084 
47080 
47087 
47072 
47077 
47120 
47106 
47054 
46962 
46868 
46858 
46840 
46738 
46601 
46415 
46162 
45872 
45616 
45356 
45124 
44873 
44618 
44376 
44188 
43993 
43764 
43564 
43380 
43225 
43038 
42834 
42634 
42519 
42460 
42283 
42148 
42005 
41867 
41753 
41656 
41586 
41543 
41523 
41464 
41374 
41323 
41290 
41282 
41268 
41301 
41347 
41361 
41354 
41337 
41328 
41318 
41322 
41377 
41380 
41370 
41418 
41500 
41539 
41599 
41644 
41683 
41743 
41851 
41906 
42023 
42153 
42222 
42268 
42326 
42394 
42501 
42587 
42658 
42752 
42824 
42895 
42995 
43083 
43084 
43131 
43251 
43302 
43340 
43461 
43563 
43670 
43811 
43884 
43961 
44009 
44032 
44066 
44184 
44276 
44368 
44461 
44572 
44693 
44821 
44931 
45032 
45193 
45305 
45407 
45469 
45526 
45617 
45712 
45851 
45934 
45980 
46027 
46117 
46234 
46350 
46431 
46588 
46689 
46738 
46766 
46840 
46945 
47074 
47178 
47208 
47254 
47280 
47334 
47405 
47449 
47439 
47457 
47497 
47500 
47525 
47603 
47704 
47724 
47726 
47767 
47833 
47896 
47966 
47970 
47960 
47946 
47909 
47922 
47970 
47993 
47955 
47898 
47887 
47863 
47844 
47829 
47819 
47784 
47773 
47784 
47818 
47879 
47879 
47891 
47930 
47910 
47883 
47867 
47873 
47876 
47893 
47946 
47998 
48028 
48057 
48098 
48100 
48099 
48146 
48227 
48249 
48287 
48305 
48269 
48261 
48281 
48334 
48349 
48366 
48419 
48443 
48436 
48440 
48468 
48499 
48526 
48507 
48520 
48557 
48581 
48645 
48694 
48705 
48683 
48671 
48693 
48759 
48804 
48776 
48809 
48803 
48782 
48829 
48871 
48908 
48920 
48895 
48887 
48886 
48845 
48869 
48867 
48813 
48762 
48823 
48853 
48870 
48885 
48889 
48926 
48956 
48997 
49000 
48980 
48935 
48898 
48919 
48908 
48871 
48866 
48819 
48807 
48814 
48820 
48854 
48849 
48848 
48860 
48894 
48928 
48928 
48881 
48862 
48864 
48837 
48811 
48809 
48776 
48730 
48737 
48660 
48605 
48554 
48486 
48437 
48503 
48519 
48467 
48470 
48440 
48378 
48348 
48364 
48339 
48261 
48252 
48256 
48250 
48233 
48215 
48204 
48236 
48232 
48227 
48221 
48187 
48179 
48114 
48043 
48076 
48091 
48057 
48086 
48109 
48081 
48045 
48025 
47966 
47865 
47791 
47782 
47759 
47725 
47743 
47763 
47752 
47748 
47726 
47585 
47499 
47481 
47466 
47458 
47413 
47382 
47393 
47440 
47413 
47328 
47263 
47245 
47214 
47223 
47246 
47245 
47209 
47130 
47072 
47092 
47090 
47050 
47029 
47012 
47002 
47032 
46980 
46931 
46927 
46925 
46919 
46930 
46917 
46889 
46868 
46811 
46800 
46812 
46791 
46702 
46676 
46695 
46699 
46683 
46697 
46693 
46652 
46609 
46565 
46540 
46546 
46608 
46656 
46654 
46658 
46672 
46673 
46671 
46644 
46504 
46487 
46493 
46481 
46450 
46420 
46375 
46315 
46343 
46412 
46448 
46479 
46426 
46367 
46340 
46331 
46362 
46368 
46352 
46316 
46295 
46290 
46286 
46284 
46281 
46247 
46211 
46240 
46208 
46174 
46143 
46147 
46141 
46136 
46121 
46016 
45979 
46046 
46047 
46006 
46002 
45962 
45963 
45962 
45946 
45950 
45966 
46006 
45994 
45962 
45904 
45894 
45942 
45999 
45985 
45977 
45932 
45871 
45830 
45881 
45958 
45995 
45960 
45880 
45856 
45909 
45920 
45882 
45876 
45831 
45810 
45793 
45758 
45728 
45704 
45685 
45666 
45642 
45582 
45585 
45569 
45556 
45590 
45624 
45627 
45618 
45597 
45599 
45647 
45649 
45653 
45625 
45595 
45578 
45594 
45591 
45622 
45672 
45673 
45677 
45627 
45613 
45631 
45647 
45613 
45546 
45531 
45525 
45532 
45617 
45626 
45595 
45593 
45601 
45598 
45535 
45496 
45516 
45529 
45473 
45427 
45407 
45417 
45454 
45455 
45462 
45452 
45463 
45491 
45470 
45437 
45407 
45427 
45456 
45437 
45440 
45487 
45470 
45474 
45437 
45409 
45414 
45433 
45460 
45480 
45472 
45426 
45377 
45361 
45392 
45347 
45272 
45260 
45283 
45252 
45260 
45330 
45345 
45330 
45348 
45396 
45445 
45477 
45484 
45446 
45428 
45383 
45334 
45310 
45326 
45326 
45335 
45359 
45322 
45392 
45450 
45431 
45411 
45443 
45411 
45363 
45346 
45337 
45378 
45412 
45361 
45361 
45376 
45426 
45472 
45460 
45463 
45500 
45492 
45427 
45388 
45412 
45419 
45377 
45344 
45316 
45301 
45345 
45403 
45466 
45497 
45527 
45520 
45501 
45523 
45547 
45556 
45554 
45537 
45580 
45637 
45619 
45575 
45584 
45584 
45565 
45579 
45577 
45580 
45575 
45542 
45507 
45456 
45472 
45502 
45491 
45500 
45509 
45548 
45566 
45540 
45497 
45492 
45529 
45463 
45469 
45472 
45424 
45433 
45470 
45424 
45359 
45295 
45245 
45200 
45201 
45226 
45279 
45345 
45387 
45424 
45440 
45441 
45413 
45395 
45398 
45362 
45360 
45347 
45312 
45348 
45402 
45408 
45333 
45264 
45246 
45281 
45337 
45393 
45378 
45365 
45342 
45295 
45260 
45273 
45317 
45326 
45324 
45326 
45330 
45317 
45336 
45355 
45357 
45337 
45346 
45350 
45301 
45306 
45360 
45355 
45314 
45285 
45260 
45289 
45312 
45255 
45206 
45220 
45230 
45200 
45198 
45257 
45269 
45270 
45272 
45313 
45341 
45315 
45269 
45238 
45249 
45272 
45266 
45225 
45219 
45275 
45355 
45394 
45376 
45331 
45307 
45289 
45310 
45352 
45408 
45467 
45452 
45382 
45348 
45374 
45417 
45392 
45344 
45374 
45405 
45373 
45362 
45362 
45332 
45302 
45353 
45422 
45446 
45444 
45457 
45429 
45406 
45405 
45398 
45410 
45445 
45469 
45474 
45448 
45441 
45453 
45425 
45388 
45393 
45403 
45441 
45504 
45563 
45577 
45570 
45532 
45510 
45535 
45543 
45497 
45468 
45508 
45558 
45589 
45607 
45653 
45634 
45606 
45587 
45555 
45525 
45478 
45455 
45454 
45472 
45509 
45549 
45549 
45605 
45613 
45532 
45465 
45523 
45537 
45531 
45527 
45496 
45524 
45533 
45502 
45460 
45489 
45499 
45515 
45511 
45499 
45542 
45537 
45527 
45544 
45517 
45468 
45461 
45471 
45425 
45453 
45469 
45503 
45495 
45464 
45476 
45448 
45453 
45515 
45611 
45643 
45567 
45478 
45450 
45503 
45571 
45541 
45505 
45503 
45466 
45482 
45510 
45478 
45509 
45507 
45464 
45465 
45529 
45598 
45599 
45555 
45545 
45491 
45452 
45438 
45444 
45426 
45436 
45424 
45439 
45471 
45495 
45505 
45514 
45526 
45558 
45562 
45541 
45493 
45452 
45429 
45482 
45558 
45555 
45482 
45454 
45463 
45530 
45558 
45571 
45541 
45542 
45512 
45482 
45439 
45424 
45441 
45493 
45534 
45502 
45484 
45517 
45535 
45521 
45514 
45483 
45483 
45456 
45392 
45425 
45471 
45519 
45521 
45545 
45512 
45461 
45415 
45423 
45451 
45446 
45441 
45435 
45421 
45395 
45420 
45468 
45451 
45430 
45402 
45431 
45411 
45381 
45421 
45488 
45520 
45501 
45461 
45385 
45351 
45385 
45413 
45427 
45415 
45372 
45326 
45319 
45333 
45373 
45367 
45411 
45382 
45341 
45367 
45374 
45407 
45405 
45396 
45400 
45410 
45426 
45459 
45496 
45491 
45499 
45539 
45571 
45564 
45525 
45472 
45529 
45538 
45556 
45563 
45558 
45533 
45457 
45442 
45456 
45436 
45414 
45385 
45364 
45360 
45355 
45320 
45367 
45370 
45356 
45386 
45392 
45357 
45370 
45410 
45429 
45455 
45441 
45434 
45509 
45473 
45437 
45424 
45415 
45390 
45374 
45428 
45498 
45542 
45570 
45551 
45511 
45537 
45505 
45486 
45521 
45522 
45524 
45453 
45459 
45489 
45492 
45497 
45517 
45484 
45437 
45414 
45427 
45456 
45389 
45340 
45323 
45325 
45346 
45351 
45393 
45471 
45476 
45442 
45408 
45417 
45450 
45472 
45454 
45424 
45399 
45359 
45353 
45341 
45309 
45296 
45341 
45347 
45351 
45355 
45354 
45321 
45272 
45312 
45369 
45413 
45487 
45449 
45398 
45362 
45333 
45315 
45297 
45274 
45292 
45329 
45331 
45260 
45248 
45218 
45216 
45268 
45292 
45312 
45301 
45320 
45327 
45316 
45302 
45312 
45343 
45298 
45273 
45255 
45237 
45234 
45270 
45255 
45286 
45282 
45264 
45278 
45334 
45362 
45283 
45227 
45289 
45344 
45404 
45401 
45349 
45325 
45301 
45271 
45287 
45305 
45302 
45293 
45248 
45215 
45175 
45168 
45234 
45302 
45285 
45275 
45261 
45199 
45196 
45190 
45152 
45145 
45151 
45149 
45102 
45092 
45041 
45051 
45105 
45163 
45212 
45193 
45174 
45171 
45143 
45141 
45097 
45091 
45114 
45175 
45185 
45158 
45170 
45162 
45161 
45204 
45204 
45236 
45280 
45312 
45307 
45317 
45303 
45237 
45270 
45345 
45358 
45365 
45333 
45312 
45306 
45299 
45305 
45284 
45186 
45119 
45071 
45071 
45174 
45204 
45230 
45274 
45262 
45168 
45124 
45063 
45062 
45101 
45150 
45188 
45256 
45305 
45317 
45277 
45207 
45152 
45178 
45139 
45115 
45076 
45036 
45014 
44977 
44993 
44973 
44964 
44983 
45042 
45064 
45074 
45096 
45073 
45068 
45061 
45034 
45060 
45113 
45105 
45061 
45042 
45099 
45161 
45191 
45169 
45171 
45173 
45161 
45139 
45141 
45149 
45090 
45095 
45135 
45154 
45170 
45154 
45181 
45148 
45086 
45074 
45081 
45074 
45096 
45084 
45027 
44953 
44965 
45006 
45040 
45045 
45008 
45003 
44998 
44965 
44999 
45019 
45019 
45081 
45115 
45080 
45063 
45038 
45032 
45008 
45011 
45026 
45019 
45035 
45056 
45030 
45036 
45128 
45180 
45132 
45097 
45094 
45077 
45074 
45106 
45087 
44998 
44968 
44998 
45040 
44999 
44941 
44993 
45047 
45009 
45037 
45049 
44971 
44951 
44946 
44932 
44948 
44976 
44985 
45012 
45035 
45033 
45017 
44996 
45015 
44994 
44963 
44962 
44946 
44941 
44983 
45039 
45086 
45062 
45019 
45046 
45053 
45043 
45057 
45048 
45046 
45073 
45051 
45028 
45044 
45004 
45060 
45074 
45060 
45091 
45084 
44979 
44907 
44930 
44918 
44906 
44943 
45026 
45065 
45125 
45135 
45115 
45062 
45036 
45042 
45061 
45107 
45122 
45096 
45095 
45082 
45065 
45041 
45043 
45016 
44978 
44971 
45032 
45082 
45049 
45013 
44972 
45027 
45072 
45116 
45152 
45154 
45107 
45087 
45134 
45142 
45091 
45055 
45070 
45050 
45022 
45019 
44990 
44981 
44960 
44957 
44969 
44964 
45041 
45093 
45037 
44969 
44932 
44955 
44962 
44939 
44928 
44982 
45055 
45071 
45091 
45140 
45155 
45113 
45131 
45125 
45114 
45089 
45060 
45044 
45037 
45069 
45066 
45069 
45123 
45115 
45081 
45034 
45008 
45041 
45069 
45095 
45062 
45092 
45149 
45086 
45105 
45135 
45164 
45158 
45128 
45114 
45121 
45107 
45095 
45090 
45111 
45081 
45091 
45075 
45032 
45060 
45064 
45039 
45029 
45006 
44956 
44940 
44975 
44962 
45039 
45109 
45124 
45061 
45079 
45088 
45027 
44997 
44981 
45016 
45060 
45104 
45094 
45075 
45069 
45079 
45050 
45022 
45039 
45062 
45029 
44984 
44979 
44999 
44991 
44958 
44939 
44942 
44964 
44987 
45028 
45058 
45095 
45099 
45111 
45114 
45100 
45007 
45019 
45032 
45006 
45006 
45010 
44965 
44932 
44927 
44967 
45008 
45006 
44989 
44948 
44901 
44878 
44843 
44816 
44806 
44808 
44845 
44841 
44832 
44796 
44762 
44762 
44821 
44893 
44890 
44839 
44863 
44913 
44931 
44935 
44919 
44879 
44871 
44918 
44929 
44929 
44970 
44973 
44993 
44974 
44950 
44924 
44914 
44923 
44907 
44904 
44890 
44894 
44889 
44848 
44856 
44898 
44916 
44908 
44876 
44830 
44817 
44804 
44819 
44840 
44819 
44811 
44861 
44899 
44862 
44852 
44807 
44819 
44839 
44868 
44858 
44807 
44796 
44819 
44844 
44883 
44917 
44909 
44920 
44896 
44831 
44797 
44824 
44887 
44893 
44885 
44863 
44932 
44950 
44969 
44972 
44951 
44900 
44900 
44952 
45028 
45009 
44944 
44891 
44866 
44896 
44906 
44899 
44911 
44918 
44913 
44954 
44939 
44922 
44883 
44882 
44897 
44971 
44999 
44964 
44963 
44934 
44933 
44947 
44910 
44883 
44857 
44878 
44920 
44935 
44960 
44978 
45010 
45009 
44950 
44934 
44933 
44941 
44925 
44857 
44830 
44884 
44856 
44863 
44942 
44933 
44921 
44930 
44900 
44909 
44941 
44906 
44849 
44795 
44792 
44835 
44875 
44936 
44915 
44866 
44822 
44817 
44815 
44744 
44742 
44765 
44821 
44862 
44917 
44961 
44911 
44895 
44900 
44929 
44966 
44989 
45017 
45016 
45027 
45052 
45010 
44970 
45033 
45033 
44989 
44987 
44993 
44968 
44944 
44922 
44903 
44948 
44952 
44952 
44950 
44988 
45015 
44948 
44896 
44889 
44878 
44885 
44914 
44897 
44875 
44864 
44810 
44773 
44814 
44906 
44923 
44886 
44860 
44835 
44831 
44858 
44882 
44857 
44812 
44841 
44870 
44842 
44839 
44864 
44880 
44930 
44992 
45006 
44993 
45037 
45027 
44954 
44901 
44892 
44883 
44848 
44851 
44881 
44930 
44929 
44922 
44911 
44900 
44903 
44939 
44997 
45026 
45014 
44991 
44954 
44931 
44926 
44920 
44936 
44956 
45000 
45014 
44962 
44916 
44935 
44924 
44974 
44971 
44945 
44873 
44850 
44845 
44850 
44781 
44764 
44815 
44842 
44800 
44784 
44799 
44789 
44750 
44748 
44829 
44860 
44850 
44797 
44737 
44726 
44724 
44741 
44728 
44708 
44706 
44700 
44728 
44769 
44775 
44774 
44763 
44731 
44708 
44718 
44720 
44740 
44740 
44751 
44763 
44757 
44809 
44829 
44801 
44771 
44725 
44705 
44709 
44801 
44895 
44922 
44850 
44782 
44812 
44806 
44807 
44775 
44735 
44696 
44688 
44699 
44704 
44682 
44716 
44753 
44767 
44805 
44795 
44770 
44725 
44715 
44725 
44738 
44774 
44800 
44815 
44822 
44855 
44884 
44877 
44826 
44798 
44836 
44816 
44740 
44709 
44736 
44749 
44741 
44763 
44790 
44853 
44870 
44854 
44841 
44793 
44778 
44804 
44815 
44789 
44800 
44814 
44845 
44840 
44869 
44914 
44942 
44954 
44938 
44964 
44955 
44938 
44874 
44853 
44853 
44895 
44888 
44899 
44906 
44951 
44961 
44931 
44911 
44977 
44970 
44906 
44874 
44868 
44861 
44866 
44883 
44915 
44873 
44882 
44890 
44929 
44940 
44956 
44939 
44889 
44889 
44936 
44971 
44945 
44971 
44948 
44927 
44900 
44904 
44891 
44839 
44871 
44912 
44926 
44951 
44962 
44974 
44950 
44888 
44871 
44894 
44925 
44915 
44887 
44882 
44880 
44931 
44939 
44860 
44781 
44753 
44738 
44747 
44749 
44731 
44688 
44674 
44672 
44677 
44692 
44744 
44785 
44717 
44727 
44712 
44644 
44632 
44640 
44665 
44722 
44747 
44736 
44730 
44747 
44791 
44860 
44873 
44862 
44814 
44750 
44736 
44727 
44767 
44778 
44758 
44732 
44771 
44830 
44820 
44812 
44797 
44848 
44849 
44789 
44762 
44775 
44739 
44693 
44743 
44752 
44752 
44789 
44775 
44826 
44862 
44855 
44835 
44834 
44840 
44829 
44820 
44845 
44850 
44825 
44893 
44903 
44898 
44884 
44861 
44882 
44905 
44926 
44949 
44936 
44940 
44983 
44967 
44974 
44998 
44916 
44860 
44850 
44894 
44947 
44981 
44981 
44977 
44952 
44926 
44876 
44886 
44867 
44915 
44923 
44943 
45008 
45029 
44985 
44945 
44971 
44966 
44893 
44916 
44948 
44984 
45048 
45036 
45037 
45084 
45096 
45025 
45000 
45006 
44999 
45004 
45029 
45057 
44991 
45005 
45071 
45107 
45045 
44986 
44963 
44914 
44846 
44846 
44915 
44927 
44874 
44886 
44904 
44922 
44974 
44994 
44976 
45001 
44978 
44942 
44915 
44927 
44950 
44934 
44935 
44943 
44956 
44950 
44924 
44906 
44936 
45006 
44992 
44925 
44945 
44967 
44982 
44987 
45024 
45052 
44989 
44945 
44918 
44949 
44929 
44911 
44905 
44955 
45002 
44999 
44977 
44957 
44997 
45033 
45022 
44985 
44974 
44900 
44895 
44923 
44962 
44946 
44963 
45046 
45099 
45100 
45036 
45022 
45020 
45012 
44979 
44975 
45024 
45020 
45006 
45042 
45115 
45124 
45084 
45067 
45045 
45040 
44994 
44950 
44994 
45040 
45043 
45047 
45072 
45085 
45127 
45155 
45139 
45122 
45114 
45082 
45100 
45124 
45106 
45094 
45135 
45158 
45129 
45098 
45097 
45066 
45079 
45090 
45072 
45019 
44992 
44963 
44968 
45015 
45074 
45023 
45000 
45024 
45005 
44947 
44951 
44997 
45009 
44970 
44964 
44965 
44989 
45060 
45129 
45121 
45058 
45055 
45072 
45059 
45002 
45012 
45016 
44995 
44963 
44940 
44993 
45012 
44967 
45004 
45041 
45071 
45060 
45015 
44973 
44922 
44922 
44919 
44926 
44910 
44887 
44909 
44924 
44891 
44836 
44830 
44821 
44831 
44845 
44852 
44911 
44903 
44926 
44990 
45052 
45039 
45012 
45013 
44983 
44936 
44909 
44887 
44888 
44936 
44953 
44896 
44846 
44840 
44862 
44855 
44851 
44871 
44942 
44991 
45005 
44943 
44886 
44909 
44917 
44937 
44945 
44937 
44935 
44931 
44893 
44844 
44869 
44882 
44845 
44804 
44808 
44875 
44955 
44999 
45024 
45011 
44980 
45015 
45021 
45055 
45029 
44955 
44902 
44884 
44885 
44906 
44877 
44888 
44938 
44933 
44934 
44950 
44936 
44901 
44877 
44923 
44951 
44962 
44979 
44945 
44954 
45032 
45070 
45055 
45023 
45038 
45030 
44976 
44972 
44990 
44985 
44969 
44961 
44973 
44983 
44972 
44921 
44922 
44967 
44945 
44953 
45000 
45042 
45015 
44971 
44948 
44958 
44959 
44960 
44905 
44910 
44947 
44981 
44989 
44980 
44926 
44936 
44936 
44908 
44914 
44934 
44931 
44930 
44942 
44959 
44963 
44977 
44985 
45017 
45048 
45070 
45058 
44998 
44999 
44974 
44944 
44963 
44946 
44950 
44973 
44917 
44899 
44881 
44862 
44898 
44944 
44953 
44941 
44933 
44918 
44931 
44930 
44919 
44957 
44986 
44964 
44978 
44993 
44930 
44903 
44897 
44878 
44832 
44841 
44800 
44790 
44790 
44782 
44778 
44735 
44718 
44774 
44781 
44728 
44703 
44741 
44713 
44719 
44776 
44778 
44819 
44815 
44781 
44798 
44828 
44793 
44724 
44684 
44718 
44733 
44711 
44669 
44666 
44698 
44700 
44675 
44680 
44688 
44669 
44750 
44810 
44785 
44762 
44716 
44716 
44740 
44715 
44671 
44670 
44666 
44653 
44608 
44597 
44655 
44703 
44690 
44710 
44710 
44694 
44695 
44655 
44634 
44657 
44671 
44681 
44677 
44718 
44735 
44688 
44649 
44640 
44634 
44641 
44640 
44667 
44674 
44658 
44690 
44756 
44849 
44864 
44871 
44880 
44879 
44879 
44878 
44840 
44809 
44846 
44863 
44842 
44868 
44902 
44952 
44954 
44919 
44905 
44921 
44915 
44958 
44948 
44940 
44912 
44916 
44928 
44952 
44962 
44979 
45011 
45015 
45020 
44985 
44971 
44931 
44931 
44966 
44955 
44986 
44980 
44987 
45020 
44995 
44981 
44951 
44928 
44987 
44998 
45025 
45022 
45005 
45026 
45076 
45044 
45040 
45023 
44998 
44949 
44910 
44854 
44824 
44817 
44784 
44755 
44742 
44681 
44676 
44661 
44585 
44509 
44481 
44450 
44378 
44342 
44360 
44375 
44327 
44242 
44217 
44194 
44210 
44261 
44269 
44227 
44185 
44209 
44257 
44300 
44284 
44288 
44318 
44302 
44309 
44274 
44247 
44192 
44175 
44235 
44173 
44115 
44142 
44227 
44283 
44316 
44273 
44282 
44295 
44301 
44317 
44302 
44290 
44340 
44375 
44472 
44514 
44458 
44418 
44430 
44453 
44473 
44497 
44500 
44458 
44454 
44495 
44562 
44598 
44574 
44582 
44557 
44609 
44677 
44705 
44710 
44684 
44661 
44695 
44741 
44779 
44776 
44776 
44825 
44844 
44851 
44838 
44838 
44791 
44735 
44791 
44896 
44895 
44875 
44865 
44890 
44946 
45025 
45038 
45026 
44973 
44942 
44975 
45007 
45008 
45056 
45143 
45173 
45245 
45272 
45215 
45173 
45107 
45121 
45138 
45130 
45094 
45103 
45157 
45161 
45118 
45093 
45086 
45109 
45107 
45121 
45157 
45176 
45182 
45210 
45201 
45200 
45223 
45226 
45210 
45151 
45150 
45201 
45232 
45244 
45255 
45264 
45261 
45263 
45288 
45275 
45193 
45129 
45135 
45136 
45097 
45071 
44983 
44889 
44829 
44769 
44685 
44620 
44592 
44596 
44563 
44551 
44527 
44510 
44446 
44351 
44248 
44214 
44211 
44211 
44195 
44177 
44177 
44152 
44131 
44166 
44128 
44056 
44081 
44099 
44104 
44081 
44052 
44036 
44022 
44054 
44044 
44032 
43994 
44028 
44050 
44046 
44099 
44207 
44236 
44198 
44184 
44146 
44124 
44119 
44145 
44211 
44281 
44355 
44384 
44385 
44422 
44389 
44388 
44409 
44458 
44526 
44501 
44445 
44453 
44483 
44529 
44587 
44617 
44612 
44610 
44617 
44633 
44609 
44621 
44610 
44638 
44664 
44641 
44703 
44730 
44687 
44661 
44680 
44738 
44769 
44732 
44728 
44752 
44763 
44803 
44877 
44936 
44913 
44895 
44889 
44895 
44901 
44883 
44867 
44922 
44965 
44941 
44944 
45018 
45035 
45042 
45036 
45096 
45152 
45176 
45123 
45142 
45235 
45284 
45315 
45326 
45367 
45399 
45350 
45312 
45330 
45364 
45437 
45439 
45403 
45434 
45481 
45490 
45459 
45416 
45421 
45411 
45418 
45496 
45548 
45618 
45606 
45608 
45590 
45567 
45599 
45614 
45631 
45632 
45561 
45520 
45498 
45519 
45566 
45618 
45584 
45584 
45608 
45616 
45485 
45337 
45278 
45245 
45142 
45023 
44940 
44837 
44764 
44727 
44644 
44556 
44481 
44422 
44365 
44331 
44280 
44227 
44208 
44200 
44187 
44129 
44039 
44008 
44032 
44023 
44001 
44023 
44059 
44060 
44051 
44072 
44120 
44167 
44117 
44072 
44068 
44084 
44096 
44095 
44084 
44094 
44137 
44113 
44086 
44161 
44210 
44190 
44204 
44242 
44311 
44360 
44357 
44389 
44353 
44270 
44243 
44259 
44348 
44406 
44415 
44384 
44392 
44422 
44443 
44470 
44493 
44559 
44540 
44551 
44640 
44705 
44755 
44813 
44837 
44841 
44797 
44777 
44809 
44785 
44786 
44848 
44845 
44821 
44838 
44863 
44948 
44994 
45028 
45079 
45071 
45108 
45198 
45290 
45337 
45317 
45312 
45347 
45365 
45362 
45370 
45384 
45379 
45425 
45501 
45571 
45576 
45582 
45606 
45631 
45657 
45661 
45690 
45685 
45709 
45757 
45773 
45798 
45782 
45756 
45823 
45785 
45747 
45790 
45842 
45840 
45844 
45845 
45812 
45824 
45822 
45813 
45797 
45788 
45797 
45807 
45764 
45796 
45868 
45890 
45933 
45932 
45963 
45976 
45974 
45998 
45941 
45957 
46001 
46061 
46081 
46051 
46019 
46001 
46027 
46007 
45963 
45958 
46044 
46070 
46024 
45961 
45919 
45840 
45733 
45631 
45543 
45510 
45446 
45360 
45311 
45206 
45124 
45097 
45085 
45047 
44943 
44897 
44854 
44770 
44739 
44687 
44595 
44552 
44523 
44584 
44636 
44619 
44593 
44517 
44497 
44509 
44522 
44533 
44529 
44498 
44446 
44428 
44387 
44409 
44445 
44459 
44444 
44508 
44548 
44570 
44547 
44510 
44476 
44464 
44496 
44544 
44582 
44612 
44627 
44645 
44651 
44635 
44655 
44694 
44645 
44645 
44675 
44705 
44724 
44748 
44759 
44784 
44849 
44895 
44896 
44895 
44914 
44961 
44986 
45010 
45022 
44986 
44983 
44991 
45023 
44969 
44991 
45076 
45177 
45164 
45119 
45117 
45184 
45238 
45275 
45331 
45354 
45350 
45350 
45406 
45413 
45448 
45519 
45481 
45463 
45503 
45546 
45537 
45504 
45505 
45537 
45565 
45609 
45611 
45586 
45589 
45590 
45594 
45600 
45632 
45707 
45762 
45740 
45728 
45714 
45732 
45776 
45802 
45813 
45807 
45846 
45892 
45903 
45909 
45916 
45925 
45928 
45944 
45934 
45940 
45911 
45905 
45906 
45949 
45929 
45935 
45998 
46053 
46071 
46036 
45996 
45987 
45959 
45901 
45903 
45964 
46050 
46141 
46140 
46103 
46102 
46139 
46146 
46149 
46147 
46093 
46069 
46033 
45937 
45899 
45936 
45952 
46030 
46051 
46038 
46018 
45962 
45858 
45785 
45740 
45694 
45621 
45527 
45416 
45354 
45421 
45458 
45427 
45410 
45370 
45324 
45272 
45219 
45161 
45134 
45102 
45042 
44993 
44938 
44919 
44838 
44814 
44779 
44774 
44798 
44834 
44764 
44655 
44661 
44680 
44670 
44671 
44728 
44769 
44747 
44747 
44778 
44811 
44755 
44731 
44728 
44814 
44853 
44883 
44901 
44907 
44964 
44999 
45061 
45073 
45043 
44967 
44967 
45022 
45019 
45037 
45056 
45052 
45079 
45126 
45179 
45221 
45230 
45250 
45276 
45316 
45324 
45399 
45454 
45417 
45347 
45339 
45331 
45325 
45296 
45337 
45365 
45376 
45425 
45451 
45461 
45484 
45451 
45441 
45504 
45582 
45598 
45594 
45607 
45568 
45588 
45597 
45606 
45607 
45592 
45602 
45635 
45682 
45701 
45740 
45783 
45816 
45849 
45833 
45780 
45729 
45710 
45761 
45768 
45693 
45697 
45737 
45809 
45892 
45910 
45913 
45933 
45952 
45943 
45966 
45951 
45899 
45890 
45859 
45871 
45901 
45982 
46037 
46030 
46004 
46001 
46005 
46006 
46004 
46075 
46100 
46075 
46042 
46038 
45987 
45957 
45999 
46046 
46034 
45975 
45934 
45957 
46013 
46010 
46001 
45967 
45969 
45970 
45975 
45964 
45963 
45949 
45930 
45893 
45862 
45805 
45729 
45703 
45690 
45604 
45467 
45401 
45327 
45310 
45239 
45212 
45262 
45248 
45162 
45082 
45113 
45113 
45043 
45010 
44976 
44919 
44893 
44877 
44897 
44904 
44885 
44890 
44875 
44869 
44923 
44946 
44898 
44867 
44886 
44906 
44913 
44870 
44860 
44885 
44908 
44935 
44950 
44944 
44910 
44949 
44979 
44989 
45025 
45030 
45054 
45112 
45068 
45104 
45128 
45103 
45088 
45122 
45116 
45071 
45119 
45143 
45176 
45222 
45231 
45233 
45284 
45274 
45301 
45282 
45279 
45326 
45365 
45361 
45391 
45418 
45376 
45324 
45358 
45430 
45439 
45448 
45455 
45505 
45549 
45537 
45582 
45614 
45664 
45691 
45656 
45651 
45702 
45752 
45771 
45844 
45910 
45922 
45954 
45942 
45944 
45943 
45910 
45912 
45901 
45878 
45880 
45846 
45921 
45959 
45975 
46028 
46074 
46086 
46077 
46080 
46121 
46127 
46109 
46074 
46075 
46097 
46101 
46103 
46134 
46152 
46126 
46101 
46127 
46108 
46072 
46096 
46143 
46119 
46110 
46140 
46151 
46153 
46177 
46165 
46161 
46208 
46266 
46272 
46260 
46280 
46281 
46237 
46165 
46126 
46049 
46007 
45935 
45838 
45731 
45585 
45496 
45386 
45246 
45125 
44988 
44826 
44765 
44698 
44623 
44462 
44340 
44195 
44090 
44046 
43971 
43880 
43797 
43757 
43728 
43687 
43643 
43576 
43504 
43467 
43471 
43486 
43468 
43421 
43374 
43378 
43357 
43364 
43424 
43469 
43453 
43484 
43453 
43399 
43349 
43330 
43307 
43311 
43325 
43323 
43383 
43433 
43434 
43422 
43426 
43448 
43513 
43582 
43559 
43527 
43569 
43569 
43595 
43713 
43791 
43859 
43940 
43989 
43970 
43927 
43909 
43969 
43995 
43990 
44070 
44147 
44204 
44254 
44324 
44358 
44390 
44409 
44431 
44487 
44575 
44635 
44625 
44643 
44698 
44789 
44889 
44980 
44982 
45071 
45165 
45198 
45210 
45245 
45246 
45318 
45384 
45395 
45432 
45492 
45553 
45596 
45571 
45549 
45584 
45611 
45665 
45646 
45660 
45685 
45750 
45841 
45937 
45975 
45971 
46034 
46089 
46102 
46129 
46204 
46190 
46200 
46252 
46282 
46329 
46347 
46330 
46337 
46364 
46409 
46392 
46389 
46436 
46514 
46580 
46610 
46659 
46662 
46666 
46699 
46693 
46672 
46674 
46650 
46674 
46686 
46709 
46756 
46778 
46750 
46639 
46506 
46394 
46267 
46113 
45878 
45661 
45443 
45273 
45115 
44994 
44857 
44748 
44674 
44561 
44430 
44312 
44222 
44161 
44036 
43907 
43801 
43698 
43593 
43493 
43475 
43479 
43479 
43447 
43389 
43336 
43323 
43343 
43376 
43353 
43317 
43358 
43410 
43411 
43489 
43509 
43532 
43599 
43693 
43753 
43828 
43905 
43994 
44086 
44152 
44217 
44318 
44418 
44472 
44517 
44575 
44671 
44804 
44974 
45103 
45158 
45179 
45277 
45392 
45406 
45485 
45594 
45683 
45741 
45796 
45818 
45847 
45919 
46041 
46107 
46112 
46127 
46135 
46167 
46211 
46240 
46345 
46421 
46427 
46448 
46578 
46699 
46763 
46819 
46853 
46861 
46889 
46959 
47013 
47059 
47114 
47103 
47071 
47095 
47151 
47185 
47198 
47232 
47303 
47430 
47514 
47547 
47526 
47529 
47576 
47588 
47634 
47710 
47721 
47760 
47803 
47839 
47835 
47855 
47918 
47986 
48001 
48020 
48065 
48089 
48129 
48166 
48149 
48140 
48115 
48147 
48160 
48145 
48160 
48234 
48265 
48276 
48242 
48177 
48130 
48161 
48205 
48229 
48222 
48175 
48118 
48114 
48113 
48131 
48137 
48047 
47923 
47793 
47550 
47217 
46913 
46685 
46433 
46203 
45972 
45706 
45445 
45254 
45092 
44971 
44766 
44551 
44394 
44284 
44195 
44073 
43933 
43769 
43614 
43462 
43352 
43261 
43189 
43156 
43140 
43135 
43085 
43061 
43099 
43132 
43134 
43171 
43205 
43204 
43222 
43287 
43331 
43398 
43520 
43610 
43653 
43731 
43834 
43979 
44124 
44255 
44365 
44468 
44525 
44641 
44808 
44906 
44975 
45088 
45189 
45381 
45529 
45609 
45685 
45781 
45897 
46017 
46094 
46229 
46369 
46525 
46617 
46655 
46721 
46788 
46863 
46964 
47059 
47100 
47137 
47230 
47354 
47466 
47553 
47614 
47658 
47714 
47796 
47858 
47914 
47998 
48082 
48107 
48160 
48248 
48284 
48306 
48358 
48402 
48422 
48472 
48521 
48546 
48620 
48677 
48715 
48813 
48902 
48923 
48897 
48932 
48971 
49021 
49061 
49056 
49119 
49209 
49242 
49257 
49250 
49260 
49286 
49302 
49338 
49347 
49366 
49426 
49436 
49442 
49433 
49432 
49391 
49406 
49380 
49425 
49492 
49476 
49463 
49510 
49465 
49437 
49420 
49373 
49364 
49355 
49388 
49410 
49453 
49481 
49393 
49396 
49344 
49316 
49270 
49137 
48966 
48723 
48429 
48144 
47827 
47489 
47163 
46821 
46542 
46282 
45994 
45740 
45494 
45267 
45068 
44894 
44660 
44435 
44251 
44096 
43944 
43757 
43642 
43539 
43433 
43333 
43272 
43226 
43144 
43081 
43036 
43004 
42931 
42946 
43019 
43095 
43165 
43239 
43283 
43366 
43435 
43552 
43702 
43821 
43945 
44006 
44087 
44201 
44403 
44623 
44792 
44869 
44977 
45143 
45237 
45342 
45508 
45623 
45706 
45819 
45956 
46082 
46190 
46362 
46464 
46540 
46643 
46755 
46878 
46969 
47066 
47201 
47280 
47335 
47426 
47541 
47682 
47815 
47915 
47932 
47930 
48007 
48092 
48166 
48233 
48311 
48404 
48469 
48488 
48503 
48552 
48629 
48728 
48834 
48888 
48926 
48977 
49030 
49064 
49035 
49067 
49134 
49220 
49242 
49266 
49329 
49416 
49432 
49488 
49542 
49563 
49534 
49511 
49565 
49609 
49706 
49769 
49777 
49773 
49756 
49771 
49805 
49895 
49937 
49936 
49981 
49984 
49954 
49933 
49996 
50022 
50057 
50056 
50088 
50132 
50215 
50231 
50216 
50233 
50272 
50281 
50246 
50172 
50108 
50041 
49988 
49936 
49938 
49944 
49944 
49958 
49906 
49763 
49574 
49336 
49071 
48803 
48444 
48076 
47704 
47312 
47000 
46731 
46457 
46146 
45789 
45482 
45241 
44997 
44755 
44550 
44345 
44115 
43928 
43794 
43661 
43577 
43502 
43369 
43246 
43177 
43168 
43154 
43111 
43144 
43218 
43303 
43344 
43369 
43450 
43515 
43593 
43712 
43856 
44023 
44198 
44343 
44476 
44619 
44764 
44848 
44976 
45142 
45261 
45459 
45650 
45805 
45966 
46074 
46133 
46265 
46405 
46540 
46624 
46714 
46793 
46920 
47043 
47132 
47210 
47259 
47375 
47566 
47700 
47782 
47880 
47935 
48017 
48086 
48125 
48166 
48223 
48322 
48462 
48538 
48576 
48639 
48644 
48693 
48787 
48886 
48947 
49003 
49100 
49222 
49289 
49323 
49388 
49395 
49458 
49480 
49500 
49515 
49498 
49518 
49549 
49542 
49560 
49576 
49646 
49707 
49765 
49792 
49814 
49843 
49854 
49915 
49960 
49954 
49927 
49947 
49990 
50021 
50069 
50096 
50144 
50170 
50207 
50150 
50139 
50163 
50165 
50195 
50192 
50154 
50159 
50163 
50192 
50267 
50335 
50357 
50364 
50331 
50330 
50328 
50345 
50342 
50288 
50242 
50153 
50020 
49865 
49789 
49616 
49253 
48878 
48563 
48191 
47808 
47437 
47037 
46590 
46176 
45805 
45484 
45136 
44812 
44467 
44176 
43909 
43690 
43504 
43338 
43194 
43041 
42870 
42753 
42636 
42547 
42529 
42494 
42466 
42485 
42481 
42539 
42585 
42658 
42785 
42922 
43076 
43230 
43393 
43553 
43703 
43838 
43984 
44154 
44339 
44522 
44697 
44873 
45040 
45213 
45392 
45577 
45781 
45974 
46104 
46237 
46402 
46553 
46656 
46764 
46920 
47070 
47192 
47338 
47478 
47615 
47764 
47890 
48005 
48162 
48267 
48341 
48410 
48541 
48636 
48745 
48799 
48824 
48944 
49012 
49037 
49165 
49252 
49324 
49362 
49399 
49428 
49479 
49540 
49618 
49646 
49680 
49727 
49745 
49763 
49772 
49750 
49739 
49734 
49759 
49811 
49897 
50014 
50096 
50104 
50086 
50102 
50148 
50209 
50230 
50242 
50258 
50279 
50328 
50349 
50361 
50375 
50408 
50404 
50401 
50396 
50427 
50427 
50482 
50481 
50503 
50538 
50574 
50600 
50596 
50612 
50627 
50678 
50739 
50718 
50722 
50785 
50798 
50794 
50808 
50775 
50759 
50755 
50746 
50813 
50835 
50796 
50744 
50690 
50540 
50375 
50229 
49867 
49392 
48971 
48536 
48086 
47624 
47162 
46719 
46300 
45841 
45373 
44970 
44609 
44255 
43946 
43678 
43432 
43239 
43043 
42859 
42714 
42596 
42456 
42341 
42279 
42239 
42229 
42244 
42207 
42190 
42228 
42319 
42437 
42537 
42600 
42682 
42855 
43011 
43120 
43256 
43463 
43706 
43939 
44178 
44382 
44600 
44821 
45065 
45315 
45545 
45760 
45948 
46129 
46312 
46498 
46705 
46881 
47089 
47303 
47468 
47639 
47811 
48001 
48233 
48414 
48528 
48624 
48772 
48880 
48967 
49027 
49088 
49150 
49166 
49189 
49202 
49246 
49292 
49341 
49415 
49482 
49551 
49561 
49613 
49669 
49675 
49722 
49770 
49743 
49752 
49799 
49799 
49795 
49787 
49805 
49828 
49835 
49873 
49950 
49982 
49964 
50012 
50034 
50053 
50023 
49997 
49978 
50024 
50084 
50117 
50134 
50196 
50210 
50220 
50243 
50244 
50302 
50423 
50520 
50529 
50571 
50602 
50634 
50649 
50658 
50662 
50663 
50645 
50647 
50692 
50757 
50787 
50821 
50876 
50925 
50934 
50970 
50988 
50970 
50941 
50982 
51017 
51003 
51010 
51014 
51015 
51039 
51112 
51164 
51160 
51152 
51127 
51116 
51033 
50891 
50668 
50453 
50181 
49774 
49293 
48819 
48387 
47935 
47486 
47040 
46567 
46094 
45647 
45245 
44902 
44570 
44301 
44058 
43835 
43688 
43484 
43293 
43155 
43099 
43010 
42934 
42816 
42779 
42799 
42823 
42879 
42889 
42923 
42945 
43029 
43151 
43239 
43328 
43445 
43630 
43800 
43945 
44110 
44324 
44601 
44863 
45119 
45340 
45543 
45732 
45933 
46141 
46391 
46659 
46844 
47026 
47204 
47419 
47602 
47751 
47915 
48058 
48203 
48434 
48648 
48750 
48847 
48982 
49129 
49254 
49294 
49402 
49490 
49550 
49568 
49598 
49655 
49697 
49773 
49859 
49950 
49943 
49947 
50020 
50017 
50026 
50024 
49965 
49944 
49979 
50025 
50031 
49996 
49976 
50022 
50048 
50083 
50111 
50132 
50135 
50217 
50264 
50231 
50243 
50216 
50207 
50217 
50220 
50255 
50280 
50282 
50318 
50347 
50393 
50413 
50418 
50446 
50452 
50474 
50537 
50543 
50524 
50522 
50551 
50551 
50578 
50604 
50666 
50712 
50774 
50806 
50852 
50904 
50930 
50923 
50919 
50920 
50926 
50959 
51001 
51044 
51043 
51020 
51032 
51026 
51017 
51104 
51179 
51223 
51241 
51225 
51214 
51214 
51203 
51223 
51228 
51218 
51252 
51175 
51062 
50975 
50880 
50771 
50602 
50344 
49963 
49540 
49137 
48715 
48225 
47712 
47238 
46826 
46353 
45846 
45372 
45006 
44751 
44498 
44200 
43939 
43697 
43471 
43275 
43132 
43048 
42940 
42845 
42805 
42830 
42781 
42721 
42764 
42801 
42758 
42793 
42934 
43057 
43185 
43326 
43493 
43643 
43787 
43943 
44109 
44274 
44469 
44676 
44936 
45177 
45380 
45559 
45789 
46029 
46272 
46518 
46735 
46932 
47064 
47247 
47487 
47668 
47858 
48047 
48206 
48392 
48547 
48716 
48847 
48928 
49014 
49088 
49151 
49235 
49319 
49386 
49434 
49503 
49615 
49650 
49650 
49737 
49787 
49826 
49827 
49799 
49808 
49847 
49869 
49840 
49866 
49950 
50020 
50015 
49956 
49971 
49990 
50000 
50027 
50008 
50013 
50070 
50129 
50168 
50168 
50169 
50174 
50221 
50300 
50312 
50277 
50267 
50314 
50372 
50351 
50322 
50306 
50289 
50300 
50307 
50290 
50314 
50363 
50365 
50388 
50387 
50426 
50410 
50381 
50371 
50363 
50384 
50396 
50427 
50492 
50572 
50609 
50647 
50673 
50661 
50618 
50600 
50611 
50613 
50629 
50644 
50686 
50684 
50696 
50750 
50716 
50719 
50751 
50780 
50799 
50813 
50824 
50833 
50785 
50712 
50595 
50442 
50219 
49949 
49660 
49377 
49018 
48571 
48101 
47677 
47285 
46874 
46486 
46057 
45635 
45266 
44922 
44655 
44410 
44153 
43987 
43824 
43632 
43473 
43336 
43266 
43168 
43078 
43099 
43144 
43128 
43171 
43233 
43271 
43348 
43413 
43479 
43615 
43752 
43868 
44015 
44159 
44297 
44480 
44699 
44899 
45111 
45316 
45502 
45701 
45926 
46145 
46343 
46554 
46739 
46862 
46972 
47096 
47299 
47444 
47570 
47726 
47909 
48049 
48204 
48338 
48409 
48502 
48648 
48716 
48767 
48889 
48959 
49016 
49055 
49097 
49209 
49318 
49311 
49313 
49358 
49382 
49387 
49388 
49403 
49420 
49411 
49431 
49440 
49408 
49402 
49423 
49438 
49454 
49463 
49449 
49457 
49454 
49467 
49505 
49486 
49475 
49527 
49480 
49479 
49493 
49507 
49529 
49519 
49489 
49518 
49516 
49558 
49563 
49557 
49585 
49627 
49647 
49613 
49598 
49650 
49705 
49717 
49761 
49810 
49800 
49791 
49764 
49753 
49800 
49855 
49902 
49931 
49940 
49994 
50008 
50028 
50077 
50117 
50165 
50148 
50210 
50303 
50297 
50288 
50277 
50270 
50254 
50270 
50323 
50298 
50277 
50315 
50317 
50284 
50267 
50214 
50143 
50002 
49746 
49415 
49110 
48740 
48287 
47772 
47334 
46885 
46486 
46099 
45720 
45353 
44935 
44541 
44232 
43943 
43699 
43494 
43343 
43228 
43112 
43003 
42910 
42842 
42770 
42725 
42674 
42665 
42757 
42794 
42857 
42891 
42926 
42987 
43139 
43323 
43535 
43703 
43786 
43923 
44100 
44309 
44535 
44751 
44918 
45089 
45261 
45469 
45689 
45913 
46113 
46286 
46478 
46707 
46885 
47078 
47313 
47559 
47726 
47796 
47938 
48137 
48252 
48347 
48457 
48570 
48636 
48725 
48821 
48927 
48982 
49014 
49035 
49050 
49091 
49116 
49150 
49211 
49242 
49280 
49284 
49310 
49343 
49351 
49380 
49336 
49267 
49268 
49257 
49297 
49360 
49382 
49372 
49376 
49411 
49409 
49411 
49421 
49406 
49372 
49421 
49427 
49425 
49448 
49470 
49548 
49553 
49544 
49577 
49565 
49604 
49664 
49624 
49571 
49648 
49674 
49669 
49686 
49709 
49716 
49765 
49767 
49757 
49805 
49834 
49842 
49898 
49952 
49913 
49915 
49986 
50013 
50021 
50063 
50087 
50133 
50166 
50159 
50186 
50297 
50344 
50327 
50327 
50334 
50355 
50340 
50262 
50287 
50273 
50250 
50271 
50284 
50262 
50227 
50181 
50120 
50056 
49870 
49588 
49253 
48893 
48517 
48105 
47656 
47200 
46730 
46351 
45959 
45514 
45118 
44814 
44512 
44206 
43899 
43678 
43459 
43261 
43073 
42937 
42842 
42696 
42597 
42524 
42535 
42583 
42616 
42623 
42638 
42720 
42782 
42871 
42971 
43100 
43268 
43428 
43518 
43683 
43857 
44029 
44181 
44362 
44534 
44750 
44998 
45219 
45450 
45647 
45831 
46059 
46248 
46435 
46616 
46831 
47020 
47208 
47431 
47694 
47901 
48110 
48288 
48444 
48657 
48873 
49043 
49190 
49303 
49411 
49552 
49683 
49831 
49962 
49993 
50048 
50125 
50196 
50302 
50397 
50427 
50492 
50572 
50676 
50739 
50796 
50886 
51016 
51133 
51200 
51319 
51428 
51464 
51482 
51545 
51638 
51723 
51830 
51930 
51971 
52000 
52088 
52202 
52294 
52407 
52533 
52607 
52661 
52750 
52852 
52992 
53098 
53199 
53284 
53399 
53506 
53620 
53718 
53808 
53929 
54020 
54122 
54205 
54240 
54326 
54429 
54570 
54606 
54599 
54680 
54765 
54871 
55000 
55082 
55185 
55306 
55345 
55383 
55465 
55524 
55531 
55582 
55569 
55571 
55680 
55747 
55771 
55747 
55767 
55775 
55760 
55777 
55740 
55695 
55650 
55528 
55388 
55170 
54875 
54509 
54092 
53654 
53175 
52647 
52123 
51630 
51120 
50616 
50108 
49606 
49119 
48652 
48239 
47862 
47464 
47118 
46818 
46541 
46259 
46014 
45838 
45713 
45653 
45617 
45555 
45503 
45493 
45494 
45504 
45602 
45681 
45753 
45845 
45936 
46036 
46201 
46383 
46517 
46705 
46893 
47063 
47231 
47418 
47538 
47735 
47961 
48195 
48416 
48624 
48792 
48982 
49203 
49405 
49610 
49844 
50038 
50219 
50421 
50650 
50864 
51043 
51140 
51162 
51232 
51365 
51480 
51554 
51585 
51631 
51633 
51629 
51642 
51640 
51653 
51604 
51531 
51506 
51461 
51429 
51383 
51348 
51313 
51204 
51132 
51077 
50986 
50928 
50865 
50826 
50788 
50757 
50733 
50695 
50691 
50736 
50715 
50713 
50650 
50644 
50721 
50732 
50681 
50690 
50699 
50736 
50756 
50828 
50856 
50845 
50938 
50986 
50977 
51030 
51089 
51089 
51174 
51245 
51247 
51228 
51236 
51288 
51368 
51386 
51426 
51451 
51447 
51450 
51470 
51483 
51463 
51417 
51373 
51367 
51398 
51425 
51425 
51458 
51535 
51594 
51627 
51589 
51574 
51555 
51546 
51547 
51511 
51415 
51367 
51416 
51439 
51440 
51414 
51299 
51188 
51114 
50953 
50743 
50504 
50236 
49914 
49514 
49119 
48647 
48081 
47500 
46935 
46369 
45772 
45178 
44642 
44089 
43550 
43013 
42507 
42068 
41597 
41097 
40636 
40273 
39992 
39726 
39480 
39254 
39035 
38848 
38691 
38552 
38492 
38458 
38457 
38427 
38434 
38492 
38542 
38583 
38667 
38812 
38976 
39105 
39248 
39385 
39542 
39725 
39873 
40004 
40227 
40461 
40716 
40944 
41164 
41420 
41691 
41917 
42145 
42405 
42663 
42969 
43167 
43327 
43548 
43728 
43888 
44047 
44193 
44322 
44379 
44540 
44765 
44820 
44842 
44894 
44971 
45063 
45095 
45095 
45191 
45240 
45227 
45213 
45225 
45247 
45262 
45231 
45191 
45157 
45140 
45123 
45153 
45192 
45228 
45243 
45244 
45188 
45106 
45073 
45096 
45133 
45162 
45201 
45208 
45202 
45195 
45231 
45289 
45335 
45343 
45394 
45409 
45409 
45460 
45460 
45472 
45543 
45621 
45695 
45768 
45874 
45929 
45928 
46014 
46100 
46059 
46075 
46171 
46228 
46268 
46376 
46474 
46571 
46570 
46568 
46638 
46679 
46665 
46655 
46654 
46705 
46757 
46824 
46905 
46975 
46976 
46971 
47003 
47004 
47021 
47046 
47104 
47184 
47262 
47221 
47143 
47149 
47136 
47116 
47106 
47116 
47094 
47053 
46963 
46884 
46764 
46653 
46528 
46279 
45996 
45656 
45239 
44789 
44305 
43782 
43221 
42634 
42002 
41447 
40899 
40334 
39707 
39155 
38647 
38106 
37628 
37169 
36723 
36308 
35923 
35574 
35275 
35089 
34885 
34717 
34572 
34459 
34371 
34297 
34258 
34260 
34263 
34283 
34293 
34369 
34500 
34614 
34730 
34883 
35044 
35195 
35374 
35556 
35808 
36054 
36233 
36431 
36706 
37024 
37314 
37567 
37771 
38009 
38246 
38483 
38712 
38933 
39149 
39400 
39604 
39813 
40059 
40244 
40463 
40624 
40746 
40838 
40944 
41099 
41268 
41354 
41439 
41553 
41658 
41716 
41750 
41774 
41751 
41753 
41757 
41709 
41641 
41622 
41645 
41697 
41786 
41845 
41795 
41770 
41832 
41827 
41835 
41884 
41895 
41803 
41797 
41862 
41939 
42012 
42015 
42038 
42064 
42111 
42236 
42330 
42403 
42511 
42562 
42587 
42638 
42718 
42767 
42849 
42962 
42963 
42902 
42938 
43034 
43142 
43238 
43282 
43379 
43556 
43654 
43734 
43777 
43851 
43976 
44082 
44175 
44287 
44399 
44473 
44537 
44570 
44609 
44648 
44733 
44853 
45008 
45054 
45061 
45153 
45239 
45264 
45271 
45304 
45390 
45455 
45510 
45568 
45603 
45648 
45652 
45663 
45676 
45655 
45657 
45678 
45750 
45755 
45688 
45564 
45385 
45215 
44998 
44716 
44431 
44061 
43625 
43153 
42648 
42144 
41655 
41130 
40604 
40133 
39665 
39189 
38732 
38333 
37939 
37586 
37344 
37074 
36809 
36588 
36368 
36098 
35938 
35860 
35730 
35615 
35598 
35647 
35746 
35871 
35969 
36120 
36257 
36346 
36397 
36542 
36744 
36918 
37088 
37209 
37366 
37605 
37856 
38076 
38321 
38623 
38929 
39204 
39452 
39696 
39948 
40220 
40485 
40739 
41014 
41280 
41550 
41775 
41947 
42169 
42364 
42550 
42702 
42889 
43090 
43214 
43342 
43428 
43499 
43582 
43643 
43739 
43805 
43807 
43832 
43835 
43833 
43813 
43862 
43907 
43907 
43891 
43833 
43817 
43861 
43810 
43782 
43786 
43766 
43730 
43731 
43692 
43666 
43663 
43678 
43656 
43671 
43679 
43668 
43672 
43727 
43749 
43809 
43858 
43932 
44040 
44056 
44101 
44146 
44192 
44257 
44325 
44406 
44500 
44648 
44730 
44842 
44948 
45022 
45109 
45228 
45351 
45452 
45576 
45664 
45741 
45879 
46050 
46163 
46281 
46415 
46512 
46618 
46717 
46748 
46801 
46849 
46941 
47050 
47177 
47257 
47372 
47518 
47681 
47846 
47957 
47992 
48050 
48122 
48199 
48248 
48322 
48423 
48503 
48558 
48583 
48564 
48564 
48564 
48550 
48516 
48395 
48235 
48026 
47694 
47271 
46841 
46367 
45887 
45463 
45021 
44502 
43923 
43407 
42881 
42383 
41893 
41419 
