61137 
61186 
61265 
61312 
61346 
61445 
61482 
61487 
61518 
61537 
61576 
61612 
61653 
61658 
61675 
61644 
61685 
61743 
61750 
61817 
61844 
61880 
61850 
61880 
61944 
62021 
62004 
62012 
62009 
62069 
62114 
62103 
62131 
62163 
62143 
62156 
62168 
62140 
62149 
62158 
62183 
62166 
62198 
62227 
62245 
62240 
62208 
62229 
62224 
62193 
62191 
62278 
62311 
62316 
62325 
62378 
62393 
62381 
62362 
62378 
62431 
62426 
62407 
62395 
62424 
62507 
62520 
62527 
62550 
62576 
62587 
62594 
62569 
62569 
62602 
62591 
62612 
62656 
62685 
62681 
62668 
62665 
62660 
62658 
62643 
62623 
62606 
62585 
62562 
62566 
62586 
62646 
62647 
62598 
62607 
62632 
62623 
62612 
62647 
62676 
62669 
62681 
62674 
62638 
62637 
62651 
62629 
62617 
62564 
62493 
62451 
62422 
62335 
62220 
62095 
62001 
61931 
61860 
61774 
61685 
61581 
61474 
61387 
61321 
61219 
61132 
61048 
60960 
60926 
60869 
60795 
60734 
60696 
60724 
60731 
60663 
60587 
60531 
60490 
60468 
60455 
60475 
60499 
60506 
60467 
60434 
60468 
60473 
60445 
60474 
60463 
60471 
60517 
60508 
60532 
60585 
60629 
60630 
60612 
60624 
60647 
60666 
60698 
60752 
60822 
60863 
60922 
60988 
61021 
61092 
61149 
61174 
61218 
61261 
61301 
61311 
61329 
61343 
61398 
61457 
61476 
61529 
61574 
61631 
61697 
61725 
61773 
61785 
61748 
61756 
61793 
61828 
61795 
61825 
61900 
61923 
61915 
61899 
61906 
61932 
61976 
62015 
62076 
62093 
62092 
62122 
62153 
62136 
62114 
62149 
62150 
62133 
62154 
62194 
62164 
62092 
62073 
62106 
62153 
62163 
62174 
62224 
62260 
62286 
62253 
62261 
62288 
62279 
62262 
62304 
62308 
62323 
62276 
62302 
62352 
62395 
62414 
62421 
62421 
62413 
62402 
62443 
62419 
62399 
62382 
62394 
62427 
62420 
62366 
62451 
62499 
62493 
62519 
62525 
62499 
62452 
62413 
62460 
62510 
62538 
62570 
62525 
62499 
62494 
62502 
62513 
62527 
62487 
62441 
62449 
62440 
62449 
62444 
62411 
62347 
62276 
62225 
62157 
62059 
61980 
61915 
61838 
61753 
61674 
61552 
61450 
61364 
61228 
61128 
61047 
60970 
60867 
60785 
60721 
60622 
60588 
60545 
60486 
60422 
60344 
60274 
60207 
60210 
60230 
60194 
60220 
60237 
60210 
60239 
60298 
60340 
60317 
60339 
60333 
60294 
60272 
60267 
60303 
60372 
60426 
60431 
60462 
60486 
60506 
60488 
60525 
60555 
60627 
60682 
60735 
60759 
60741 
60803 
60880 
60870 
60872 
60905 
60983 
61041 
61085 
61135 
61134 
61145 
61228 
61312 
61365 
61417 
61452 
61465 
61479 
61498 
61500 
61545 
61582 
61602 
61599 
61604 
61583 
61539 
61568 
61619 
61605 
61570 
61574 
61600 
61670 
61705 
61729 
61698 
61685 
61717 
61771 
61809 
61813 
61841 
61912 
61940 
61970 
61957 
61990 
61979 
61955 
62001 
62013 
62037 
62055 
62087 
62107 
62102 
62130 
62215 
62287 
62290 
62280 
62356 
62365 
62332 
62295 
62328 
62388 
62390 
62383 
62358 
62390 
62425 
62462 
62446 
62459 
62492 
62465 
62489 
62604 
62606 
62593 
62574 
62540 
62528 
62517 
62553 
62557 
62547 
62520 
62511 
62513 
62476 
62430 
62436 
62503 
62558 
62554 
62574 
62579 
62560 
62564 
62517 
62509 
62570 
62588 
62545 
62523 
62454 
62396 
62378 
62417 
62422 
62402 
62351 
62292 
62275 
62240 
62169 
62117 
62059 
61969 
61842 
61717 
61599 
61533 
61450 
61322 
61200 
61090 
60996 
60943 
60851 
60785 
60743 
60676 
60573 
60518 
60475 
60451 
60408 
60332 
60316 
60316 
60312 
60331 
60342 
60318 
60316 
60359 
60356 
60369 
60359 
60326 
60359 
60349 
60340 
60371 
60359 
60388 
60428 
60442 
60451 
60446 
60500 
60557 
60590 
60617 
60653 
60711 
60732 
60825 
60884 
60824 
60765 
60776 
60744 
60761 
60840 
61001 
61170 
61242 
61230 
61224 
61271 
61304 
61330 
61338 
61312 
61312 
61369 
61390 
61367 
61354 
61353 
61382 
61446 
61494 
61516 
61523 
61550 
61616 
61631 
61626 
61616 
61611 
61636 
61676 
61728 
61755 
61731 
61731 
61729 
61727 
61730 
61748 
61779 
61757 
61778 
61793 
61820 
61858 
61890 
61915 
61896 
61887 
61888 
61906 
61954 
62025 
62066 
62110 
62180 
62164 
62127 
62103 
62089 
62073 
62115 
62130 
62111 
62098 
62116 
62130 
62155 
62149 
62149 
62165 
62180 
62164 
62188 
62234 
62256 
62273 
62246 
62243 
62277 
62268 
62270 
62263 
62240 
62271 
62318 
62304 
62322 
62311 
62291 
62304 
62309 
62277 
62299 
62377 
62372 
62360 
62318 
62282 
62239 
62239 
62261 
62299 
62330 
62359 
62359 
62336 
62325 
62317 
62280 
62275 
62246 
62218 
62196 
62157 
62127 
62082 
62028 
61953 
61853 
61722 
61616 
61525 
61499 
61413 
61283 
61250 
61189 
61109 
61012 
60885 
60763 
60659 
60599 
60547 
60465 
60433 
60367 
60329 
60331 
60362 
60313 
60272 
60269 
60248 
60182 
60193 
60231 
60274 
60233 
60211 
60236 
60243 
60276 
60366 
60353 
60327 
60397 
60442 
60442 
60464 
60515 
60580 
60642 
60634 
60603 
60632 
60679 
60696 
60703 
60715 
60697 
60692 
60731 
60799 
60873 
60900 
60944 
60980 
61010 
61040 
61069 
61099 
61068 
61091 
61109 
61120 
61148 
61240 
61274 
61304 
61338 
61370 
61363 
61387 
61425 
61454 
61484 
61536 
61557 
61523 
61538 
61563 
61598 
61627 
61650 
61626 
61660 
61682 
61688 
61708 
61717 
61722 
61756 
61760 
61806 
61875 
61936 
61918 
61906 
61868 
61903 
61942 
61963 
61996 
62019 
62002 
61999 
62030 
62086 
62112 
62135 
62148 
62165 
62171 
62168 
62161 
62195 
62220 
62240 
62243 
62230 
62225 
62249 
62253 
62294 
62304 
62281 
62298 
62346 
62387 
62376 
62342 
62301 
62337 
62386 
62404 
62395 
62386 
62389 
62377 
62359 
62361 
62395 
62420 
62466 
62472 
62440 
62394 
62383 
62410 
62404 
62345 
62313 
62300 
62309 
62336 
62369 
62310 
62227 
62217 
62114 
62013 
61949 
61888 
61864 
61818 
61702 
61548 
61429 
61318 
61223 
61140 
61074 
60993 
60905 
60833 
60771 
60672 
60562 
60528 
60530 
60519 
60460 
60405 
60346 
60308 
60285 
60268 
60246 
60245 
60293 
60279 
60277 
60285 
60234 
60189 
60169 
60183 
60182 
60193 
60248 
60282 
60359 
60368 
60348 
60375 
60466 
60544 
60573 
60594 
60608 
60677 
60745 
60861 
60896 
60872 
60904 
60983 
61047 
61146 
61170 
61179 
61191 
61182 
61185 
61235 
61255 
61281 
61335 
61372 
61413 
61421 
61468 
61586 
61673 
61678 
61691 
61711 
61718 
61714 
61708 
61689 
61715 
61725 
61761 
61804 
61866 
61889 
61897 
61924 
61960 
61975 
61978 
61978 
61964 
61941 
61927 
61947 
61934 
61959 
62021 
62059 
62029 
61991 
62069 
62167 
62177 
62162 
62138 
62197 
62265 
62317 
62360 
62323 
62266 
62263 
62290 
62261 
62262 
62263 
62271 
62276 
62318 
62370 
62405 
62467 
62535 
62565 
62588 
62570 
62535 
62502 
62487 
62535 
62548 
62571 
62599 
62582 
62540 
62542 
62561 
62576 
62543 
62519 
62507 
62491 
62524 
62541 
62516 
62507 
62488 
62528 
62540 
62520 
62493 
62503 
62509 
62490 
62435 
62389 
62405 
62397 
62287 
62202 
62178 
62178 
62144 
62088 
62004 
61882 
61798 
61720 
61614 
61465 
61372 
61311 
61244 
61163 
61089 
60977 
60917 
60849 
60771 
60669 
60608 
60549 
60508 
60492 
60466 
60412 
60393 
60363 
60314 
60232 
60168 
60170 
60160 
60148 
60182 
60223 
60195 
60191 
60194 
60215 
60246 
60232 
60186 
60217 
60280 
60290 
60321 
60349 
60391 
60416 
60438 
60488 
60508 
60555 
60549 
60582 
60635 
60690 
60719 
60765 
60782 
60819 
60868 
60879 
60876 
60958 
61037 
61105 
61142 
61166 
61208 
61229 
61268 
61275 
61285 
61311 
61365 
61400 
61421 
61479 
61530 
61503 
61461 
61488 
61521 
61532 
61547 
61625 
61667 
61675 
61662 
61656 
61645 
61665 
61689 
61688 
61730 
61760 
61793 
61804 
61801 
61823 
61860 
61880 
61862 
61838 
61860 
61952 
62002 
61970 
62016 
62021 
62019 
62048 
62090 
62102 
62131 
62143 
62156 
62120 
62076 
62066 
62095 
62124 
62134 
62173 
62225 
62236 
62246 
62295 
62327 
62312 
62298 
62386 
62492 
62498 
62453 
62437 
62422 
62374 
62362 
62400 
62419 
62448 
62448 
62428 
62432 
62438 
62454 
62455 
62478 
62480 
62441 
62429 
62439 
62444 
62445 
62460 
62449 
62482 
62501 
62490 
62475 
62484 
62473 
62476 
62438 
62378 
62326 
62278 
62226 
62192 
62166 
62141 
62095 
61994 
61861 
61761 
61655 
61547 
61456 
61399 
61318 
61205 
61079 
60933 
60847 
60766 
60669 
60636 
60633 
60617 
60572 
60514 
60445 
60384 
60408 
60399 
60386 
60368 
60338 
60331 
60323 
60270 
60281 
60277 
60335 
60368 
60376 
60382 
60394 
60433 
60457 
60477 
60575 
60553 
60503 
60469 
60514 
60573 
60584 
60589 
60647 
60641 
60621 
60625 
60647 
60703 
60762 
60858 
60846 
60831 
60908 
60993 
61025 
61085 
61123 
61120 
61098 
61116 
61130 
61137 
61124 
61116 
61142 
61187 
61245 
61298 
61338 
61326 
61338 
61433 
61473 
61476 
61486 
61450 
61430 
61458 
61531 
61600 
61625 
61604 
61666 
61727 
61775 
61781 
61736 
61759 
61766 
61756 
61793 
61834 
61893 
61875 
61872 
61914 
61954 
61973 
61971 
61941 
61906 
61967 
62052 
62087 
62090 
62072 
62101 
62127 
62139 
62122 
62142 
62116 
62116 
62170 
62191 
62210 
62246 
62277 
62263 
62280 
62271 
62252 
62252 
62260 
62246 
62271 
62288 
62271 
62267 
62279 
62289 
62276 
62281 
62312 
62308 
62274 
62322 
62364 
62380 
62375 
62327 
62324 
62363 
62366 
62334 
62346 
62342 
62324 
62323 
62324 
62321 
62272 
62223 
62171 
62134 
62120 
62080 
62005 
61913 
61843 
61734 
61616 
61498 
61415 
61351 
61261 
61192 
61156 
61119 
61014 
60940 
60877 
60830 
60819 
60811 
60766 
60670 
60602 
60571 
60547 
60526 
60500 
60474 
60475 
60492 
60504 
60474 
60460 
60427 
60416 
60436 
60452 
60443 
60442 
60447 
60487 
60556 
60620 
60627 
60596 
60605 
60666 
60699 
60709 
60688 
60710 
60763 
60791 
60850 
60923 
60977 
61016 
61029 
61051 
61115 
61197 
61201 
61186 
61190 
61225 
61268 
61315 
61349 
61377 
61358 
61367 
61438 
61405 
61391 
61404 
61413 
61405 
61401 
61440 
61490 
61529 
61551 
61581 
61600 
61602 
61573 
61585 
61632 
61658 
61688 
61699 
61678 
61718 
61748 
61773 
61781 
61783 
61762 
61748 
61755 
61842 
61898 
61908 
61878 
61874 
61858 
61857 
61907 
61931 
61962 
61964 
61964 
61992 
62005 
61965 
61980 
62042 
62093 
62123 
62118 
62091 
62143 
62187 
62146 
62170 
62196 
62203 
62222 
62226 
62228 
62244 
62253 
62280 
62276 
62248 
62258 
62277 
62280 
62315 
62322 
62321 
62353 
62363 
62345 
62352 
62366 
62377 
62355 
62315 
62335 
62395 
62364 
62333 
62328 
62326 
62304 
62296 
62263 
62200 
62187 
62184 
62115 
62009 
61946 
61868 
61732 
61631 
61550 
61485 
61408 
61298 
61161 
61112 
61057 
61029 
61017 
60913 
60800 
60744 
60748 
60706 
60666 
60626 
60579 
60600 
60596 
60535 
60517 
60531 
60476 
60472 
60468 
60458 
60462 
60460 
60451 
60472 
60466 
60443 
60412 
60432 
60507 
60527 
60497 
60525 
60551 
60579 
60594 
60603 
60669 
60711 
60777 
60795 
60807 
60843 
60865 
60884 
60937 
60969 
60978 
60984 
60996 
61042 
61122 
61158 
61125 
61128 
61196 
61227 
61256 
61294 
61311 
61351 
61370 
61382 
61375 
61368 
61363 
61395 
61412 
61449 
61469 
61482 
61551 
61607 
61613 
61601 
61625 
61651 
61663 
61715 
61715 
61727 
61685 
61646 
61692 
61716 
61753 
61843 
61883 
61914 
61904 
61851 
61826 
61836 
61898 
61944 
61979 
62025 
62082 
62093 
62061 
62068 
62085 
62085 
62135 
62163 
62226 
62283 
62257 
62229 
62255 
62255 
62240 
62281 
62325 
62337 
62318 
62300 
62357 
62385 
62384 
62408 
62417 
62371 
62326 
62290 
62282 
62365 
62395 
62392 
62344 
62334 
62346 
62345 
62372 
62439 
62482 
62433 
62387 
62369 
62335 
62295 
62317 
62346 
62322 
62309 
62325 
62319 
62326 
62270 
62179 
62138 
62118 
62080 
62051 
61941 
61816 
61744 
61706 
61605 
61519 
61436 
61347 
61277 
61185 
61090 
61035 
60999 
60930 
60878 
60773 
60713 
60703 
60695 
60667 
60615 
60571 
60555 
60556 
60551 
60478 
60462 
60524 
60520 
60511 
60504 
60548 
60592 
60628 
60664 
60659 
60652 
60643 
60614 
60624 
60621 
60670 
60704 
60712 
60695 
60716 
60753 
60804 
60821 
60816 
60832 
60899 
60950 
60939 
60959 
61012 
61062 
61092 
61131 
61150 
61126 
61158 
61189 
61260 
61295 
61327 
61356 
61369 
61395 
61416 
61379 
61374 
61432 
61483 
61516 
61512 
61485 
61504 
61519 
61569 
61611 
61659 
61691 
61701 
61707 
61693 
61705 
61687 
61681 
61743 
61830 
61810 
61789 
61799 
61826 
61843 
61837 
61845 
61870 
61909 
61898 
61906 
61934 
61940 
61876 
61891 
61959 
62009 
62049 
62035 
62033 
62038 
62031 
62075 
62138 
62163 
62158 
62147 
62152 
62115 
62092 
62119 
62188 
62200 
62210 
62259 
62272 
62228 
62145 
62091 
62149 
62180 
62191 
62232 
62262 
62254 
62202 
62200 
62226 
62244 
62246 
62252 
62267 
62264 
62245 
62216 
62206 
62216 
62246 
62236 
62218 
62222 
62205 
62220 
62190 
62164 
62149 
62193 
62247 
62260 
62242 
62181 
62136 
62098 
62089 
62044 
61986 
61906 
61774 
61634 
61534 
61447 
61377 
61279 
61164 
61074 
60993 
60923 
60873 
60804 
60788 
60730 
60649 
60589 
60571 
60512 
60455 
60415 
60398 
60394 
60428 
60431 
60425 
60391 
60347 
60326 
60328 
60352 
60404 
60461 
60456 
60444 
60500 
60518 
60592 
60624 
60574 
60532 
60504 
60522 
60596 
60656 
60691 
60684 
60668 
60683 
60762 
60809 
60833 
60846 
60852 
60883 
60904 
60926 
60973 
61011 
61024 
61073 
61127 
61212 
61241 
61274 
61333 
61354 
61389 
61392 
61363 
61373 
61399 
61345 
61362 
61449 
61484 
61485 
61480 
61500 
61563 
61551 
61524 
61560 
61573 
61601 
61624 
61617 
61636 
61642 
61668 
61631 
61635 
61690 
61708 
61727 
61724 
61711 
61752 
61781 
61843 
61886 
61923 
61910 
61871 
61896 
61905 
61906 
61960 
61968 
61940 
61927 
61950 
61985 
61962 
61958 
61928 
61961 
62053 
62145 
62195 
62172 
62120 
62102 
62091 
62088 
62081 
62095 
62120 
62177 
62201 
62219 
62215 
62232 
62288 
62344 
62349 
62321 
62308 
62332 
62322 
62300 
62309 
62318 
62352 
62322 
62281 
62285 
62298 
62306 
62328 
62352 
62357 
62338 
62314 
62254 
62247 
62237 
62187 
62119 
62030 
61973 
61910 
61804 
61738 
61667 
61586 
61526 
61467 
61372 
61299 
61237 
61161 
61077 
61018 
60960 
60936 
60897 
60860 
60800 
60763 
60746 
60731 
60719 
60675 
60684 
60680 
60653 
60657 
60643 
60588 
60561 
60569 
60603 
60672 
60703 
60688 
60682 
60704 
60721 
60727 
60765 
60811 
60838 
60881 
60942 
60923 
60881 
60898 
60936 
60985 
61014 
61013 
61022 
61020 
61035 
61045 
61135 
61193 
61221 
61250 
61302 
61344 
61400 
61454 
61498 
61498 
61475 
61469 
61499 
61497 
61510 
61563 
61577 
61581 
61601 
61582 
61597 
61614 
61633 
61626 
61654 
61692 
61692 
61728 
61763 
61752 
61745 
61731 
61738 
61807 
61832 
61857 
61922 
61963 
62000 
61972 
61929 
61989 
62041 
62027 
62057 
62098 
62164 
62168 
62135 
62105 
62086 
62075 
62075 
62077 
62154 
62215 
62199 
62168 
62154 
62185 
62239 
62254 
62257 
62282 
62251 
62227 
62261 
62291 
62277 
62270 
62295 
62321 
62332 
62304 
62278 
62298 
62332 
62343 
62360 
62369 
62343 
62338 
62329 
62321 
62299 
62253 
62275 
62339 
62372 
62387 
62396 
62378 
62365 
62369 
62339 
62289 
62311 
62290 
62256 
62265 
62226 
62155 
62108 
62023 
61978 
61937 
61923 
61910 
61804 
61712 
61650 
61557 
61476 
61359 
61278 
61168 
61063 
60986 
60915 
60853 
60871 
60843 
60822 
60815 
60771 
60697 
60696 
60661 
60583 
60562 
60558 
60570 
60585 
60629 
60623 
60579 
60566 
60526 
60479 
60456 
60453 
60519 
60573 
60594 
60593 
60596 
60612 
60645 
60642 
60660 
60718 
60755 
60757 
60774 
60821 
60873 
60940 
60990 
61003 
60997 
60973 
60991 
61043 
61084 
61140 
61135 
61118 
61188 
61261 
61302 
61365 
61377 
61392 
61397 
61441 
61482 
61470 
61490 
61571 
61560 
61539 
61588 
61645 
61673 
61683 
61672 
61677 
61683 
61686 
61711 
61732 
61731 
61747 
61765 
61799 
61827 
61880 
61904 
61916 
61922 
61950 
61967 
62001 
62011 
62031 
62078 
62047 
62009 
62022 
62053 
62033 
62044 
62077 
62172 
62242 
62273 
62301 
62322 
62315 
62348 
62369 
62396 
62406 
62390 
62380 
62369 
62375 
62371 
62423 
62475 
62492 
62489 
62462 
62449 
62416 
62420 
62389 
62341 
62353 
62425 
62471 
62459 
62463 
62482 
62510 
62573 
62551 
62548 
62549 
62533 
62502 
62478 
62494 
62526 
62567 
62538 
62503 
62536 
62549 
62554 
62567 
62556 
62532 
62503 
62528 
62486 
62414 
62398 
62368 
62350 
62294 
62212 
62155 
62046 
61974 
61906 
61813 
61727 
61617 
61519 
61403 
61326 
61272 
61172 
61085 
61013 
60977 
60946 
60902 
60851 
60826 
60798 
60705 
60639 
60598 
60620 
60601 
60561 
60594 
60612 
60586 
60585 
60566 
60544 
60563 
60589 
60607 
60601 
60601 
60600 
60599 
60634 
60692 
60741 
60786 
60759 
60711 
60705 
60760 
60810 
60785 
60758 
60791 
60834 
60912 
60958 
60946 
60951 
60993 
61031 
61104 
61174 
61237 
61264 
61272 
61291 
61273 
61249 
61256 
61292 
61312 
61318 
61439 
61491 
61474 
61472 
61470 
61499 
61550 
61592 
61588 
61569 
61565 
61531 
61510 
61534 
61533 
61530 
61528 
61512 
61545 
61580 
61602 
61624 
61638 
61656 
61688 
61725 
61767 
61809 
61795 
61784 
61822 
61856 
61842 
61849 
61809 
61749 
61740 
61757 
61823 
61922 
61963 
61966 
61944 
61961 
61953 
61968 
62039 
62048 
62006 
62016 
62035 
62044 
62053 
62064 
62145 
62186 
62168 
62180 
62165 
62166 
62189 
62176 
62155 
62158 
62175 
62169 
62184 
62201 
62227 
62248 
62235 
62217 
62230 
62220 
62207 
62185 
62184 
62230 
62232 
62258 
62274 
62233 
62226 
62260 
62285 
62274 
62256 
62230 
62245 
62238 
62194 
62170 
62137 
62102 
62058 
62050 
62032 
62002 
62005 
61968 
61870 
61840 
61877 
61856 
61754 
61664 
61584 
61453 
61352 
61288 
61196 
61055 
60901 
60774 
60662 
60546 
60443 
60413 
60396 
60331 
60242 
60210 
60212 
60174 
60105 
60051 
60009 
59999 
60009 
60032 
60003 
59964 
59961 
59951 
59970 
59975 
59983 
60062 
60116 
60170 
60169 
60180 
60148 
60113 
60152 
60220 
60268 
60236 
60224 
60287 
60385 
60435 
60454 
60503 
60553 
60598 
60614 
60703 
60798 
60815 
60845 
60866 
60915 
60911 
60939 
60999 
61019 
61028 
61023 
61057 
61100 
61146 
61185 
61182 
61202 
61228 
61199 
61236 
61315 
61395 
61422 
61421 
61402 
61376 
61399 
61441 
61429 
61395 
61436 
61460 
61421 
61432 
61466 
61451 
61467 
61569 
61625 
61682 
61711 
61687 
61663 
61665 
61703 
61716 
61777 
61792 
61763 
61774 
61846 
61851 
61853 
61886 
61888 
61895 
61923 
61961 
61990 
61992 
62023 
62081 
62132 
62143 
62138 
62129 
62151 
62174 
62168 
62134 
62104 
62146 
62183 
62221 
62280 
62292 
62316 
62317 
62329 
62311 
62280 
62267 
62274 
62308 
62360 
62405 
62412 
62375 
62344 
62299 
62265 
62289 
62348 
62380 
62350 
62308 
62324 
62271 
62211 
62232 
62271 
62279 
62257 
62162 
62082 
62042 
61980 
61928 
61939 
61920 
61835 
61814 
61769 
61629 
61482 
61387 
61352 
61254 
61140 
61078 
61037 
61005 
60973 
60980 
60990 
60931 
60890 
60846 
60785 
60754 
60755 
60726 
60702 
60669 
60707 
60730 
60729 
60707 
60714 
60698 
60721 
60746 
60768 
60790 
60799 
60785 
60794 
60846 
60878 
60875 
60871 
60876 
60931 
61009 
60983 
60953 
61008 
61103 
61187 
61225 
61250 
61297 
61370 
61435 
61427 
61409 
61417 
61423 
61448 
61478 
61567 
61583 
61574 
61589 
61579 
61553 
61530 
61529 
61574 
61616 
61677 
61711 
61717 
61703 
61690 
61670 
61677 
61723 
61700 
61667 
61664 
61708 
61741 
61732 
61747 
61780 
61781 
61802 
61781 
61757 
61755 
61763 
61766 
61801 
61796 
61805 
61833 
61916 
61987 
62021 
62026 
62023 
62028 
62016 
62022 
62047 
62076 
62100 
62128 
62083 
62056 
62039 
62082 
62118 
62099 
62055 
62057 
62087 
62057 
62069 
62100 
62099 
62102 
62107 
62093 
62106 
62078 
62068 
62116 
62135 
62139 
62151 
62185 
62185 
62161 
62155 
62139 
62143 
62185 
62190 
62179 
62129 
62114 
62125 
62130 
62098 
62083 
62082 
62087 
62077 
62075 
62062 
62028 
62008 
61990 
61974 
62001 
62006 
62022 
62061 
62030 
62024 
62016 
61947 
61956 
62013 
61984 
61928 
61904 
61839 
61768 
61718 
61649 
61541 
61453 
61403 
61337 
61263 
61207 
61161 
61105 
61035 
60960 
60867 
60772 
60729 
60690 
60721 
60793 
60744 
60677 
60653 
60635 
60610 
60579 
60526 
60509 
60531 
60562 
60567 
60552 
60502 
60516 
60608 
60618 
60624 
60641 
60589 
60562 
60593 
60647 
60668 
60650 
60632 
60641 
60683 
60726 
60711 
60754 
60819 
60891 
60977 
60983 
61013 
61023 
61050 
61081 
61146 
61193 
61251 
61274 
61285 
61289 
61291 
61327 
61369 
61418 
61496 
61511 
61470 
61468 
61473 
61473 
61497 
61546 
61513 
61543 
61600 
61573 
61559 
61564 
61564 
61552 
61511 
61496 
61519 
61516 
61553 
61590 
61593 
61614 
61615 
61605 
61591 
61556 
61586 
61635 
61653 
61667 
61671 
61703 
61745 
61692 
61662 
61653 
61635 
61640 
61716 
61805 
61831 
61799 
61778 
61751 
61760 
61762 
61758 
61755 
61779 
61783 
61779 
61768 
61744 
61741 
61744 
61779 
61852 
61875 
61846 
61819 
61789 
61809 
61845 
61912 
61954 
61910 
61904 
61887 
61861 
61861 
61906 
61951 
61954 
61956 
61962 
61932 
61883 
61872 
61887 
61936 
61956 
61952 
61968 
61971 
61954 
61940 
61997 
61979 
61961 
61952 
61943 
61955 
61977 
61985 
61962 
61990 
61952 
61906 
61928 
61984 
61997 
61962 
61945 
61958 
61942 
61910 
61857 
61824 
61811 
61815 
61773 
61724 
61652 
61572 
61508 
61440 
61373 
61358 
61366 
61372 
61326 
61246 
61179 
61165 
61157 
61114 
61058 
60994 
60930 
60934 
60963 
60938 
60898 
60875 
60851 
60782 
60758 
60734 
60727 
60721 
60677 
60673 
60692 
60674 
60670 
60677 
60691 
60733 
60741 
60762 
60781 
60779 
60757 
60768 
60768 
60774 
60786 
60786 
60797 
60793 
60820 
60866 
60946 
60982 
60980 
61002 
61044 
61001 
60920 
60900 
60907 
60879 
60899 
60961 
61008 
61009 
60969 
60977 
61026 
61001 
60988 
61023 
61046 
61103 
61175 
61138 
61124 
61169 
61250 
61303 
61290 
61289 
61265 
61266 
61291 
61278 
61301 
61321 
61344 
61353 
61334 
61308 
61342 
61415 
61462 
61490 
61507 
61460 
61407 
61395 
61406 
61433 
61465 
61501 
61490 
61499 
61517 
61508 
61513 
61562 
61590 
61602 
61657 
61681 
61694 
61728 
61742 
61711 
61737 
61765 
61785 
61807 
61789 
61754 
61745 
61748 
61716 
61684 
61695 
61702 
61769 
61805 
61816 
61819 
61765 
61750 
61744 
61741 
61755 
61781 
61772 
61782 
61793 
61797 
61771 
61783 
61824 
61821 
61806 
61834 
61841 
61792 
61733 
61730 
61737 
61713 
61680 
61679 
61681 
61678 
61645 
61667 
61678 
61675 
61587 
61544 
61475 
61424 
61423 
61417 
61403 
61367 
61322 
61334 
61376 
61417 
61402 
61414 
61400 
61342 
61365 
61394 
61390 
61383 
61383 
61334 
61263 
61224 
61260 
61299 
61327 
61305 
61342 
61385 
61355 
61344 
61351 
61372 
61351 
61335 
61380 
61411 
61446 
61478 
61490 
61489 
61468 
61475 
61527 
61552 
61533 
61520 
61507 
61534 
61589 
61639 
61694 
61700 
61690 
61689 
61624 
61544 
61570 
61577 
61592 
61657 
61722 
61745 
61732 
61723 
61673 
61657 
61704 
61750 
61774 
61764 
61703 
61667 
61720 
61724 
61735 
61785 
61833 
61866 
61907 
61925 
61873 
61831 
61871 
61902 
61898 
61918 
61893 
61856 
61875 
61910 
61948 
62019 
62046 
62038 
62027 
62020 
62047 
62022 
61997 
62020 
62008 
62009 
62002 
61983 
61977 
62013 
62016 
61993 
62036 
62035 
62072 
62106 
62121 
62124 
62126 
62108 
62107 
62122 
62104 
62134 
62149 
62122 
62119 
62114 
62103 
62158 
62257 
62279 
62289 
62284 
62302 
62296 
62261 
62295 
62348 
62330 
62293 
62224 
62182 
62180 
62135 
62117 
62194 
62244 
62247 
62191 
62183 
62204 
62189 
62212 
62264 
62270 
62238 
62214 
62208 
62175 
62159 
62183 
62239 
62229 
62199 
62198 
62209 
62220 
62191 
62200 
62213 
62203 
62212 
62222 
62196 
62155 
62133 
62126 
62106 
62112 
62127 
62110 
62120 
62141 
62128 
62098 
62034 
61985 
61991 
62049 
62086 
62133 
62183 
62195 
62203 
62250 
62262 
62246 
62232 
62175 
62126 
62129 
62116 
62127 
62152 
62126 
62122 
62156 
62156 
62113 
62125 
62181 
62166 
62152 
62181 
62167 
62144 
62130 
62127 
62138 
62135 
62085 
62071 
62073 
62029 
62065 
62082 
62035 
61974 
61968 
61961 
61998 
62025 
62012 
62011 
62060 
62083 
62103 
62091 
62069 
62024 
62006 
62020 
62032 
62070 
62089 
62080 
62047 
61988 
61925 
61925 
61935 
61990 
62028 
62011 
61981 
61962 
61964 
61963 
61937 
61952 
61947 
61930 
61954 
61939 
61883 
61844 
61837 
61864 
61905 
61920 
61918 
61903 
61861 
61797 
61791 
61839 
61887 
61861 
61901 
61949 
61924 
61878 
61857 
61820 
61785 
61814 
61798 
61771 
61709 
61674 
61692 
61743 
61780 
61818 
61822 
61822 
61800 
61798 
61833 
61797 
61739 
61748 
61760 
61804 
61814 
61819 
61818 
61783 
61764 
61792 
61820 
61798 
61785 
61792 
61812 
61750 
61717 
61688 
61678 
61689 
61692 
61709 
61729 
61723 
61731 
61724 
61708 
61696 
61697 
61698 
61686 
61672 
61692 
61715 
61684 
61652 
61647 
61674 
61701 
61707 
61694 
61692 
61697 
61708 
61671 
61656 
61699 
61722 
61701 
61701 
61675 
61665 
61658 
61646 
61630 
61602 
61602 
61605 
61600 
61585 
61616 
61624 
61601 
61579 
61569 
61555 
61556 
61574 
61555 
61557 
61566 
61578 
61594 
61536 
61490 
61476 
61495 
61520 
61570 
61599 
61621 
61603 
61580 
61564 
61546 
61542 
61568 
61590 
61602 
61584 
61541 
61547 
61565 
61549 
61519 
61528 
61537 
61538 
61502 
61518 
61518 
61510 
61529 
61531 
61535 
61502 
61470 
61498 
61523 
61524 
61517 
61570 
61579 
61534 
61460 
61439 
61482 
61483 
61458 
61521 
61569 
61539 
61510 
61506 
61500 
61532 
61516 
61426 
61398 
61456 
61476 
61464 
61448 
61500 
61512 
61505 
61487 
61490 
61473 
61435 
61413 
61461 
61462 
61468 
61496 
61557 
61507 
61447 
61445 
61411 
61381 
61379 
61363 
61367 
61357 
61300 
61356 
61379 
61383 
61354 
61327 
61344 
61367 
61355 
61334 
61361 
61416 
61383 
61342 
61347 
61360 
61357 
61388 
61388 
61321 
61317 
61326 
61348 
61330 
61281 
61307 
61378 
61387 
61341 
61354 
61353 
61335 
61387 
61443 
61427 
61449 
61452 
61387 
61355 
61339 
61312 
61357 
61396 
61386 
61387 
61373 
61363 
61327 
61336 
61357 
61341 
61356 
61374 
61390 
61374 
61356 
61337 
61355 
61347 
61352 
61337 
61334 
61303 
61209 
61176 
61273 
61324 
61311 
61341 
61361 
61334 
61314 
61302 
61291 
61316 
61323 
61375 
61374 
61339 
61329 
61285 
61286 
61307 
61285 
61291 
61276 
61245 
61257 
61261 
61232 
61213 
61238 
61277 
61291 
61257 
61306 
61366 
61348 
61358 
61360 
61367 
61337 
61319 
61320 
61334 
61355 
61348 
61282 
61231 
61253 
61264 
61235 
61268 
61289 
61283 
61301 
61327 
61343 
61301 
61294 
61323 
61306 
61321 
61369 
61364 
61368 
61353 
61331 
61314 
61314 
61278 
61279 
61308 
61336 
61307 
61284 
61318 
61367 
61386 
61374 
61382 
61396 
61382 
61343 
61329 
61325 
61299 
61290 
61323 
61342 
61305 
61268 
61253 
61240 
61239 
61210 
61242 
61304 
61324 
61320 
61322 
61335 
61347 
61315 
61248 
61275 
61329 
61285 
61250 
61219 
61223 
61289 
61293 
61273 
61305 
61293 
61242 
61220 
61226 
61273 
61297 
61292 
61265 
61274 
61273 
61268 
61278 
61295 
61344 
61320 
61282 
61249 
61225 
61217 
61210 
61206 
61215 
61206 
61203 
61225 
61279 
61278 
61233 
61217 
61223 
61231 
61206 
61193 
61220 
61279 
61265 
61290 
61310 
61283 
61304 
61286 
61255 
61283 
61299 
61287 
61259 
61215 
61191 
61179 
61166 
61198 
61243 
61216 
61199 
61226 
61261 
61278 
61282 
61312 
61316 
61314 
61322 
61328 
61312 
61283 
61296 
61280 
61298 
61330 
61345 
61347 
61346 
61340 
61321 
61329 
61384 
61376 
61382 
61361 
61313 
61323 
61337 
61325 
61316 
61351 
61354 
61338 
61325 
61293 
61283 
61273 
61265 
61260 
61261 
61298 
61345 
61344 
61315 
61270 
61235 
61224 
61255 
61299 
61299 
61263 
61280 
61313 
61266 
61177 
61137 
61138 
61210 
61223 
61226 
61274 
61262 
61181 
61165 
61194 
61209 
61208 
61245 
61235 
61236 
61228 
61228 
61227 
61172 
61138 
61133 
61165 
61144 
61153 
61207 
61192 
61155 
61130 
61066 
61050 
61045 
61086 
61106 
61132 
61157 
61135 
61111 
61079 
61089 
61124 
61094 
61094 
61128 
61127 
61114 
61093 
61088 
61103 
61142 
61167 
61139 
61124 
61094 
61110 
61114 
61146 
61148 
61124 
61093 
61085 
61080 
61073 
61067 
61068 
61133 
61127 
61116 
61135 
61124 
61067 
61049 
61045 
61030 
61036 
61079 
61101 
61084 
61140 
61165 
61152 
61122 
61141 
61186 
61193 
61191 
61161 
61123 
61099 
61063 
61064 
61104 
61141 
61153 
61105 
61067 
61082 
61085 
61101 
61177 
61211 
61181 
61135 
61156 
61160 
61120 
61073 
61050 
61052 
61067 
61086 
61066 
61039 
61053 
61063 
61076 
61074 
61028 
61008 
61032 
61051 
61060 
61059 
61001 
60945 
60932 
60929 
60916 
60890 
60880 
60849 
60837 
60848 
60886 
60948 
60972 
60975 
60962 
60954 
60886 
60871 
60895 
60878 
60857 
60883 
60889 
60829 
60808 
60774 
60767 
60778 
60807 
60773 
60781 
60829 
60773 
60706 
60721 
60761 
60793 
60848 
60845 
60818 
60849 
60873 
60882 
60911 
60934 
60921 
60920 
60927 
60924 
60889 
60816 
60843 
60902 
60912 
60897 
60879 
60947 
60967 
60957 
60954 
60930 
60930 
60936 
60968 
60964 
60995 
61001 
60995 
61009 
60999 
60980 
60967 
60981 
61049 
61131 
61136 
61148 
61119 
61123 
61188 
61191 
61202 
61212 
61140 
61069 
61009 
60990 
61002 
61002 
61022 
61049 
61069 
61038 
61044 
61016 
61062 
61084 
61094 
61097 
61073 
61065 
61078 
61124 
61141 
61154 
61154 
61144 
61165 
61161 
61127 
61049 
61016 
61026 
61047 
61053 
61081 
61128 
61116 
61106 
61101 
61098 
61110 
61141 
61121 
61084 
61159 
61202 
61208 
61236 
61194 
61125 
61078 
61108 
61127 
61146 
61166 
61185 
61166 
61115 
61105 
61106 
61099 
61110 
61113 
61119 
61115 
61107 
61128 
61083 
61063 
61053 
61048 
61086 
61078 
61034 
61027 
61045 
61008 
60973 
60958 
60964 
60940 
60876 
60852 
60856 
60854 
60818 
60817 
60832 
60793 
60754 
60764 
60784 
60795 
60804 
60770 
60746 
60744 
60720 
60752 
60766 
60735 
60731 
60741 
60734 
60713 
60641 
60626 
60664 
60672 
60688 
60749 
60770 
60743 
60746 
60769 
60806 
60822 
60806 
60814 
60814 
60843 
60860 
60815 
60762 
60746 
60779 
60805 
60808 
60831 
60815 
60855 
60878 
60828 
60851 
60900 
60889 
60886 
60883 
60867 
60857 
60851 
60921 
60942 
60932 
60944 
60913 
60915 
60946 
60933 
60932 
60972 
61014 
61042 
61018 
61005 
60975 
60941 
60903 
60907 
60907 
60908 
60969 
61012 
61054 
61069 
61013 
61010 
61029 
61053 
61023 
60973 
60946 
60922 
60892 
60873 
60839 
60851 
60926 
60996 
61039 
61035 
61058 
61088 
61101 
61111 
61100 
61148 
61179 
61205 
61207 
61185 
61168 
61156 
61144 
61163 
61136 
61142 
61147 
61161 
61163 
61127 
61130 
61183 
61230 
61249 
61223 
61192 
61172 
61190 
61187 
61176 
61160 
61149 
61127 
61140 
61162 
61170 
61132 
61129 
61181 
61199 
61175 
61124 
61073 
61037 
61017 
61023 
61005 
61002 
60961 
60940 
60888 
60833 
60796 
60767 
60734 
60691 
60677 
60668 
60626 
60625 
60618 
60623 
60637 
60617 
60592 
60617 
60625 
60601 
60577 
60586 
60596 
60579 
60557 
60513 
60514 
60530 
60530 
60523 
60512 
60469 
60472 
60536 
60557 
60553 
60564 
60534 
60488 
60470 
60450 
60454 
60510 
60517 
60462 
60420 
60399 
60415 
60458 
60477 
60447 
60376 
60430 
60494 
60525 
60528 
60519 
60541 
60567 
60567 
60548 
60510 
60514 
60542 
60572 
60610 
60609 
60655 
60711 
60701 
60683 
60690 
60732 
60750 
60723 
60738 
60816 
60831 
60840 
60865 
60844 
60813 
60837 
60874 
60937 
60921 
60874 
60905 
60922 
60929 
60909 
60907 
60980 
60951 
60898 
60925 
60955 
60984 
61027 
61055 
61064 
61080 
61116 
61127 
61142 
61140 
61137 
61134 
61106 
61100 
61118 
61122 
61152 
61098 
61100 
61143 
61205 
61242 
61222 
61188 
61184 
61159 
61175 
61179 
61153 
61158 
61182 
61181 
61187 
61234 
61271 
61291 
61339 
61357 
61314 
61299 
61290 
61261 
61241 
61270 
61264 
61285 
61305 
61274 
61257 
61233 
61222 
61246 
61202 
61167 
61181 
61205 
61202 
61177 
61187 
61222 
61155 
61091 
61058 
61039 
61036 
61012 
61004 
60973 
60955 
60956 
60934 
60941 
60959 
60969 
60942 
60912 
60908 
60924 
60922 
60926 
60971 
61016 
61015 
60967 
60949 
60941 
60914 
60916 
60915 
60899 
60891 
60905 
60906 
60911 
60942 
60928 
60907 
60884 
60875 
60852 
60834 
60837 
60824 
60842 
60888 
60946 
60931 
60877 
60888 
60903 
60916 
60876 
60873 
60874 
60884 
60919 
60898 
60872 
60914 
60957 
60965 
60881 
60826 
60861 
60881 
60885 
60885 
60871 
60887 
60904 
60915 
60893 
60894 
60913 
60934 
60968 
61016 
61033 
61014 
61018 
61032 
61001 
60955 
60988 
61032 
61081 
61094 
61105 
61131 
61150 
61180 
61149 
61127 
61138 
61153 
61194 
61162 
61139 
61172 
61160 
61162 
61146 
61162 
61158 
61135 
61140 
61164 
61176 
61207 
61209 
61226 
61205 
61214 
61239 
61261 
61248 
61240 
61273 
61308 
61299 
61275 
61284 
61296 
61290 
61292 
61319 
61354 
61384 
61367 
61349 
61331 
61328 
61357 
61421 
61415 
61408 
61429 
61426 
61438 
61449 
61464 
61438 
61466 
61513 
61517 
61461 
61400 
61364 
61397 
61404 
61446 
61536 
61527 
61522 
61486 
61432 
61410 
61332 
61294 
61289 
61292 
61283 
61268 
61221 
61228 
61245 
61254 
61243 
61216 
61187 
61194 
61185 
61191 
61201 
61173 
61170 
61123 
61116 
61143 
61142 
61120 
61138 
61107 
61068 
61048 
61039 
61089 
61073 
61027 
61011 
60975 
60974 
60979 
60921 
60893 
60971 
60999 
60944 
60945 
60945 
60969 
60990 
60974 
60962 
60970 
61021 
61060 
61086 
61023 
60979 
60980 
60974 
61015 
61046 
61064 
61079 
61109 
61113 
61063 
61039 
61045 
61088 
61086 
61097 
61145 
61190 
61272 
61315 
61300 
61275 
61210 
61172 
61196 
61232 
61249 
61278 
61319 
61344 
61352 
61352 
61322 
61300 
61305 
61337 
61417 
61412 
61372 
61384 
61391 
61397 
61402 
61375 
61373 
61400 
61408 
61405 
61401 
61381 
61374 
61442 
61528 
61524 
61527 
61542 
61552 
61542 
61542 
61497 
61459 
61455 
61465 
61492 
61493 
61502 
61510 
61526 
61545 
61536 
61595 
61632 
61583 
61530 
61517 
61525 
61576 
61561 
61540 
61583 
61581 
61618 
61606 
61553 
61578 
61598 
61609 
61620 
61621 
61580 
61547 
61581 
61646 
61664 
61653 
61639 
61671 
61697 
61707 
61667 
61620 
61613 
61599 
61624 
61664 
61693 
61699 
61696 
61665 
61610 
61620 
61683 
61669 
61609 
61591 
61599 
61639 
61637 
61627 
61653 
61676 
61660 
61632 
61602 
61565 
61555 
61454 
61404 
61423 
61428 
61436 
61443 
61435 
61424 
61438 
61413 
61380 
61337 
61300 
61249 
61229 
61255 
61212 
61160 
61185 
61159 
61159 
61194 
61182 
61127 
61152 
61188 
61176 
61144 
61153 
61172 
61137 
61101 
61085 
61127 
61198 
61197 
61185 
61197 
61232 
61258 
61213 
61171 
61142 
61156 
61158 
61142 
61161 
61198 
61246 
61211 
61232 
61287 
61315 
61350 
61384 
61388 
61380 
61396 
61382 
61348 
61312 
61335 
61357 
61381 
61422 
61459 
61495 
61500 
61516 
61528 
61482 
61441 
61423 
61471 
61457 
61435 
61455 
61489 
61546 
61576 
61545 
61517 
61557 
61558 
61521 
61521 
61532 
61569 
61581 
61597 
61619 
61581 
61569 
61572 
61567 
61577 
61582 
61599 
61629 
61641 
61657 
61656 
61669 
61675 
61653 
61639 
61638 
61623 
61645 
61691 
61714 
61693 
61689 
61695 
61626 
61584 
61609 
61641 
61682 
61692 
61661 
61692 
61724 
61757 
61774 
61712 
61687 
61746 
61761 
61719 
61702 
61752 
61801 
61809 
61818 
61832 
61801 
61790 
61802 
61835 
61816 
61753 
61748 
61796 
61812 
61800 
61780 
61748 
61751 
61769 
61814 
61834 
61824 
61801 
61769 
61772 
61801 
61808 
61837 
61840 
61798 
61757 
61734 
61783 
61838 
61808 
61763 
61726 
61753 
61784 
61743 
61702 
61683 
61662 
61664 
61624 
61576 
61571 
61575 
61540 
61527 
61512 
61474 
61437 
61402 
61405 
61372 
61358 
61373 
61348 
61315 
61305 
61306 
61325 
61320 
61309 
61292 
61288 
61324 
61396 
61361 
61295 
61252 
61247 
61258 
61260 
61235 
61228 
61262 
61311 
61355 
61373 
61357 
61332 
61275 
61269 
61349 
61395 
61415 
61381 
61402 
61358 
61369 
61424 
61462 
61476 
61467 
61473 
61425 
61431 
61437 
61464 
61467 
61485 
61504 
61506 
61517 
61549 
61567 
61549 
61509 
61488 
61488 
61511 
61542 
61516 
61488 
61501 
61539 
61573 
61554 
61500 
61527 
61507 
61513 
61527 
61536 
61597 
61624 
61604 
61573 
61603 
61631 
61600 
61568 
61557 
61571 
61583 
61579 
61589 
61547 
61499 
61510 
61561 
61589 
61645 
61645 
61618 
61631 
61644 
61628 
61588 
61569 
61582 
61628 
61640 
61624 
61597 
61596 
61645 
61701 
61694 
61690 
61707 
61707 
61674 
61591 
61570 
61599 
61680 
61728 
61710 
61736 
61767 
61743 
61705 
61679 
61671 
61685 
61743 
61754 
61696 
61643 
61640 
61662 
61718 
61722 
61707 
61706 
61724 
61741 
61694 
61683 
61692 
61651 
61648 
61658 
61686 
61694 
61689 
61672 
61686 
61684 
61659 
61670 
61664 
61649 
61602 
61590 
61605 
61608 
61563 
61521 
61517 
61508 
61459 
61411 
61404 
61432 
61400 
61367 
61317 
61291 
61280 
61277 
61292 
61263 
61271 
61330 
61322 
61282 
61259 
61235 
61204 
61111 
61041 
61056 
61101 
61105 
61063 
61052 
61109 
61148 
61154 
61105 
61069 
61080 
61116 
61126 
61144 
61117 
61089 
61082 
61096 
61117 
61163 
61185 
61200 
61212 
61199 
61195 
61187 
61214 
61260 
61290 
61257 
61283 
61336 
61382 
61377 
61348 
61353 
61395 
61393 
61389 
61383 
61384 
61387 
61391 
61424 
61434 
61423 
61445 
61459 
61459 
61500 
61532 
61522 
61523 
61502 
61505 
61526 
61538 
61574 
61627 
61632 
61574 
61555 
61552 
61577 
61590 
61595 
61608 
61615 
61571 
61591 
61628 
61633 
61621 
61634 
61664 
61674 
61653 
61654 
61668 
61637 
61626 
61662 
61674 
61652 
61680 
61697 
61678 
61643 
61674 
61766 
61808 
61833 
61812 
61759 
61769 
61770 
61741 
61761 
61794 
61795 
61769 
61763 
61740 
61701 
61680 
61667 
61647 
61640 
61638 
61628 
61617 
61619 
61629 
61667 
61687 
61693 
61716 
61705 
61714 
61644 
61598 
61569 
61594 
61644 
61663 
61646 
61696 
61679 
61667 
61647 
61615 
61595 
61592 
61579 
61551 
61539 
61534 
61533 
61537 
61495 
61498 
61477 
61445 
61428 
61399 
61398 
61358 
61280 
61318 
61377 
61329 
61263 
61226 
61201 
61185 
61203 
61187 
61155 
61115 
61094 
61048 
61021 
61033 
61000 
60985 
61004 
61016 
61021 
60982 
60992 
60999 
60996 
60997 
61000 
60962 
60948 
60945 
60950 
60986 
61001 
61014 
61030 
61033 
61024 
61045 
61081 
61124 
61098 
61053 
61054 
61088 
61158 
61210 
61222 
61235 
61291 
61320 
61310 
61316 
61377 
61381 
61335 
61306 
61306 
61337 
61335 
61285 
61266 
61299 
61341 
61341 
61368 
61375 
61384 
61399 
61394 
61391 
61430 
61454 
61453 
61457 
61482 
61471 
61440 
61499 
61531 
61534 
61494 
61503 
61512 
61531 
61522 
61488 
61490 
61509 
61503 
61524 
61513 
61510 
61520 
61564 
61580 
61634 
61642 
61636 
61632 
61595 
61593 
61641 
61665 
61635 
61623 
61623 
61602 
61583 
61625 
61627 
61580 
61596 
61560 
61559 
61571 
61584 
61589 
61560 
61546 
61520 
61572 
61614 
61649 
61628 
61599 
61599 
61593 
61582 
61585 
61585 
61555 
61531 
61486 
61499 
61516 
61540 
61585 
61655 
61634 
61657 
61640 
61597 
61588 
61584 
61581 
61552 
61541 
61550 
61550 
61537 
61492 
61489 
61498 
61493 
61478 
61491 
61544 
61506 
61454 
61410 
61399 
61389 
61359 
61296 
61219 
61222 
61223 
61180 
61118 
61071 
61017 
60957 
60928 
60889 
60879 
60849 
60814 
60865 
60854 
60797 
60735 
60707 
60712 
60743 
60770 
60744 
60713 
60707 
60707 
60728 
60729 
60728 
60753 
60782 
60832 
60812 
60781 
60790 
60847 
60873 
60905 
60957 
60938 
60912 
60926 
60945 
60932 
60888 
60889 
60928 
60948 
60988 
61042 
61052 
61061 
61088 
61111 
61103 
61110 
61097 
61110 
61167 
61204 
61222 
61266 
61358 
61385 
61396 
61400 
61422 
61433 
61393 
61373 
61343 
61338 
61344 
61351 
61386 
61403 
61384 
61367 
61382 
61436 
61462 
61443 
61430 
61466 
61424 
61399 
61440 
61456 
61476 
61458 
61426 
61417 
61487 
61549 
61544 
61478 
61451 
61426 
61405 
61441 
61535 
61600 
61646 
61643 
61628 
61605 
61577 
61608 
61607 
61554 
61541 
61550 
61589 
61593 
61550 
61589 
61677 
61700 
61693 
61683 
61654 
61618 
61590 
61580 
61581 
61611 
61652 
61631 
61595 
61616 
61578 
61553 
61584 
61618 
61666 
61649 
61587 
61545 
61516 
61528 
61598 
61596 
61570 
61598 
61607 
61586 
61600 
61597 
61590 
61588 
61606 
61566 
61539 
61547 
61553 
61561 
61552 
61554 
61593 
61586 
61586 
61560 
61531 
61488 
61415 
61402 
61409 
61382 
61357 
61305 
61239 
61182 
61230 
61264 
61193 
61116 
61085 
61034 
60978 
60899 
60871 
60904 
60893 
60835 
60795 
60741 
60688 
60726 
60741 
60713 
60719 
60736 
60725 
60770 
60750 
60685 
60645 
60630 
60645 
60659 
60653 
60620 
60609 
60583 
60571 
60632 
60657 
60663 
60659 
60719 
60791 
60818 
60841 
60854 
60922 
60951 
60940 
60911 
60928 
60975 
60957 
60893 
60864 
60934 
60975 
61010 
61039 
61095 
61111 
61103 
61146 
61219 
61292 
61307 
61254 
61265 
61283 
61266 
61248 
61294 
61292 
61257 
61241 
61296 
61298 
61306 
61307 
61335 
61387 
61397 
61418 
61396 
61390 
61401 
61462 
61531 
61563 
61526 
61451 
61371 
61332 
61339 
61361 
61374 
61420 
61464 
61489 
61521 
61566 
61563 
61503 
61483 
61464 
61490 
61491 
61462 
61488 
61484 
61534 
61609 
61640 
61622 
61602 
61614 
61538 
61499 
61524 
61540 
61537 
61574 
61609 
61622 
61596 
61578 
61544 
61529 
61535 
61563 
61651 
61646 
61591 
61551 
61558 
61581 
61553 
61522 
61558 
61577 
61576 
61545 
61520 
61472 
61460 
61470 
61480 
61492 
61470 
61463 
61490 
61489 
61520 
61518 
61547 
61530 
61496 
61504 
61486 
61476 
61490 
61532 
61522 
61530 
61529 
61520 
61497 
61511 
61505 
61495 
61467 
61379 
61395 
61446 
61454 
61397 
61319 
61274 
61202 
61113 
61068 
61071 
61100 
61050 
60963 
60948 
60928 
60878 
60880 
60847 
60782 
60775 
60768 
60750 
60708 
60669 
60659 
60628 
60587 
60554 
60543 
60593 
60606 
60600 
60652 
60678 
60686 
60615 
60590 
60608 
60625 
60596 
60595 
60601 
60575 
60601 
60648 
60707 
60732 
60718 
60739 
60757 
60736 
60771 
60834 
60900 
60954 
60950 
60934 
60959 
60998 
61032 
61053 
61050 
61081 
61046 
61064 
61113 
61129 
61123 
61109 
61081 
61072 
61119 
61176 
61217 
61224 
61214 
61199 
61181 
61162 
61238 
61253 
61229 
61212 
61234 
61299 
61340 
61362 
61431 
61483 
61462 
61415 
61376 
61335 
61327 
61355 
61379 
61388 
61413 
61395 
61377 
61366 
61361 
61361 
61363 
61347 
61404 
61457 
61454 
61455 
61457 
61444 
61487 
61503 
61502 
61487 
61481 
61511 
61517 
61490 
61470 
61429 
61443 
61509 
61552 
61555 
61559 
61556 
61515 
61498 
61508 
61500 
61513 
61544 
61551 
61557 
61547 
61577 
61602 
61651 
61671 
61673 
61632 
61590 
61561 
61526 
61514 
61533 
61553 
61520 
61492 
61519 
61526 
61541 
61554 
61568 
61607 
61597 
61599 
61590 
61578 
61583 
61554 
61553 
61533 
61550 
61576 
61535 
61472 
61446 
61383 
61337 
61283 
61215 
61132 
61097 
61093 
61080 
61054 
60987 
60934 
60882 
60847 
60823 
60778 
60786 
60766 
60729 
60705 
60707 
60682 
60659 
60652 
60633 
60611 
60576 
60568 
60578 
60588 
60590 
60567 
60539 
60536 
60521 
60514 
60559 
60578 
60570 
60613 
60641 
60675 
60713 
60774 
60778 
60762 
60765 
60849 
60954 
60977 
60969 
60957 
60928 
60917 
60913 
60925 
60971 
60980 
61021 
61029 
61019 
61012 
60998 
61054 
61117 
61126 
61101 
61116 
61122 
61122 
61116 
61130 
61155 
61164 
61207 
61244 
61206 
61209 
61278 
61320 
61303 
61318 
61319 
61296 
61248 
61224 
61242 
61281 
61307 
61309 
61294 
61288 
61299 
61261 
61225 
61231 
61288 
61284 
61287 
61298 
61353 
61394 
61428 
61454 
61504 
61518 
61527 
61535 
61501 
61410 
61361 
61365 
61407 
61475 
61491 
61440 
61440 
61507 
61517 
61506 
61506 
61543 
61563 
61577 
61589 
61589 
61559 
61498 
61518 
61528 
61582 
61584 
61582 
61577 
61577 
61598 
61592 
61591 
61599 
61600 
61559 
61552 
61579 
61589 
61566 
61546 
61593 
61603 
61572 
61580 
61550 
61529 
61523 
61524 
61498 
61486 
61434 
61370 
61327 
61290 
61263 
61196 
61190 
61179 
61149 
61121 
61077 
61037 
60951 
60873 
60794 
60773 
60757 
60727 
60727 
60721 
60715 
60657 
60617 
60600 
60559 
60529 
60520 
60497 
60508 
60500 
60502 
60473 
60437 
60465 
60537 
60563 
60570 
60572 
60533 
60497 
60526 
60602 
60589 
60510 
60506 
60563 
60611 
60658 
60663 
60663 
60663 
60682 
60741 
60797 
60798 
60826 
60818 
60836 
60876 
60914 
60960 
61026 
61049 
61049 
61042 
61008 
61018 
61050 
61068 
61138 
61197 
61196 
61153 
61090 
61106 
61140 
61171 
61171 
61226 
61236 
61267 
61300 
61290 
61302 
61293 
61212 
61249 
61275 
61248 
61195 
61208 
61212 
61162 
61181 
61306 
61419 
61430 
61364 
61344 
61339 
61379 
61408 
61388 
61396 
61383 
61377 
61376 
61414 
61427 
61458 
61483 
61487 
61459 
61436 
61457 
61450 
61416 
61421 
61449 
61475 
61520 
61526 
61552 
61544 
61542 
61572 
61575 
61548 
61518 
61541 
61564 
61564 
61599 
61604 
61585 
61576 
61605 
61672 
61685 
61659 
61665 
61630 
61592 
61638 
61690 
61693 
61695 
61702 
61680 
61672 
61692 
61692 
61690 
61681 
61662 
61622 
61635 
61718 
61677 
61608 
61582 
61560 
61483 
61437 
61389 
61309 
61266 
61216 
61189 
61148 
61068 
60990 
60935 
60877 
60864 
60845 
60853 
60854 
60827 
60780 
60764 
60760 
60768 
60733 
60693 
60625 
60527 
60481 
60528 
60559 
60562 
60528 
60520 
60516 
60542 
60548 
60539 
60549 
60497 
60486 
60502 
60501 
60529 
60548 
60570 
60652 
60671 
60636 
60619 
60630 
60639 
60590 
60612 
60649 
60685 
60742 
60814 
60893 
60945 
60973 
61007 
61004 
61000 
61032 
61054 
61056 
61079 
61109 
61099 
61075 
61080 
61085 
61084 
61064 
61084 
61074 
61116 
61150 
61157 
61140 
61132 
61154 
61175 
61152 
61133 
61197 
61199 
61211 
61171 
61194 
61182 
61105 
61104 
61125 
61154 
61201 
61217 
61246 
61288 
61306 
61321 
61315 
61288 
61222 
61254 
61314 
61369 
61403 
61431 
61407 
61374 
61383 
61421 
61461 
61435 
61415 
61437 
61472 
61492 
61491 
61493 
61494 
61463 
61450 
61486 
61471 
61457 
61492 
61497 
61490 
61510 
61565 
61627 
61642 
61632 
61640 
61654 
61617 
61606 
61644 
61665 
61671 
61682 
61678 
61657 
61617 
61606 
61614 
61666 
61681 
61657 
61634 
61627 
61664 
61706 
61732 
61728 
61668 
61632 
61648 
61637 
61614 
61628 
61615 
61594 
61614 
61583 
61579 
61553 
61524 
61506 
61466 
61441 
61431 
61404 
61401 
61352 
61277 
61255 
61272 
61192 
61082 
61043 
61002 
60964 
60955 
60914 
60882 
60846 
60829 
60798 
60756 
60661 
60626 
60679 
60699 
60700 
60679 
60675 
60706 
60672 
60647 
60632 
60627 
60670 
60685 
60715 
60717 
60709 
60654 
60614 
60649 
60720 
60737 
60725 
60699 
60669 
60641 
60666 
60726 
60780 
60786 
60791 
60798 
60821 
60857 
60868 
60943 
60953 
60953 
60963 
60990 
60962 
60989 
61069 
61180 
61179 
61183 
61196 
61217 
61211 
61202 
61184 
61173 
61172 
61192 
61199 
61205 
61236 
61247 
61244 
61256 
61290 
61267 
61235 
61256 
61265 
61261 
61281 
61302 
61274 
61309 
61356 
61391 
61367 
61382 
61391 
61403 
61413 
61394 
61426 
61428 
61440 
61417 
61420 
61484 
61562 
61592 
61591 
61569 
61536 
61500 
61484 
61494 
61530 
61532 
61560 
61583 
61551 
61519 
61546 
61544 
61568 
61544 
61524 
61579 
61588 
61626 
61608 
61573 
61586 
61625 
61609 
61644 
61671 
61666 
61624 
61556 
61492 
61469 
61487 
61515 
61584 
61581 
61547 
61540 
61574 
61572 
61663 
61720 
61707 
61711 
61711 
61674 
61641 
61597 
61582 
61624 
61670 
61712 
61657 
61607 
61587 
61531 
61568 
61601 
61603 
61576 
61560 
61616 
61625 
61629 
61639 
61592 
61575 
61568 
61554 
61518 
61498 
61533 
61538 
61520 
61471 
61421 
61350 
61288 
61233 
61222 
61232 
61259 
61191 
61096 
60996 
60939 
60929 
60891 
60821 
60773 
60733 
60693 
60692 
60707 
60681 
60646 
60631 
60668 
60680 
60658 
60636 
60661 
60638 
60561 
60542 
60492 
60452 
60442 
60463 
60460 
60494 
60549 
60534 
60501 
60522 
60571 
60594 
60591 
60622 
60657 
60677 
60716 
60719 
60692 
60687 
60686 
60719 
60753 
60780 
60834 
60892 
60856 
60851 
60917 
60996 
60980 
61007 
61035 
61050 
61061 
61040 
61067 
61067 
61117 
61158 
61172 
61185 
61205 
61189 
61215 
61268 
61240 
61178 
61161 
61147 
61158 
61227 
61262 
61252 
61219 
61216 
61200 
61165 
61157 
61208 
61332 
61349 
61329 
61300 
61309 
61357 
61392 
61401 
61436 
61496 
61521 
61504 
61477 
61456 
61492 
61571 
61614 
61619 
61657 
61637 
61651 
61709 
61753 
61831 
61884 
61884 
61862 
61881 
61907 
61896 
61958 
61998 
61998 
62047 
62065 
62051 
62063 
62087 
62149 
62162 
62171 
62159 
62195 
62254 
62299 
62298 
62325 
62338 
62364 
62431 
62461 
62492 
62513 
62557 
62565 
62622 
62667 
62709 
62687 
62693 
62740 
62718 
62683 
62691 
62706 
62744 
62744 
62742 
62798 
62841 
62897 
62933 
62918 
62865 
62875 
62818 
62797 
62780 
62691 
62671 
62663 
62611 
62583 
62561 
62529 
62522 
62540 
62501 
62409 
62376 
62363 
62284 
62228 
62181 
62166 
62182 
62171 
62131 
62094 
62067 
62056 
62033 
62006 
62024 
62022 
62001 
61997 
61995 
62006 
62036 
62049 
62025 
61967 
61942 
61950 
61918 
61922 
61974 
61986 
61960 
61950 
61992 
62024 
62025 
62019 
62029 
62084 
62117 
62117 
62115 
62128 
62107 
62079 
62109 
62175 
62135 
62152 
62148 
62127 
62122 
62133 
62124 
62188 
62227 
62223 
62229 
62254 
62265 
62254 
62251 
62249 
62236 
62247 
62217 
62171 
62137 
62130 
62156 
62229 
62239 
62158 
62131 
62121 
62099 
62101 
62151 
62166 
62155 
62167 
62194 
62186 
62192 
62180 
62155 
62135 
62153 
62134 
62131 
62086 
62063 
62083 
62083 
62075 
62089 
62105 
62071 
62074 
62100 
62125 
62116 
62107 
62087 
62065 
61999 
61992 
62044 
62085 
62103 
62075 
62027 
62008 
62000 
62014 
61970 
61997 
62064 
62099 
62127 
62068 
61994 
61969 
61948 
61964 
61997 
62014 
62067 
62145 
62117 
62092 
62068 
62041 
62060 
62052 
62031 
62019 
62035 
62060 
62047 
62025 
62011 
61982 
61996 
62017 
62061 
62040 
61985 
61957 
61934 
61899 
61838 
61805 
61771 
61735 
61707 
61673 
61629 
61600 
61544 
61504 
61472 
61382 
61322 
61260 
61163 
61080 
61019 
60937 
60871 
60829 
60783 
60737 
60707 
60672 
60617 
60550 
60567 
60559 
60524 
60468 
60429 
60436 
60382 
60288 
60245 
60284 
60299 
60284 
60264 
60256 
60233 
60250 
60252 
60246 
60248 
60218 
60183 
60185 
60154 
60170 
60185 
60236 
60287 
60253 
60239 
60227 
60244 
60246 
60229 
60236 
60293 
60296 
60238 
60214 
60286 
60306 
60334 
60313 
60309 
60323 
60335 
60382 
60411 
60408 
60396 
60449 
60568 
60573 
60531 
60504 
60525 
60537 
60541 
60560 
60589 
60610 
60586 
60582 
60610 
60674 
60674 
60662 
60635 
60626 
60619 
60664 
60677 
60633 
60614 
60665 
60690 
60715 
60742 
60770 
60778 
60782 
60814 
60791 
60779 
60731 
60715 
60724 
60728 
60758 
60734 
60661 
60615 
60645 
60668 
60696 
60686 
60601 
60538 
60617 
60696 
60707 
60699 
60679 
60654 
60685 
60685 
60655 
60646 
60632 
60677 
60708 
60672 
60662 
60691 
60747 
60742 
60709 
60663 
60647 
60703 
60719 
60730 
60739 
60733 
60730 
60718 
60718 
60728 
60713 
60678 
60651 
60557 
60477 
60449 
60382 
60299 
60232 
60159 
60093 
60001 
59934 
59882 
59866 
59838 
59787 
59762 
59673 
59575 
59468 
59356 
59302 
59244 
59209 
59162 
59133 
59057 
58940 
58823 
58690 
58640 
58592 
58534 
58540 
58565 
58526 
58432 
58385 
58316 
58292 
58258 
58217 
58193 
58165 
58155 
58116 
58114 
58130 
58117 
58137 
58126 
58109 
58102 
58047 
58043 
58062 
58103 
58103 
58094 
58085 
58039 
57982 
58002 
58046 
58103 
58158 
58219 
58189 
58144 
58165 
58207 
58285 
58327 
58285 
58294 
58318 
58360 
58439 
58484 
58543 
58586 
58623 
58580 
58542 
58561 
58594 
58608 
58620 
58652 
58685 
58662 
58675 
58681 
58734 
58823 
58837 
58841 
58820 
58820 
58822 
58820 
58873 
58924 
58978 
59022 
59041 
59074 
59067 
59085 
59155 
59171 
59159 
59144 
59102 
59118 
59183 
59251 
59267 
59258 
59216 
59240 
59298 
59346 
59342 
59372 
59404 
59410 
59466 
59488 
59477 
59498 
59500 
59524 
59512 
59514 
59576 
59594 
59589 
59635 
59603 
59584 
59679 
59778 
59803 
59818 
59873 
59898 
59871 
59914 
59943 
59912 
59892 
59917 
59960 
60002 
60020 
59945 
59920 
59966 
59996 
60013 
60044 
60126 
60112 
60100 
60136 
60202 
60196 
60142 
60078 
60009 
59995 
60012 
59971 
59923 
59910 
59895 
59900 
59853 
59823 
59839 
59811 
59725 
59619 
59570 
59563 
59539 
59488 
59426 
59425 
59413 
59378 
59336 
59318 
59268 
59237 
59234 
59235 
59294 
59300 
59283 
59222 
59176 
59114 
59077 
59101 
59078 
59069 
59088 
59129 
59177 
59196 
59163 
59113 
59085 
59105 
59133 
59138 
59160 
59161 
59232 
59293 
59277 
59246 
59234 
59288 
59331 
59348 
59359 
59350 
59414 
59517 
59577 
59605 
59574 
59602 
59669 
59696 
59743 
59824 
59912 
59997 
60010 
60012 
60034 
60070 
60066 
60097 
60175 
60236 
60251 
60331 
60440 
60458 
60440 
60477 
60511 
60550 
60595 
60642 
60739 
60818 
60832 
60819 
60811 
60859 
60920 
60948 
60964 
60973 
60955 
60966 
61028 
61135 
61257 
61276 
61260 
61283 
61312 
61350 
61402 
61398 
61440 
61491 
61519 
61534 
61523 
61508 
61558 
61605 
61630 
61629 
61596 
61588 
61611 
61607 
61617 
61650 
61658 
61630 
61607 
61582 
61558 
61578 
61574 
61570 
61583 
61594 
61616 
61624 
61624 
61603 
61576 
61572 
61606 
61596 
61556 
61576 
61617 
61629 
61592 
61599 
61607 
61588 
61554 
61538 
61557 
61519 
61444 
61390 
61377 
61339 
61261 
61200 
61144 
61097 
61051 
61011 
61000 
60942 
60890 
60867 
60787 
60642 
60551 
60481 
60431 
60306 
60184 
60059 
60007 
59986 
59878 
59780 
59721 
59713 
59687 
59667 
59660 
59624 
59560 
59530 
59460 
59386 
59328 
59268 
59207 
59135 
59088 
59077 
59078 
59035 
59015 
59023 
59103 
59144 
59124 
59104 
59116 
59119 
59106 
59134 
59122 
59095 
59113 
59114 
59086 
59056 
59043 
59097 
59168 
59171 
59178 
59212 
59217 
59246 
59276 
59283 
59327 
59369 
59431 
59489 
59547 
59562 
59550 
59568 
59580 
59612 
59665 
59685 
59682 
59673 
59678 
59693 
59711 
59701 
59633 
59631 
59686 
59726 
59771 
59864 
59920 
59951 
59982 
59978 
59982 
60038 
60066 
60081 
60109 
60113 
60097 
60094 
60146 
60180 
60212 
60220 
60184 
60175 
60207 
60235 
60254 
60284 
60357 
60369 
60347 
60357 
60422 
60459 
60486 
60519 
60539 
60523 
60550 
60602 
60595 
60608 
60626 
60677 
60741 
60762 
60750 
60742 
60751 
60769 
60778 
60811 
60807 
60795 
60779 
60809 
60816 
60810 
60804 
60839 
60904 
60923 
60904 
60896 
60914 
60965 
60986 
60965 
60962 
60978 
60998 
61000 
61002 
61005 
60975 
60938 
60968 
61030 
61016 
60928 
60806 
60762 
60755 
60717 
60662 
60592 
60544 
60497 
60447 
60419 
60318 
60215 
60149 
60102 
60049 
60013 
59931 
59871 
59834 
59767 
59713 
59696 
59673 
59656 
59622 
59607 
59552 
59509 
59507 
59479 
59470 
59466 
59414 
59352 
59319 
59264 
59286 
59321 
59316 
59295 
59303 
59281 
59225 
59194 
59207 
59254 
59301 
59314 
59326 
59345 
59375 
59402 
59409 
59392 
59443 
59514 
59571 
59599 
59611 
59629 
59637 
59660 
59648 
59711 
59788 
59785 
59769 
59826 
59873 
59937 
60003 
60017 
60051 
60057 
60021 
59997 
60068 
60111 
60157 
60183 
60185 
60170 
60194 
60226 
60200 
60168 
60165 
60151 
60190 
60231 
60251 
60279 
60232 
60229 
60292 
60342 
60384 
60423 
60469 
60441 
60448 
60467 
60506 
60558 
60598 
60667 
60712 
60745 
60814 
60870 
60857 
60798 
60816 
60940 
61015 
61024 
60979 
60908 
60886 
60905 
60955 
60996 
61030 
61040 
61064 
61122 
61170 
61194 
61225 
61245 
61210 
61214 
61247 
61285 
61281 
61296 
61267 
61282 
61280 
61252 
61274 
61279 
61274 
61279 
61286 
61242 
61250 
61239 
61249 
61308 
61352 
61342 
61342 
61377 
61419 
61432 
61399 
61383 
61373 
61381 
61365 
61334 
61325 
61278 
61224 
61195 
61117 
61026 
60980 
60962 
60879 
60832 
60786 
60679 
60555 
60466 
60427 
60351 
60277 
60196 
60099 
60025 
59984 
59920 
59905 
59859 
59798 
59766 
59694 
59629 
59547 
59498 
59496 
59471 
59440 
59456 
59458 
59443 
59403 
59387 
59371 
59345 
59331 
59317 
59296 
59308 
59282 
59219 
59183 
59148 
59062 
59037 
59034 
59087 
59154 
59087 
59046 
59072 
59096 
59109 
59097 
59109 
59166 
59218 
59265 
59287 
59261 
59298 
59319 
59324 
59394 
59443 
59392 
59403 
59446 
59508 
59588 
59600 
59597 
59643 
59687 
59717 
59683 
59688 
59765 
59788 
59866 
59905 
59902 
59885 
59867 
59940 
60017 
60057 
60068 
60103 
60082 
60074 
60183 
60235 
60203 
60231 
60276 
60313 
60303 
60287 
60327 
60366 
60398 
60414 
60428 
60468 
60566 
60648 
60706 
60683 
60656 
60646 
60656 
60685 
60727 
60724 
60746 
60783 
60806 
60865 
60906 
60910 
60933 
60989 
60946 
60933 
60984 
61052 
61067 
61007 
61003 
61072 
61092 
61124 
61121 
61099 
61098 
61086 
61109 
61159 
61198 
61208 
61222 
61237 
61292 
61320 
61329 
61320 
61305 
61311 
61310 
61342 
61339 
61327 
61405 
61473 
61461 
61423 
61437 
61385 
61355 
61354 
61350 
61336 
61320 
61329 
61323 
61277 
61245 
61200 
61151 
61061 
60988 
60950 
60871 
60757 
60656 
60607 
60571 
60520 
60489 
60473 
60399 
60291 
60193 
60173 
60193 
60147 
60089 
60046 
60050 
60044 
60026 
60000 
59929 
59859 
59876 
59914 
59867 
59865 
59859 
59866 
59877 
59859 
59846 
59853 
59904 
59918 
59904 
59861 
59819 
59894 
59958 
59926 
59980 
60085 
60090 
60134 
60145 
60168 
60177 
60205 
60277 
60302 
60320 
60277 
60251 
60327 
60382 
60408 
60423 
60418 
60433 
60465 
60487 
60527 
60562 
60628 
60635 
60651 
60693 
60664 
60624 
60616 
60644 
60645 
60696 
60751 
60782 
60752 
60763 
60751 
60736 
60778 
60832 
60869 
60891 
60879 
60918 
60935 
60917 
60910 
60932 
60931 
60946 
60972 
60988 
61012 
61012 
60955 
60982 
61043 
61069 
61073 
61069 
61101 
61160 
61228 
61285 
61218 
61135 
61097 
61109 
61157 
61178 
61153 
61163 
61184 
61237 
61257 
61238 
61251 
61275 
61341 
61382 
61364 
61335 
61380 
61391 
61388 
61410 
61445 
61440 
61442 
61452 
61439 
61438 
61445 
61450 
61488 
61494 
61468 
61424 
61397 
61353 
61346 
61317 
61307 
61379 
61387 
61367 
61376 
61345 
61337 
61344 
61333 
61360 
61332 
61280 
61264 
61226 
61190 
61095 
61015 
60959 
60921 
60882 
60790 
60713 
60668 
60610 
60573 
60536 
60523 
60510 
60473 
60372 
60268 
60236 
60217 
60192 
60152 
60080 
60043 
60031 
60015 
60020 
60046 
60021 
59980 
59984 
59991 
59995 
59952 
59937 
59940 
59914 
59914 
59923 
59920 
59901 
59913 
59957 
60031 
60069 
60100 
60131 
60153 
60219 
60239 
60169 
60166 
60222 
60213 
60239 
60270 
60264 
60240 
60208 
60177 
60191 
60261 
60350 
60414 
60416 
60416 
60446 
60473 
60449 
60472 
60485 
60498 
60492 
60530 
60549 
60545 
60551 
60604 
60638 
60617 
60593 
60543 
60520 
60578 
60612 
60585 
60582 
60575 
60585 
60590 
60637 
60642 
60660 
60673 
60683 
60689 
60697 
60701 
60743 
60766 
60803 
60825 
60818 
60821 
60823 
60835 
60836 
60833 
60850 
60821 
60787 
60787 
60836 
60924 
60959 
60964 
60990 
60984 
60974 
60954 
60954 
60930 
60908 
60858 
60841 
60874 
60892 
60902 
60926 
60948 
60983 
61001 
61037 
61076 
61088 
61027 
60971 
60940 
60942 
60939 
60970 
60969 
60933 
60974 
61039 
61038 
61062 
61055 
61028 
61034 
61061 
61067 
61027 
61001 
60961 
60917 
60886 
60865 
60829 
60831 
60900 
60955 
60970 
60983 
60959 
60965 
60926 
60846 
60804 
60817 
60800 
60778 
60770 
60688 
60612 
60550 
60488 
60480 
60428 
60385 
60340 
60284 
60256 
60197 
60167 
60104 
60045 
60013 
59964 
59961 
59948 
59910 
59858 
59803 
59803 
59800 
59759 
59718 
59721 
59744 
59743 
59712 
59723 
59765 
59779 
59784 
59812 
59877 
59946 
59919 
59894 
59906 
59906 
59931 
59965 
60046 
60151 
60175 
60181 
60172 
60149 
60162 
60192 
60279 
60314 
60339 
60392 
60429 
60418 
60426 
60478 
60493 
60460 
60407 
60360 
60329 
60351 
60429 
60507 
60566 
60576 
60591 
60610 
60591 
60575 
60575 
60550 
60508 
60506 
60494 
60492 
60497 
60514 
60551 
60554 
60557 
60560 
60567 
60512 
60465 
60486 
60515 
60523 
60523 
60579 
60585 
60574 
60559 
60586 
60614 
60638 
60596 
60530 
60505 
60493 
60506 
60505 
60493 
60505 
60562 
60584 
60566 
60519 
60523 
60545 
60556 
60551 
60565 
60566 
60533 
60514 
60508 
60526 
60556 
60583 
60634 
60626 
60608 
60638 
60643 
60636 
60610 
60579 
60611 
60679 
60678 
60662 
60706 
60693 
60677 
60640 
60662 
60661 
60652 
60669 
60655 
60652 
60670 
60695 
60733 
60775 
60789 
60778 
60779 
60778 
60776 
60697 
60604 
60582 
60602 
60599 
60553 
60536 
60494 
60430 
60377 
60327 
60242 
60205 
60227 
60211 
60177 
60146 
60133 
60088 
60075 
60054 
60023 
59988 
59984 
59968 
59931 
59916 
59924 
59923 
59865 
59875 
59913 
59950 
59988 
60005 
60004 
60016 
60048 
60057 
60049 
60066 
60092 
60095 
60046 
60044 
60028 
60002 
59978 
59997 
60042 
60126 
60120 
60101 
60130 
60151 
60125 
60059 
60030 
60031 
60115 
60094 
60036 
60030 
60057 
60086 
60112 
60100 
60088 
60165 
60168 
60147 
60147 
60172 
60229 
60257 
60286 
60289 
60238 
60172 
60175 
60208 
60213 
60227 
60231 
60227 
60213 
60184 
60188 
60162 
60183 
60233 
60252 
60299 
60315 
60318 
60307 
60301 
60311 
60381 
60373 
60382 
60466 
60482 
60452 
60455 
60508 
60544 
60602 
60580 
60560 
60569 
60587 
60587 
60618 
60644 
60683 
60705 
60673 
60703 
60738 
60773 
60750 
60717 
60739 
60752 
60734 
60730 
60722 
60726 
60745 
60736 
60738 
60752 
60778 
60798 
60791 
60813 
60820 
60821 
60871 
60891 
60895 
60938 
60909 
60883 
60896 
60912 
60980 
61022 
61028 
60999 
61008 
61037 
61049 
61045 
61058 
61091 
61108 
61117 
61157 
61183 
61184 
61141 
61111 
61111 
61117 
61166 
61141 
61118 
61127 
61081 
61061 
61051 
61038 
60962 
60921 
60936 
60920 
60901 
60898 
60899 
60952 
61007 
60977 
60972 
60960 
60929 
60819 
60726 
60741 
60775 
60830 
60814 
60797 
60753 
60750 
60771 
60778 
60812 
60822 
60792 
60783 
60789 
60815 
60847 
60785 
60777 
60777 
60745 
60737 
60778 
60812 
60813 
60805 
60811 
60804 
60838 
60876 
60937 
60909 
60908 
60921 
60870 
60863 
60903 
60925 
60905 
60920 
60930 
60949 
60915 
60913 
60934 
60880 
60874 
60976 
61034 
61032 
61036 
61063 
61044 
61041 
61082 
61121 
61101 
61100 
61079 
61056 
61075 
61097 
61163 
61168 
61173 
61214 
61284 
61308 
61275 
61255 
61246 
61280 
61312 
61292 
61289 
61275 
61254 
61234 
61284 
61343 
61372 
61396 
61403 
61437 
61461 
61436 
61459 
61462 
61471 
61454 
61436 
61430 
61406 
61444 
61472 
61491 
61489 
61508 
61484 
61483 
61522 
61597 
61655 
61619 
61598 
61624 
61595 
61578 
61623 
61656 
61656 
61658 
61706 
61715 
61730 
61734 
61720 
61689 
61738 
61787 
61823 
61837 
61828 
61802 
61809 
61809 
61796 
61787 
61798 
61793 
61802 
61811 
61849 
61887 
61912 
61914 
61903 
61913 
61899 
61897 
61863 
61885 
61948 
61921 
61904 
61913 
61951 
61935 
61902 
61879 
61868 
61880 
61885 
61814 
61751 
61734 
61747 
61718 
61731 
61760 
61769 
61790 
61794 
61810 
61801 
61770 
61759 
61802 
61800 
61807 
61800 
61757 
61756 
61766 
61754 
61771 
61765 
61690 
61691 
61691 
61681 
61654 
61613 
61597 
61615 
61641 
61622 
61600 
61563 
61539 
61523 
61524 
61524 
61566 
61575 
61540 
61517 
61496 
61514 
61534 
61550 
61557 
61574 
61598 
61571 
61531 
61546 
61573 
61550 
61501 
61435 
61418 
61466 
61483 
61494 
61461 
61428 
61406 
61405 
61384 
61415 
61438 
61455 
61474 
61485 
61494 
61493 
61471 
61470 
61500 
61496 
61502 
61490 
61471 
61446 
61441 
61472 
61512 
61547 
61588 
61587 
61589 
61531 
61487 
61474 
61508 
61522 
61553 
61543 
61541 
61567 
61608 
61635 
61581 
61544 
61560 
61555 
61549 
61585 
61583 
61600 
61603 
61617 
61619 
61591 
61578 
61600 
61623 
61637 
61619 
61626 
61631 
61604 
61604 
61598 
61586 
61647 
61707 
61756 
61766 
61727 
61702 
61710 
61727 
61727 
61678 
61635 
61661 
61668 
61668 
61644 
61579 
61584 
61644 
61658 
61616 
61642 
61691 
61684 
61660 
61580 
61545 
61538 
61556 
61518 
61470 
61455 
61453 
61467 
61512 
61493 
61498 
61490 
61476 
61487 
61492 
61462 
61406 
61348 
61327 
61314 
61318 
61332 
61365 
61375 
61286 
61225 
61250 
61267 
61264 
61254 
61267 
61210 
61141 
61125 
61120 
61109 
61111 
61109 
61123 
61133 
61120 
61072 
61041 
61072 
61109 
61112 
61081 
61067 
61054 
61013 
60974 
60967 
61021 
61028 
61027 
61062 
61054 
61048 
61007 
61014 
61081 
61121 
61153 
61161 
61136 
61147 
61139 
61147 
61157 
61169 
61148 
61129 
61134 
61156 
61202 
61225 
61184 
61191 
61186 
61166 
61187 
61197 
61183 
61192 
61262 
61328 
61304 
61293 
61309 
61270 
61248 
61270 
61279 
61277 
61304 
61296 
61259 
61237 
61254 
61289 
61332 
61356 
61343 
61384 
61337 
61303 
61293 
61285 
61263 
61232 
61279 
61310 
61309 
61296 
61290 
61305 
61321 
61302 
61302 
61357 
61400 
61441 
61471 
61487 
61490 
61404 
61393 
61424 
61447 
61455 
61431 
61446 
61488 
61516 
61464 
61416 
61386 
61342 
61370 
61372 
61344 
61361 
61402 
61411 
61403 
61404 
61398 
61424 
61452 
61476 
61485 
61500 
61461 
61455 
61460 
61487 
61501 
61512 
61511 
61464 
61428 
61430 
61427 
61411 
61378 
61387 
61406 
61426 
61437 
61453 
61494 
61459 
61392 
61367 
61388 
61398 
61374 
61318 
61327 
61334 
61322 
61335 
61348 
61373 
61378 
61317 
61302 
61368 
61411 
61403 
61405 
61413 
61429 
61382 
61357 
61329 
61294 
61238 
61238 
61284 
61324 
61307 
61264 
61290 
61290 
61296 
61326 
61336 
61276 
61301 
61327 
61326 
61313 
61312 
61317 
61310 
61325 
61330 
61353 
61358 
61350 
61388 
61418 
61425 
61409 
61376 
61384 
61399 
61389 
61425 
61451 
61446 
61437 
61427 
61408 
61385 
61360 
61347 
61325 
61371 
61413 
61411 
61417 
61421 
61412 
61373 
61420 
61469 
61494 
61474 
61427 
61423 
61453 
61485 
61491 
61480 
61439 
61458 
61456 
61432 
61420 
61467 
61530 
61530 
61521 
61464 
61472 
61477 
61442 
61477 
61494 
61462 
61463 
61464 
61476 
61465 
61442 
61419 
61429 
61460 
61472 
61464 
61448 
61436 
61437 
61428 
61446 
61507 
61568 
61568 
61558 
61523 
61478 
61447 
61445 
61461 
61496 
61534 
61528 
61536 
61547 
61533 
61488 
61471 
61471 
61457 
61393 
61375 
61370 
61357 
61367 
61359 
61341 
61354 
61355 
61342 
61318 
61290 
61267 
61221 
61184 
61236 
61254 
61257 
61247 
61246 
61258 
61196 
61145 
61126 
61166 
61186 
61173 
61141 
61105 
61068 
61037 
60990 
60960 
60970 
60978 
61020 
61099 
61080 
60990 
60965 
60993 
61069 
61108 
61103 
61063 
61048 
61019 
61044 
61069 
61094 
61109 
61099 
61106 
61086 
61110 
61097 
61060 
61010 
61033 
61005 
61012 
61034 
61063 
61028 
61005 
60983 
60946 
60913 
60934 
60984 
61015 
61038 
61029 
61025 
61014 
61013 
60988 
60973 
61001 
61039 
61076 
61109 
61098 
61088 
61066 
61055 
61116 
61168 
61167 
61139 
61150 
61135 
61114 
61198 
61262 
61236 
61205 
61201 
61202 
61208 
61208 
61199 
61198 
61199 
61176 
61194 
61215 
61214 
61234 
61265 
61278 
61267 
61268 
61263 
61256 
61269 
61297 
61325 
61338 
61351 
61361 
61336 
61360 
61352 
61351 
61394 
61388 
61417 
61436 
61447 
61451 
61418 
61455 
61489 
61469 
61498 
61525 
61525 
61526 
61496 
61500 
61564 
61568 
61508 
61439 
61439 
61441 
61449 
61448 
61393 
61345 
61318 
61266 
61259 
61295 
61317 
61302 
61296 
61247 
61195 
61208 
61146 
61096 
61063 
61046 
61012 
60987 
60956 
60963 
61042 
61057 
60989 
60965 
60967 
60949 
60966 
60961 
60987 
61059 
61024 
60986 
60964 
60895 
60853 
60868 
60853 
60832 
60860 
60835 
60779 
60733 
60769 
60806 
60820 
60848 
60872 
60908 
60889 
60860 
60847 
60869 
60895 
60919 
60906 
60905 
60937 
60990 
61035 
61031 
60994 
60951 
60979 
61057 
61075 
61103 
61135 
61119 
61094 
61072 
61067 
61120 
61152 
61162 
61161 
61159 
61178 
61172 
61201 
61226 
61209 
61213 
61204 
61168 
61159 
61199 
61280 
61284 
61280 
61271 
61240 
61214 
61215 
61224 
61264 
61309 
61334 
61362 
61400 
61393 
61356 
61319 
61340 
61420 
61459 
61462 
61460 
61429 
61415 
61430 
61419 
61448 
61490 
61515 
61502 
61495 
61509 
61490 
61461 
61508 
61544 
61502 
61495 
61496 
61491 
61490 
61495 
61509 
61501 
61496 
61523 
61536 
61547 
61528 
61528 
61516 
61515 
61508 
61521 
61464 
61401 
61406 
61420 
61403 
61429 
61435 
61411 
61386 
61335 
61305 
61343 
61350 
61355 
61332 
61288 
61273 
61243 
61205 
61211 
61210 
61142 
61110 
61063 
61039 
61044 
61025 
60997 
61006 
60994 
60943 
60926 
60956 
60995 
61043 
61057 
61029 
60995 
61031 
61065 
61068 
61066 
61084 
61082 
61083 
61094 
61106 
61122 
61151 
61132 
61113 
61123 
61148 
61176 
61221 
61301 
61306 
61293 
61279 
61265 
61294 
61317 
61300 
61298 
61354 
61370 
61359 
61382 
61443 
61457 
61410 
61391 
61470 
61493 
61470 
61480 
61507 
61483 
61515 
61560 
61553 
61554 
61574 
61553 
61574 
61585 
61597 
61620 
61661 
61636 
61601 
61601 
61592 
61574 
61590 
61628 
61660 
61713 
61709 
61690 
61718 
61769 
61791 
61794 
61819 
61872 
61861 
61833 
61822 
61863 
61888 
61873 
61813 
61752 
61765 
61788 
61815 
61849 
61879 
61930 
61936 
61932 
61998 
62009 
62023 
61982 
61965 
61941 
61946 
61960 
61925 
61938 
61972 
61925 
61857 
61846 
61838 
61814 
61813 
61825 
61848 
61903 
61911 
61854 
61785 
61759 
61740 
61744 
61784 
61782 
61740 
61672 
61594 
61554 
61575 
61585 
61592 
61594 
61571 
61477 
61388 
61362 
61352 
61323 
61294 
61268 
61233 
61219 
61189 
61184 
61169 
61204 
61232 
61204 
61158 
61150 
61162 
61207 
61253 
61257 
61277 
61295 
61344 
61349 
61351 
61360 
61371 
61336 
61337 
61392 
61394 
61352 
61312 
61383 
61430 
61447 
61463 
61469 
61470 
61486 
61542 
61581 
61621 
61658 
61663 
61669 
61726 
61748 
61771 
61794 
61811 
61814 
61824 
61824 
61863 
61891 
61904 
61901 
61854 
61847 
61842 
61878 
61918 
61940 
61939 
61909 
61941 
62019 
62086 
62125 
62096 
62079 
62105 
62117 
62123 
62089 
62093 
62097 
62129 
62196 
62230 
62240 
62218 
62199 
62219 
62288 
62320 
62254 
62220 
62232 
62217 
62225 
62214 
62238 
62294 
62319 
62254 
62235 
62306 
62332 
62277 
62269 
62327 
62392 
62374 
62374 
62377 
62329 
62311 
62335 
62316 
62329 
62387 
62397 
62404 
62327 
62275 
62310 
62361 
62339 
62283 
62274 
62294 
62286 
62300 
62303 
62259 
62260 
62284 
62272 
62307 
62307 
62284 
62255 
62203 
62145 
62072 
62007 
61988 
61939 
61833 
61780 
61740 
61692 
61683 
61602 
61561 
61523 
61488 
61471 
61466 
61449 
61377 
61328 
61287 
61296 
61317 
61290 
61243 
61204 
61139 
61146 
61125 
61103 
61134 
61152 
61147 
61134 
61103 
61140 
61232 
61265 
61270 
61281 
61281 
61288 
61300 
61320 
61336 
61380 
61424 
61453 
61436 
61436 
61442 
61487 
61587 
61625 
61611 
61630 
61632 
61617 
61634 
61643 
61644 
61688 
61743 
61799 
61775 
61764 
61786 
61822 
61856 
61883 
61865 
61828 
61813 
61842 
61870 
61898 
61912 
61856 
61870 
61903 
61957 
61944 
61959 
62027 
61997 
61971 
61972 
61998 
61984 
61983 
62008 
62010 
62035 
62059 
62094 
62138 
62146 
62143 
62161 
62193 
62221 
62221 
62221 
62225 
62232 
62218 
62185 
62186 
62249 
62225 
62219 
62253 
62260 
62264 
62279 
62292 
62270 
62257 
62266 
62301 
62306 
62281 
62297 
62316 
62331 
62322 
62339 
62348 
62376 
62362 
62370 
62411 
62464 
62490 
62465 
62413 
62413 
62420 
62442 
62462 
62465 
62449 
62452 
62436 
62440 
62470 
62478 
62492 
62474 
62466 
62435 
62412 
62450 
62513 
62485 
62450 
62446 
62454 
62490 
62483 
62443 
62357 
62314 
62280 
62242 
62201 
62142 
62110 
62071 
62007 
61945 
61893 
61865 
61867 
61844 
61782 
61726 
61697 
61711 
61702 
61676 
61625 
61586 
61510 
61424 
61386 
61360 
61338 
61325 
61277 
61263 
61305 
61353 
61394 
61396 
61408 
61422 
61395 
61363 
61349 
61368 
61397 
61387 
61371 
61384 
61377 
61339 
61375 
61418 
61462 
61428 
61436 
61529 
61563 
61525 
61552 
61652 
61719 
61706 
61718 
61699 
61696 
61751 
61795 
61803 
61776 
61813 
61900 
61964 
61965 
61973 
61978 
61983 
62021 
62033 
61990 
61987 
61989 
61981 
62012 
62027 
62035 
62056 
62113 
62139 
62147 
62153 
62162 
62167 
62179 
62172 
62151 
62113 
62175 
62283 
62343 
62331 
62339 
62337 
62291 
62260 
62263 
62240 
62261 
62298 
62298 
62290 
62265 
62231 
62174 
62212 
62242 
62259 
62266 
62279 
62274 
62274 
62295 
62294 
62300 
62326 
62330 
62335 
62357 
62402 
62410 
62367 
62383 
62440 
62422 
62384 
62409 
62402 
62400 
62429 
62435 
62421 
62438 
62428 
62408 
62410 
62393 
62352 
62317 
62341 
62348 
62398 
62467 
62522 
62501 
62492 
62483 
62495 
62510 
62531 
62530 
62501 
62482 
62484 
62487 
62472 
62486 
62471 
62452 
62409 
62385 
62380 
62356 
62385 
62433 
62410 
62385 
62371 
62367 
62342 
62332 
62276 
62214 
62181 
62121 
62079 
62045 
61966 
61928 
61897 
61810 
61745 
61735 
61780 
61799 
61726 
61690 
61657 
61630 
61633 
61615 
61603 
61534 
61522 
61580 
61551 
61487 
61457 
61446 
61395 
61426 
61455 
61421 
61401 
61386 
61429 
61423 
61381 
61365 
61406 
61453 
61487 
61463 
61469 
61507 
61485 
61446 
61472 
61545 
61539 
61524 
61538 
61565 
61579 
61597 
61620 
61563 
61571 
61595 
61599 
61614 
61671 
61696 
61736 
61776 
61750 
61710 
61746 
61811 
61829 
61829 
61837 
61831 
61860 
61867 
61890 
61954 
61976 
61992 
62000 
61979 
61995 
61997 
62017 
62060 
62044 
62017 
62024 
62055 
62077 
62092 
62117 
62085 
62043 
62024 
62041 
62055 
62077 
62071 
62091 
62139 
62132 
62085 
62070 
62086 
62077 
62067 
62078 
62147 
62165 
62145 
62136 
62132 
62124 
62167 
62181 
62185 
62217 
62205 
62186 
62169 
62144 
62149 
62160 
62220 
62211 
62182 
62168 
62177 
62209 
62205 
62169 
62166 
62152 
62109 
62114 
62142 
62155 
62149 
62196 
62213 
62229 
62228 
62210 
62167 
62139 
62142 
62156 
62202 
62240 
62255 
62264 
62274 
62241 
62205 
62158 
62143 
62127 
62114 
62040 
61966 
61926 
61918 
61907 
61869 
61838 
61855 
61833 
61797 
61786 
61790 
61751 
61665 
61619 
61567 
61492 
61411 
61423 
61454 
61477 
61483 
61456 
61389 
61403 
61427 
61415 
61403 
61392 
61373 
61349 
61301 
61255 
61250 
61271 
61286 
61279 
61286 
61327 
61352 
61362 
61367 
61439 
61464 
61454 
61434 
61442 
61439 
61430 
61416 
61437 
61489 
61492 
61497 
61421 
61375 
61396 
61448 
61502 
61526 
61579 
61632 
61643 
61635 
61602 
61589 
61649 
61666 
61714 
61728 
61710 
61704 
61717 
61817 
61839 
61815 
61779 
61754 
61724 
61733 
61768 
61853 
61884 
61907 
61912 
61895 
61865 
61869 
61863 
61860 
61863 
61861 
61849 
61851 
61901 
61921 
61910 
61906 
61927 
61915 
61900 
61969 
62034 
62029 
62031 
62051 
62078 
62067 
62036 
62003 
61974 
61993 
62016 
62058 
62099 
62115 
62116 
62112 
62079 
62068 
62086 
62080 
62084 
62089 
62063 
62081 
62125 
62091 
62057 
62126 
62124 
62030 
62018 
62016 
61981 
61971 
62024 
62068 
62102 
62102 
62068 
62056 
62038 
62024 
62022 
61981 
61927 
61922 
62005 
62026 
61994 
62025 
62055 
62059 
62069 
62068 
62067 
61999 
61948 
61937 
61895 
61874 
61889 
61846 
61806 
61811 
61795 
61708 
61691 
61700 
61649 
61586 
61512 
61450 
61387 
61391 
61412 
61405 
61412 
61398 
61384 
61329 
61319 
61338 
61302 
61301 
61324 
61272 
61243 
61244 
61238 
61209 
61192 
61262 
61272 
61232 
61234 
61270 
61254 
61212 
61202 
61244 
61249 
61285 
61342 
61376 
61377 
61357 
61355 
61366 
61399 
61413 
61408 
61433 
61466 
61491 
61512 
61540 
61574 
61594 
61621 
61599 
61628 
61641 
61639 
61673 
61714 
61735 
61710 
61671 
61661 
61689 
61742 
61768 
61795 
61818 
61785 
61748 
61735 
61718 
61741 
61819 
61831 
61855 
61861 
61854 
61875 
61918 
61929 
61895 
61853 
61855 
61853 
61876 
61898 
61913 
61909 
61947 
62012 
62014 
62026 
62025 
61975 
61966 
61996 
62016 
62028 
62019 
62001 
62001 
62026 
62021 
61989 
62001 
61988 
61982 
62010 
62025 
62025 
62061 
62054 
62025 
62011 
61995 
62028 
62087 
62097 
62091 
62079 
62056 
62056 
62045 
62050 
62083 
62125 
62126 
62165 
62184 
62163 
62170 
62172 
62143 
62109 
62074 
62043 
62087 
62114 
62080 
62021 
62010 
62045 
62019 
62011 
62041 
62049 
62077 
62103 
62139 
62121 
62080 
62033 
62069 
62150 
62179 
62141 
62089 
62013 
61931 
61930 
61934 
61920 
61861 
61821 
61792 
61765 
61731 
61652 
61587 
61532 
61507 
61538 
61518 
61461 
61394 
61368 
61307 
61266 
61223 
61229 
61260 
61293 
61270 
61250 
61235 
61172 
61128 
61101 
61119 
61135 
61128 
61106 
61115 
61166 
61161 
61164 
61165 
61170 
61165 
61199 
61225 
61256 
61251 
61277 
61276 
61302 
61336 
61379 
61377 
61396 
61422 
61416 
61415 
61385 
61367 
61372 
61447 
61486 
61527 
61556 
61560 
61561 
61569 
61558 
61550 
61532 
61518 
61505 
61505 
61552 
61640 
61635 
61671 
61697 
61684 
61639 
61640 
61630 
61675 
61702 
61686 
61706 
61740 
61803 
61802 
61756 
61722 
61695 
61717 
61756 
61772 
61803 
61814 
61818 
61849 
61860 
61898 
61896 
61888 
61841 
61798 
61786 
61784 
61844 
61875 
61885 
61870 
61829 
61808 
61832 
61825 
61825 
61848 
61836 
61954 
62019 
62058 
62029 
61995 
62035 
62044 
62014 
62012 
62025 
62035 
62005 
61998 
62027 
62034 
62031 
62021 
61999 
62017 
62017 
62040 
62042 
62040 
62051 
62064 
62117 
62177 
62216 
62220 
62198 
62172 
62151 
62101 
62076 
62090 
62155 
62193 
62148 
62098 
62126 
62129 
62118 
62109 
62145 
62147 
62090 
62103 
62102 
62098 
62069 
62031 
62024 
62076 
62112 
62104 
62115 
62097 
62063 
62048 
62000 
62002 
62011 
62004 
61996 
61961 
61890 
61836 
61781 
61752 
61708 
61635 
61600 
61589 
61517 
61466 
61430 
61392 
61350 
61340 
61333 
61278 
61261 
61272 
61264 
61233 
61194 
61187 
61167 
61132 
61109 
61102 
61107 
61106 
61070 
61048 
61034 
61033 
61044 
61010 
60972 
61039 
61122 
61129 
61115 
61120 
61162 
61206 
61230 
61257 
61283 
61277 
61273 
61249 
61184 
61183 
61183 
61112 
61121 
61133 
61141 
61185 
61225 
61292 
61332 
61378 
61422 
61424 
61403 
61388 
61394 
61434 
61495 
61552 
61540 
61521 
61507 
61487 
61491 
61535 
61587 
61583 
61580 
61591 
61613 
61635 
61609 
61601 
61601 
61622 
61636 
61625 
61586 
61573 
61617 
61616 
61638 
61699 
61700 
61698 
61726 
61762 
61754 
61752 
61795 
61843 
61863 
61868 
61838 
61819 
61841 
61810 
61789 
61785 
61801 
61798 
61786 
61789 
61820 
61791 
61782 
61783 
61774 
61775 
61824 
61838 
61831 
61835 
61807 
61835 
61841 
61814 
61795 
61864 
61963 
61971 
61924 
61868 
61853 
61880 
61901 
61893 
61949 
61995 
61983 
61959 
61945 
61922 
61861 
61834 
61878 
61978 
62005 
61997 
61979 
61908 
61909 
61915 
61924 
61921 
61896 
61850 
61822 
61824 
61852 
61832 
61851 
61882 
61908 
61960 
61994 
62005 
62047 
62030 
61991 
61973 
61932 
61909 
61917 
61892 
61826 
61808 
61783 
61716 
61644 
61622 
61618 
61586 
61546 
61520 
61484 
61459 
61473 
61490 
61451 
61368 
61305 
61272 
61318 
61285 
61249 
61228 
61220 
61228 
61216 
61153 
61119 
61105 
61071 
61054 
61121 
61128 
61136 
61143 
61143 
61162 
61194 
61212 
61245 
61247 
61220 
61216 
61232 
61217 
61195 
61186 
61227 
61271 
61301 
61281 
61271 
61298 
61294 
61281 
61278 
61248 
61255 
61269 
61293 
61341 
61330 
61314 
61335 
61316 
61297 
61322 
61359 
61401 
61455 
61475 
61499 
61515 
61487 
61463 
61509 
61549 
61486 
61461 
61468 
61488 
61476 
61494 
61522 
61537 
61541 
61599 
61631 
61641 
61650 
61604 
61575 
61576 
61548 
61490 
61472 
61501 
61515 
61537 
61562 
61623 
61693 
61704 
61727 
61710 
61672 
61708 
61731 
61718 
61696 
61690 
61674 
61641 
61558 
61518 
61560 
61552 
61575 
61635 
61660 
61728 
61756 
61751 
61728 
61698 
61704 
61718 
61720 
61753 
61752 
61746 
61722 
61706 
61785 
61769 
61772 
61848 
61929 
61954 
61944 
61886 
61837 
61857 
61865 
61870 
61867 
61876 
61848 
61863 
61829 
61800 
61774 
61793 
61867 
61895 
61867 
61896 
61892 
61883 
61872 
61821 
61775 
61761 
61767 
61793 
61770 
61708 
61651 
61625 
61586 
61561 
61505 
61474 
61461 
61431 
61398 
61377 
61390 
61430 
61396 
61321 
61246 
61199 
61171 
61158 
61120 
61097 
61103 
61099 
61112 
61154 
61143 
61092 
61055 
61060 
61025 
60981 
60990 
60966 
60986 
61025 
61045 
61034 
61071 
61094 
61065 
61090 
61136 
61166 
61190 
61215 
61182 
61152 
61154 
61189 
61252 
61274 
61259 
61296 
61325 
61314 
61294 
61322 
61326 
61342 
61331 
61363 
61395 
61445 
61429 
61415 
61447 
61494 
61510 
61507 
61500 
61511 
61583 
61598 
61546 
61470 
61482 
61514 
61554 
61615 
61631 
61610 
61544 
61531 
61580 
61649 
61684 
61696 
61717 
61737 
61754 
61798 
61805 
61823 
61820 
61817 
61846 
61828 
61817 
61820 
61829 
61849 
61832 
61797 
61818 
61865 
61870 
61890 
61870 
61833 
61803 
61809 
61851 
61926 
61955 
61916 
61861 
61854 
61869 
61874 
61842 
61879 
61914 
61935 
61960 
61965 
61963 
62011 
62034 
61995 
61990 
61991 
61939 
61903 
61867 
61861 
61908 
61950 
61947 
61953 
61966 
61949 
61914 
61921 
61907 
61922 
61946 
61942 
61925 
61978 
62010 
62030 
62017 
61981 
61964 
61985 
61987 
61981 
62009 
62038 
62028 
61985 
61991 
62015 
61998 
62006 
62028 
61969 
61927 
61896 
61843 
61836 
61786 
61750 
61743 
61721 
61731 
61743 
61700 
61656 
61631 
61597 
61511 
61439 
61455 
61460 
61444 
61407 
61367 
61329 
61317 
61258 
61226 
61225 
61198 
61205 
61224 
61185 
61161 
61141 
61126 
61108 
61059 
61064 
61128 
61173 
61188 
61163 
61132 
61113 
61126 
61140 
61154 
61182 
61160 
61120 
61096 
61094 
61125 
61135 
61103 
61123 
61161 
61161 
61187 
61277 
61306 
61273 
61275 
61250 
61288 
61327 
61329 
61368 
61376 
61367 
61365 
61361 
61360 
61362 
61374 
61400 
61424 
61435 
61462 
61506 
61538 
61525 
61482 
61479 
61485 
61476 
61448 
61417 
61455 
61472 
61515 
61514 
61480 
61435 
61413 
61448 
61462 
61494 
61511 
61556 
61584 
61603 
61674 
61713 
61713 
61705 
61692 
61690 
61686 
61646 
61587 
61563 
61640 
61726 
61744 
61730 
61710 
61723 
61718 
61694 
61717 
61740 
61676 
61640 
61653 
61705 
61787 
61819 
61802 
61807 
61841 
61870 
61861 
61860 
61853 
61845 
61850 
61856 
61856 
61853 
61828 
61807 
61760 
61785 
61834 
61832 
61800 
61783 
61812 
61817 
61781 
61795 
61794 
61766 
61758 
61781 
61819 
61831 
61816 
61778 
61828 
61874 
61899 
61926 
61914 
61894 
61890 
61908 
61899 
61906 
61882 
61835 
61818 
61832 
61823 
61834 
61878 
61879 
61887 
61877 
61850 
61822 
61760 
61721 
61686 
61678 
61651 
61616 
61592 
61576 
61586 
61548 
61486 
61417 
61384 
61395 
61395 
61382 
61326 
61279 
61280 
61243 
61192 
61158 
61159 
61189 
61165 
61143 
61147 
61091 
61038 
61001 
60977 
60991 
60964 
60955 
60964 
60956 
60972 
60984 
60960 
60957 
60952 
60952 
60951 
60910 
60905 
60939 
61021 
61068 
61073 
61072 
61082 
61128 
61164 
61178 
61167 
61126 
61116 
61164 
61160 
61132 
61143 
61119 
61102 
61173 
61242 
61263 
61263 
61223 
61214 
61226 
61219 
61207 
61241 
61295 
61299 
61277 
61270 
61278 
61315 
61397 
61443 
61443 
61428 
61496 
61563 
61512 
61449 
61452 
61513 
61549 
61495 
61489 
61444 
61445 
61494 
61525 
61533 
61543 
61550 
61581 
61614 
61618 
61621 
61639 
61604 
61618 
61670 
61659 
61634 
61614 
61578 
61589 
61606 
61685 
61714 
61666 
61638 
61683 
61722 
61724 
61713 
61746 
61800 
61793 
61790 
61844 
61858 
61818 
61799 
61806 
61786 
61778 
61777 
61786 
61773 
61742 
61741 
61751 
61762 
61843 
61906 
61942 
61948 
61908 
61861 
61858 
61864 
61888 
61922 
61927 
61926 
61904 
61897 
61905 
61922 
61961 
61958 
61940 
61904 
61943 
61979 
61964 
61933 
61929 
61953 
61956 
61971 
61924 
61880 
61887 
61907 
61917 
61938 
61927 
61886 
61881 
61887 
61819 
61754 
61701 
61651 
61623 
61608 
61581 
61582 
61589 
61536 
61496 
61431 
61395 
61361 
61298 
61255 
61243 
61192 
61171 
61179 
61141 
61099 
61086 
61059 
61030 
61012 
60979 
60940 
60930 
60917 
60959 
60996 
60990 
60964 
60948 
60937 
60870 
60829 
60833 
60809 
60824 
60858 
60860 
60926 
60936 
60926 
60928 
60911 
60932 
60974 
61024 
61051 
61036 
61075 
61101 
61024 
61010 
61039 
61086 
61128 
61135 
61145 
61171 
61237 
61245 
61207 
61216 
61246 
61245 
61275 
61255 
61218 
61206 
61209 
61234 
61227 
61270 
61295 
61298 
61322 
61356 
61367 
61366 
61362 
61387 
61430 
61435 
61408 
61372 
61392 
61406 
61404 
61410 
61410 
61423 
61445 
61435 
61416 
61428 
61464 
61523 
61547 
61576 
61633 
61690 
61703 
61708 
61725 
61697 
61650 
61688 
61683 
61695 
61721 
61726 
61760 
61785 
61793 
61769 
61756 
61737 
61725 
61703 
61675 
61740 
61811 
61798 
61804 
61833 
61836 
61851 
61850 
61856 
61872 
61927 
61973 
61959 
61949 
61919 
61877 
61837 
61851 
61846 
61865 
61890 
61938 
61932 
61903 
61982 
62032 
62009 
61978 
61984 
61952 
61931 
61935 
61986 
62024 
62016 
61974 
61947 
61965 
61999 
61982 
61958 
61953 
61983 
62027 
62035 
62010 
62001 
61978 
61996 
62023 
61983 
61892 
61851 
61821 
61799 
61750 
61699 
61663 
61657 
61597 
61540 
61501 
61440 
61399 
61337 
61277 
61223 
61146 
61042 
61038 
61054 
61050 
61050 
61053 
61049 
61032 
60993 
60931 
60889 
60888 
60872 
60833 
60842 
60846 
60845 
60913 
60918 
60877 
60893 
60942 
60941 
60947 
60949 
60932 
60924 
60928 
60956 
60998 
61040 
61063 
61084 
61083 
61098 
61109 
61124 
61166 
61174 
61164 
61177 
61131 
61124 
61142 
61203 
61263 
61329 
61366 
61369 
61371 
61363 
61327 
61312 
61286 
61300 
61319 
61313 
61308 
61334 
61345 
61355 
61367 
61363 
61368 
61347 
61302 
61297 
61315 
61334 
61324 
61348 
61411 
61461 
61427 
61389 
61398 
61411 
61445 
61519 
61530 
61523 
61533 
61503 
61473 
61505 
61544 
61586 
61611 
61640 
61702 
61731 
61705 
61688 
61682 
61698 
61719 
61713 
61740 
61781 
61801 
61792 
61768 
61811 
61861 
61824 
61804 
61823 
61869 
61872 
61911 
61985 
62025 
62043 
62074 
62064 
62037 
62019 
62024 
62088 
62112 
62132 
62135 
62146 
62127 
62125 
62156 
62162 
62151 
62131 
62164 
62193 
62200 
62181 
62146 
62135 
62110 
62097 
62127 
62149 
62121 
62122 
62106 
62140 
62103 
61987 
61908 
61882 
61836 
61771 
61748 
61662 
61545 
61471 
61445 
61383 
61290 
61242 
61194 
61160 
61144 
61100 
61029 
60954 
60896 
60845 
60818 
60839 
60891 
60897 
60842 
60826 
60855 
60837 
60794 
60774 
60777 
60751 
60729 
60737 
60776 
60763 
60683 
60668 
60697 
60723 
60741 
60800 
60886 
60932 
60925 
60965 
61023 
61045 
61038 
61042 
61094 
61120 
61100 
61095 
61103 
61131 
61170 
61227 
61256 
61259 
61305 
61301 
61295 
61284 
61279 
61310 
61325 
61384 
61432 
61407 
61378 
61382 
61400 
61389 
61440 
61456 
61488 
61488 
61500 
61466 
61457 
61483 
61494 
61530 
61566 
61599 
61707 
61752 
61704 
61678 
61681 
61715 
61745 
61754 
61753 
61778 
61768 
61808 
61848 
61819 
61834 
61842 
61824 
61841 
61811 
61782 
61817 
61867 
61934 
61986 
62036 
62052 
62076 
62114 
62160 
62147 
62132 
62109 
62024 
62036 
62097 
62089 
62082 
62127 
62167 
62161 
62197 
62276 
62331 
62352 
62324 
62250 
62231 
62276 
62282 
62300 
62351 
62368 
62399 
62417 
62403 
62394 
62398 
62389 
62411 
62439 
62472 
62483 
62502 
62541 
62511 
62461 
62447 
62467 
62453 
62408 
62405 
62420 
62427 
62405 
62361 
62323 
62245 
62174 
62084 
62024 
61986 
61958 
61881 
61813 
61741 
61674 
61616 
61532 
61480 
61479 
61429 
61290 
61207 
61187 
61112 
61107 
61127 
61073 
60981 
60968 
60945 
60934 
60927 
60915 
60955 
60973 
60981 
60974 
60929 
60902 
60886 
60865 
60874 
60957 
61008 
60986 
61002 
61006 
60993 
61000 
61100 
61203 
61238 
61275 
61318 
61325 
61341 
61371 
61385 
61443 
61490 
61532 
61584 
61631 
61660 
61697 
61762 
61820 
61810 
61819 
61885 
61992 
62078 
62142 
62155 
62159 
62234 
62298 
62301 
62291 
62365 
62440 
62439 
62462 
62554 
62662 
62763 
62836 
62894 
62933 
62974 
63014 
63045 
63058 
63083 
63092 
63100 
63114 
63156 
63165 
63179 
63233 
63303 
63323 
63336 
63380 
63399 
63413 
63431 
63435 
63474 
63566 
63634 
63601 
63567 
63597 
63644 
63675 
63703 
63791 
63825 
63813 
63848 
63896 
63908 
63906 
63943 
63957 
63930 
63955 
64009 
64059 
64047 
64005 
64025 
64059 
64126 
64186 
64201 
64229 
64212 
64154 
64140 
64205 
64251 
64224 
64209 
64264 
64292 
64327 
64377 
64400 
64354 
64326 
64319 
64328 
64342 
64326 
64328 
64317 
64283 
64272 
64259 
64285 
64286 
64275 
64257 
64217 
64199 
64189 
64177 
64155 
64089 
64062 
63983 
63879 
63793 
63686 
63619 
63543 
63378 
63213 
63085 
63008 
62928 
62838 
62738 
62663 
62600 
62510 
62418 
62314 
62242 
62202 
62175 
62162 
62144 
62090 
61995 
61877 
61880 
61900 
61884 
61841 
61801 
61794 
61798 
61790 
61771 
61746 
61707 
61693 
61677 
61681 
61718 
61738 
61750 
61724 
61699 
61717 
61705 
61693 
61648 
61663 
61687 
61668 
61664 
61684 
61706 
61715 
61756 
61819 
61857 
61871 
61892 
61931 
61947 
61927 
61976 
62076 
62087 
62084 
62081 
62075 
62108 
62148 
62197 
62224 
62227 
62250 
62257 
62242 
62242 
62237 
62270 
62287 
62311 
62327 
62302 
62298 
62293 
62296 
62318 
62387 
62426 
62444 
62479 
62504 
62474 
62487 
62468 
62407 
62430 
62464 
62463 
62450 
62446 
62480 
62536 
62524 
62502 
62496 
62516 
62520 
62515 
62502 
62506 
62514 
62516 
62541 
62596 
62601 
62583 
62574 
62598 
62605 
62599 
62609 
62630 
62639 
62674 
62684 
62685 
62687 
62651 
62666 
62670 
62672 
62737 
62823 
62804 
62760 
62765 
62744 
62694 
62698 
62718 
62748 
62786 
62720 
62728 
62727 
62697 
62686 
62666 
62673 
62687 
62718 
62710 
62705 
62703 
62685 
62665 
62651 
62622 
62597 
62646 
62620 
62562 
62518 
62474 
62405 
62324 
62243 
62173 
62147 
62117 
62011 
61858 
61718 
61596 
61487 
61388 
61315 
61240 
61133 
61055 
60948 
60870 
60815 
60715 
60601 
60516 
60513 
60477 
60411 
60358 
60289 
60250 
60187 
60103 
60078 
60114 
60134 
60143 
60112 
60072 
60098 
60165 
60217 
60221 
60189 
60155 
60089 
60055 
60047 
60052 
60050 
60090 
60162 
60163 
60176 
60202 
60222 
60243 
60244 
60257 
60274 
60252 
60286 
60303 
60356 
60439 
60495 
60518 
60556 
60579 
60542 
60521 
60536 
60583 
60626 
60655 
60684 
60698 
60726 
60804 
60842 
60861 
60851 
60876 
60906 
60893 
60906 
60881 
60858 
60904 
60911 
60906 
60903 
60893 
60893 
60925 
60983 
61072 
61098 
61129 
61160 
61192 
61174 
61172 
61156 
61130 
61106 
61107 
61103 
61121 
61123 
61124 
61157 
61187 
61223 
61229 
61229 
61274 
61321 
61391 
61435 
61442 
61500 
61522 
61569 
61548 
61477 
61462 
61488 
61540 
61579 
61600 
61627 
61641 
61661 
61664 
61674 
61649 
61602 
61571 
61562 
61564 
61575 
61610 
61649 
61643 
61611 
61585 
61576 
61575 
61548 
61542 
61525 
61527 
61535 
61540 
61533 
61535 
61538 
61551 
61560 
61514 
61431 
61343 
61291 
61326 
61319 
61249 
61186 
61107 
61074 
60966 
60886 
60839 
60740 
60649 
60542 
60416 
60311 
60196 
60117 
60037 
59926 
59836 
59760 
59668 
59626 
59582 
59518 
59433 
59383 
59310 
59231 
59181 
59080 
58997 
58953 
58947 
58982 
58984 
58928 
58902 
58893 
58891 
58924 
58897 
58881 
58904 
58925 
58981 
59049 
59048 
59063 
59075 
59063 
59068 
59074 
59104 
59164 
59204 
59255 
59275 
59286 
59325 
59369 
59376 
59400 
59433 
59459 
59526 
59596 
59608 
59622 
59683 
59728 
59725 
59732 
59761 
59817 
59860 
59856 
59841 
59878 
59920 
59946 
59985 
60003 
60038 
60045 
60054 
60068 
60084 
60126 
60206 
60212 
60228 
60244 
60243 
60239 
60243 
60287 
60335 
60347 
60365 
60381 
60403 
60426 
60450 
60519 
60559 
60535 
60561 
60607 
60623 
60664 
60699 
60738 
60751 
60773 
60818 
60871 
60899 
60879 
60910 
60985 
61021 
61006 
61043 
61076 
61102 
61115 
61152 
61210 
61204 
61170 
61178 
61199 
61248 
61312 
61322 
61348 
61371 
61370 
61440 
61463 
61424 
61416 
61420 
61416 
61427 
61434 
61472 
61480 
61495 
61484 
61464 
61487 
61472 
61488 
61506 
61531 
61562 
61607 
61592 
61559 
61542 
61545 
61607 
61656 
61636 
61587 
61596 
61575 
61536 
61442 
61391 
61327 
61237 
61210 
61197 
61176 
61119 
61020 
60883 
60720 
60565 
60455 
60366 
60314 
60252 
60135 
60027 
59993 
59936 
59847 
59781 
59728 
59653 
59568 
59506 
59430 
59372 
59337 
59274 
59227 
59226 
59251 
59277 
59237 
59201 
59183 
59207 
59200 
59216 
59221 
59230 
59214 
59161 
59131 
59129 
59149 
59174 
59198 
59246 
59285 
59316 
59347 
59386 
59417 
59487 
59538 
59557 
59594 
59671 
59748 
59799 
59798 
59832 
59892 
59934 
59988 
60068 
60106 
60149 
60216 
60258 
60240 
60260 
60318 
60366 
60346 
60357 
60417 
60439 
60539 
60594 
60569 
60573 
60590 
60571 
60580 
60625 
60698 
60712 
60730 
60762 
60790 
60825 
60853 
60889 
60933 
60952 
60940 
60984 
60984 
61017 
61055 
61077 
61096 
61166 
61194 
61210 
61219 
61219 
61238 
61244 
61279 
61349 
61352 
61322 
61331 
61397 
61426 
61468 
61460 
61446 
61477 
61498 
61519 
61619 
61673 
61704 
61695 
61690 
61686 
61613 
61598 
61628 
61650 
61720 
61797 
61810 
61813 
61836 
61866 
61845 
61802 
61796 
61795 
61793 
61800 
61846 
61863 
61845 
61841 
61849 
61842 
61850 
61880 
61955 
61959 
61973 
61998 
62014 
62005 
61990 
61980 
61996 
62052 
62066 
61990 
61893 
61867 
61870 
61841 
61823 
61801 
61782 
61781 
61751 
61693 
61573 
61489 
61422 
61353 
61247 
61131 
61003 
60917 
60801 
60677 
60577 
60444 
60327 
60267 
60183 
60102 
60017 
59928 
59863 
59765 
59643 
59557 
59429 
59314 
59198 
59152 
59094 
59075 
59039 
58975 
58951 
58926 
58904 
58879 
58861 
58886 
58924 
58878 
58805 
58768 
58808 
58850 
58878 
58908 
58906 
58899 
58909 
58944 
58986 
58990 
59003 
59053 
59108 
59140 
59154 
59208 
59196 
59181 
59249 
59354 
59394 
59462 
59559 
59575 
59602 
59654 
59659 
59700 
59756 
59776 
59766 
59796 
59843 
59865 
59888 
59941 
60006 
60098 
60163 
60213 
60250 
60258 
60279 
60306 
60343 
60404 
60450 
60504 
60552 
60561 
60556 
60642 
60689 
60672 
60666 
60668 
60696 
60713 
60764 
60794 
60815 
60793 
60741 
60799 
60871 
60948 
61006 
61058 
61096 
61097 
61088 
61104 
61092 
61151 
61180 
61218 
61237 
61215 
61235 
61258 
61303 
61362 
61398 
61419 
61406 
61386 
61379 
61377 
61444 
61549 
61556 
61578 
61613 
61661 
61694 
61701 
61707 
61729 
61705 
61710 
61757 
61760 
61762 
61762 
61750 
61740 
61715 
61696 
61677 
61682 
61711 
61712 
61770 
61840 
61845 
61845 
61824 
61825 
61841 
61901 
61979 
62010 
61980 
61962 
61966 
61999 
62006 
62001 
61997 
62008 
62019 
62014 
61987 
61937 
61846 
61821 
61846 
61778 
61713 
61625 
61521 
61402 
61282 
61153 
61062 
60938 
60852 
60764 
60628 
60538 
60440 
60385 
60354 
60333 
60273 
60173 
60086 
59980 
59887 
59832 
59834 
59804 
59755 
59721 
59670 
59700 
59724 
59731 
59736 
59692 
59676 
59735 
59793 
59826 
59824 
59803 
59796 
59786 
59781 
59789 
59824 
59845 
59805 
59835 
59872 
59880 
59880 
59921 
59992 
60032 
59993 
60008 
60101 
60153 
60154 
60175 
60207 
60236 
60258 
60307 
60372 
60330 
60320 
60404 
60505 
60571 
60583 
60574 
60600 
60621 
60630 
60648 
60668 
60698 
60737 
60803 
60860 
60872 
60855 
60875 
60850 
60856 
60926 
60996 
61026 
61022 
60996 
60969 
60969 
60990 
61016 
61045 
61040 
61014 
61019 
61058 
61070 
61100 
61187 
61276 
61305 
61333 
61368 
61387 
61371 
61351 
61379 
61417 
61430 
61418 
61453 
61485 
61516 
61507 
61522 
61510 
61501 
61503 
61517 
61564 
61572 
61573 
61587 
61621 
61643 
61662 
61691 
61734 
61692 
61669 
61666 
61679 
61668 
61589 
61598 
61651 
61686 
61647 
61596 
61610 
61654 
61664 
61678 
61689 
61684 
61659 
61658 
61664 
61697 
61712 
61729 
61754 
61713 
61694 
61699 
61676 
61636 
61618 
61626 
61706 
61725 
61736 
61752 
61743 
61725 
61746 
61729 
61750 
61771 
61712 
61698 
61710 
61730 
61726 
61697 
61656 
61624 
61645 
61623 
61574 
61488 
61381 
61299 
61204 
61111 
60955 
60847 
60766 
60672 
60620 
60562 
60515 
60439 
60372 
60369 
60332 
60281 
60234 
60141 
60088 
60066 
59993 
59992 
60041 
60004 
59938 
59893 
59931 
59980 
59935 
59885 
59855 
59855 
59840 
59801 
59787 
59790 
59841 
59880 
59859 
59872 
59922 
59970 
59991 
60038 
60064 
60108 
60143 
60190 
60261 
60284 
60307 
60282 
60286 
60357 
60397 
60464 
60515 
60537 
60580 
60679 
60698 
60696 
60716 
60710 
60708 
60721 
60789 
60874 
60929 
60951 
60981 
60972 
60986 
61027 
60999 
61041 
61085 
61114 
61123 
61121 
61152 
61154 
61139 
61060 
60995 
61004 
61028 
61081 
61128 
61185 
61226 
61200 
61158 
61151 
61160 
61181 
61198 
61186 
61184 
61171 
61159 
61161 
61178 
61198 
61187 
61221 
61240 
61245 
61214 
61231 
61211 
61200 
61214 
61215 
61252 
61289 
61317 
61286 
61296 
61334 
61336 
61348 
61351 
61340 
61345 
61356 
61407 
61444 
61450 
61449 
61467 
61493 
61481 
61473 
61451 
61437 
61452 
61516 
61539 
61539 
61567 
61605 
61621 
61644 
61620 
61619 
61587 
61559 
61540 
61540 
61556 
61561 
61561 
61538 
61571 
61596 
61619 
61627 
61630 
61628 
61618 
61625 
61623 
61604 
61592 
61587 
61576 
61551 
61504 
61509 
61499 
61413 
61368 
61377 
61365 
61336 
61229 
61077 
60992 
60860 
60839 
60822 
60727 
60611 
60525 
60466 
60438 
60415 
60360 
60323 
60265 
60207 
60151 
60102 
60045 
59984 
59956 
59973 
59947 
59897 
59854 
59822 
59827 
59816 
59784 
59747 
59772 
59826 
59837 
59832 
59839 
59837 
59845 
59840 
59815 
59839 
59888 
59934 
59980 
60003 
60011 
60048 
60107 
60138 
60125 
60137 
60165 
60169 
60154 
60165 
60203 
60218 
60203 
60167 
60210 
60246 
60315 
60363 
60391 
60403 
60443 
60482 
60455 
60453 
60439 
60413 
60431 
60451 
60509 
60528 
60554 
60633 
60660 
60655 
60637 
60585 
60622 
60660 
60699 
60740 
60791 
60804 
60776 
60754 
60761 
60793 
60818 
60843 
60863 
60872 
60882 
60879 
60872 
60897 
60969 
60959 
60960 
61018 
61057 
61089 
61127 
61117 
61114 
61117 
61140 
61175 
61208 
61196 
61140 
61129 
61162 
61205 
61265 
61296 
61285 
61280 
61266 
61284 
61306 
61350 
61353 
61358 
61321 
61288 
61290 
61300 
61346 
61401 
61436 
61443 
61461 
61444 
61430 
61430 
61433 
61489 
61521 
61516 
61531 
61533 
61502 
61461 
61425 
61400 
61424 
61427 
61408 
61436 
61499 
61509 
61527 
61582 
61578 
61547 
61519 
61504 
61514 
61556 
61564 
61595 
61652 
61668 
61633 
61607 
61600 
61555 
61540 
61509 
61456 
61466 
61478 
61521 
61470 
61428 
61395 
61312 
61227 
61187 
61177 
61107 
61054 
61001 
60970 
60924 
60914 
60905 
60869 
60842 
60825 
60801 
60803 
60747 
60660 
60616 
60596 
60574 
60521 
60480 
60482 
60513 
60527 
60527 
60501 
60455 
60421 
60422 
60462 
60477 
60429 
60401 
60441 
60475 
60472 
60474 
60482 
60488 
60480 
60475 
60466 
60511 
60509 
60512 
60579 
60577 
60582 
60622 
60627 
60648 
60629 
60607 
60604 
60601 
60615 
60613 
60617 
60627 
60624 
60627 
60713 
60792 
60811 
60768 
60763 
60793 
60818 
60843 
60859 
60846 
60836 
60848 
60826 
60819 
60883 
60943 
60967 
61025 
61031 
61014 
61019 
60988 
60954 
60951 
60958 
61004 
61074 
61110 
61108 
61141 
61138 
61140 
61217 
61252 
61247 
61238 
61238 
61285 
61316 
61311 
61318 
61341 
61340 
61320 
61293 
61314 
61383 
61421 
61440 
61446 
61478 
61480 
61479 
61482 
61516 
61477 
61457 
61432 
61416 
61466 
61470 
61504 
61511 
61521 
61530 
61538 
61516 
61466 
61439 
61426 
61441 
61478 
61487 
61492 
61505 
61500 
61530 
61525 
61505 
61512 
61504 
61483 
61531 
61574 
61605 
61611 
61626 
61663 
61649 
61612 
61650 
61728 
61771 
61749 
61719 
61717 
61753 
61748 
61806 
61850 
61871 
61902 
61940 
61996 
62026 
62029 
62031 
62042 
62076 
62098 
62068 
62062 
62071 
62120 
62159 
62148 
62145 
62152 
62221 
62231 
62213 
62247 
62239 
62270 
62272 
62324 
62400 
62410 
62433 
62400 
62335 
62351 
62371 
62411 
62422 
62403 
62404 
62398 
62349 
62339 
62351 
62361 
62374 
62468 
62516 
62538 
62592 
62587 
62566 
62530 
62566 
62564 
62539 
62564 
62547 
62522 
62542 
62597 
62626 
62560 
62561 
62540 
62516 
62519 
62527 
62541 
62555 
62572 
62617 
62643 
62646 
62627 
62597 
62579 
62612 
62623 
62628 
62633 
62624 
62606 
62569 
62535 
62512 
62481 
62470 
62491 
62512 
62537 
62530 
62535 
62558 
62602 
62601 
62588 
62576 
62586 
62578 
62554 
62534 
62498 
62514 
62521 
62541 
62519 
62526 
62522 
62476 
62471 
62490 
62530 
62542 
62523 
62505 
62509 
62510 
62522 
62548 
62594 
62587 
62559 
62557 
62582 
62572 
62519 
62487 
62464 
62444 
62433 
62397 
62427 
62451 
62435 
62453 
62451 
62459 
62438 
62421 
62377 
62347 
62325 
62351 
62387 
62369 
62334 
62349 
62359 
62385 
62381 
62347 
62361 
62410 
62482 
62507 
62512 
62478 
62467 
62446 
62442 
62415 
62432 
62417 
62360 
62341 
62277 
62228 
62188 
62196 
62246 
62259 
62254 
62215 
62187 
62177 
62182 
62207 
62254 
62276 
62275 
62292 
62274 
62242 
62199 
62194 
62179 
62172 
62154 
62142 
62099 
62057 
62026 
62010 
62000 
61995 
62012 
62041 
62002 
61985 
61967 
61933 
61896 
61927 
62028 
62046 
62036 
62044 
62033 
62044 
61992 
61942 
61961 
61939 
61879 
61840 
61827 
61848 
61869 
61868 
61882 
61908 
61900 
61859 
61826 
61807 
61793 
61800 
61820 
61867 
61895 
61894 
61874 
61844 
61846 
61837 
61827 
61805 
61794 
61782 
61750 
61731 
61755 
61787 
61789 
61770 
61792 
61826 
61809 
61775 
61791 
61794 
61751 
61719 
61717 
61724 
61709 
61731 
61749 
61701 
61675 
61697 
61696 
61686 
61627 
61612 
61608 
61629 
61648 
61686 
61702 
61680 
61687 
61682 
61707 
61699 
61648 
61667 
61659 
61637 
61638 
61610 
61582 
61541 
61543 
61522 
61511 
61535 
61564 
61557 
61565 
61538 
61507 
61477 
61475 
61478 
61455 
61460 
61489 
61555 
61553 
61478 
61440 
61464 
61473 
61527 
61532 
61513 
61505 
61516 
61525 
61569 
61561 
61544 
61555 
61571 
61575 
61613 
61620 
61542 
61518 
61541 
61515 
61469 
61462 
61441 
61485 
61558 
61574 
61550 
61557 
61596 
61596 
61574 
61571 
61560 
61578 
61567 
61548 
61508 
61491 
61498 
61502 
61475 
61531 
61541 
61513 
61479 
61467 
61508 
61519 
61530 
61531 
61508 
61510 
61533 
61568 
61584 
61582 
61597 
61557 
61560 
61577 
61544 
61518 
61495 
61485 
61457 
61447 
61492 
61486 
61438 
61450 
61442 
61462 
61465 
61463 
61459 
61460 
61466 
61502 
61554 
61533 
61518 
61532 
61515 
61511 
61523 
61570 
61563 
61561 
61561 
61546 
61539 
61528 
61536 
61527 
61571 
61601 
61623 
61651 
61607 
61546 
61542 
61552 
61542 
61524 
61496 
61521 
61573 
61595 
61549 
61509 
61526 
61536 
61535 
61594 
61621 
61615 
61558 
61497 
61468 
61483 
61476 
61491 
61518 
61534 
61522 
61505 
61501 
61485 
61460 
61440 
61484 
61537 
61577 
61584 
61580 
61552 
61541 
61549 
61532 
61540 
61537 
61537 
61496 
61474 
61437 
61399 
61426 
61487 
61507 
61498 
61485 
61459 
61387 
61303 
61243 
61241 
61277 
61320 
61357 
61375 
61420 
61415 
61378 
61362 
61333 
61379 
61431 
61430 
61390 
61397 
61384 
61397 
61462 
61528 
61462 
61415 
61390 
61362 
61373 
61344 
61337 
61370 
61400 
61430 
61421 
61419 
61426 
61463 
61458 
61430 
61363 
61349 
61396 
61401 
61389 
61411 
61445 
61416 
61411 
61417 
61421 
61434 
61461 
61451 
61472 
61493 
61519 
61510 
61421 
61388 
61410 
61405 
61398 
61408 
61412 
61417 
61415 
61412 
61423 
61446 
61426 
61412 
61438 
61446 
61427 
61386 
61357 
61362 
61362 
61392 
61421 
61452 
61457 
61411 
61396 
61388 
61420 
61439 
61423 
61418 
61424 
61435 
61410 
61384 
61360 
61370 
61419 
61471 
61512 
61512 
61535 
61535 
61546 
61524 
61483 
61495 
61525 
61522 
61477 
61479 
61422 
61398 
61406 
61450 
61495 
61510 
61505 
61470 
61431 
61455 
61464 
61396 
61372 
61462 
61510 
61491 
61455 
61452 
61441 
61438 
61437 
61405 
61374 
61357 
61352 
61374 
61387 
61424 
61444 
61482 
61456 
61383 
61369 
61388 
61379 
61393 
61378 
61366 
61385 
61404 
61429 
61432 
61421 
61428 
61376 
61345 
61349 
61347 
61406 
61450 
61405 
61357 
61338 
61354 
61407 
61469 
61440 
61420 
61416 
61438 
61425 
61427 
61428 
61428 
61398 
61404 
61362 
61378 
61353 
61322 
61343 
61390 
61425 
61445 
61383 
61332 
61316 
61303 
61328 
61357 
61397 
61420 
61414 
61366 
61347 
61344 
61348 
61364 
61435 
61430 
61403 
61425 
61453 
61423 
61393 
61394 
61398 
61426 
61424 
61413 
61388 
61381 
61378 
61322 
61291 
61304 
61406 
61445 
61454 
61444 
61434 
61474 
61439 
61370 
61316 
61290 
61299 
61321 
61348 
61299 
61250 
61258 
61286 
61319 
61301 
61312 
61329 
61355 
61342 
61304 
61286 
61329 
61348 
61311 
61320 
61344 
61314 
61257 
61257 
61298 
61328 
61354 
61308 
61282 
61325 
61292 
61248 
61262 
61270 
61329 
61378 
61388 
61364 
61317 
61327 
61362 
61370 
61353 
61307 
61306 
61355 
61371 
61364 
61338 
61360 
61427 
61444 
61420 
61397 
61376 
61382 
61426 
61446 
61458 
61430 
61465 
61495 
61448 
61424 
61449 
61506 
61519 
61518 
61505 
61443 
61435 
61426 
61376 
61316 
61324 
61315 
61328 
61326 
61328 
61337 
61303 
61269 
61266 
61304 
61321 
61312 
61298 
61288 
61252 
61236 
61270 
61344 
61374 
61336 
61340 
61337 
61314 
61282 
61288 
61296 
61265 
61224 
61245 
61240 
61256 
61283 
61280 
61336 
61377 
61373 
61387 
61394 
61393 
61369 
61334 
61320 
61330 
61306 
61290 
61321 
61335 
61317 
61363 
61350 
61355 
61363 
61376 
61402 
61374 
61297 
61282 
61324 
61384 
61402 
61380 
61381 
61344 
61321 
61357 
61349 
61341 
61351 
61354 
61303 
61289 
61298 
61290 
61296 
61323 
61352 
61351 
61366 
61393 
61384 
61362 
61320 
61314 
61299 
61276 
61282 
61331 
61340 
61302 
61303 
61362 
61438 
61425 
61421 
61422 
61383 
61381 
61386 
61352 
61323 
61305 
61276 
61326 
61349 
61332 
61298 
61282 
61275 
61268 
61271 
61280 
61323 
61350 
61400 
61415 
61375 
61372 
61373 
61393 
61376 
61363 
61338 
61383 
61425 
61441 
61436 
61411 
61348 
61287 
61255 
61284 
61306 
61358 
61376 
61395 
61409 
61386 
61340 
61342 
61355 
61322 
61276 
61272 
61331 
61391 
61398 
61381 
61365 
61332 
61359 
61335 
61317 
61318 
61323 
61320 
61364 
61341 
61278 
61229 
61255 
61249 
61289 
61332 
61338 
61299 
61290 
61288 
61311 
61305 
61298 
61285 
61261 
61258 
61278 
61279 
61327 
61330 
61265 
61244 
61266 
61293 
61303 
61332 
61355 
61331 
61275 
61236 
61217 
61229 
61240 
61276 
61293 
61249 
61233 
61207 
61208 
61190 
61172 
61172 
61225 
61227 
61236 
61231 
61241 
61203 
61206 
61238 
61286 
61305 
61272 
61235 
61199 
61166 
61161 
61205 
61200 
61199 
61187 
61137 
61138 
61152 
61121 
61139 
61173 
61162 
61180 
61231 
61200 
61183 
61182 
61146 
61138 
61127 
61130 
61169 
61190 
61204 
61208 
61201 
61220 
61233 
61239 
61229 
61237 
61221 
61234 
61275 
61251 
61162 
61095 
61098 
61139 
61178 
61201 
61191 
61224 
61199 
61172 
61203 
61185 
61126 
61134 
61162 
61177 
61150 
61104 
61093 
61130 
61154 
61204 
61225 
61204 
61203 
61190 
61198 
61211 
61231 
61306 
61336 
61280 
61249 
61297 
61309 
61317 
61299 
61269 
61179 
61195 
61204 
61222 
61257 
61256 
61256 
61238 
61235 
61243 
61223 
61233 
61238 
61242 
61219 
61232 
61275 
61273 
61253 
61238 
61232 
61216 
61253 
61279 
61247 
61228 
61208 
61182 
61184 
61237 
61230 
61208 
61210 
61216 
61214 
61217 
61231 
61234 
61189 
61190 
61200 
61223 
61250 
61259 
61253 
61206 
61165 
61128 
61105 
61068 
61057 
61059 
61028 
60931 
60879 
60866 
60902 
60970 
60939 
60954 
60979 
60951 
60875 
60837 
60840 
60859 
60869 
60874 
60888 
60859 
60837 
60851 
60827 
60801 
60830 
60864 
60875 
60897 
60914 
60917 
60917 
60934 
60993 
60933 
60876 
60844 
60821 
60820 
60827 
60830 
60865 
60888 
60863 
60847 
60852 
60860 
60882 
60952 
60936 
60935 
60924 
60890 
60883 
60885 
60899 
60933 
60964 
60946 
60953 
60945 
60932 
60879 
60835 
60882 
60967 
61000 
60983 
61006 
61013 
60962 
60955 
60973 
60975 
60937 
60972 
61013 
60986 
60971 
60999 
61027 
61037 
61055 
61103 
61090 
61072 
61065 
61062 
61093 
61109 
61141 
61161 
61192 
61213 
61204 
61198 
61154 
61094 
61069 
61090 
61122 
61161 
61184 
61170 
61156 
61111 
61080 
61079 
61088 
61108 
61126 
61172 
61233 
61269 
61282 
61279 
61243 
61224 
61216 
61246 
61265 
61255 
61258 
61256 
61278 
61281 
61273 
61302 
61317 
61312 
61285 
61294 
61302 
61313 
61311 
61286 
61274 
61268 
61253 
61228 
61235 
61271 
61230 
61204 
61204 
61267 
61312 
61282 
61234 
61191 
61205 
61230 
61267 
61292 
61328 
61322 
61283 
61286 
61277 
61266 
61267 
61254 
61283 
61230 
61227 
61242 
61238 
61197 
61153 
61113 
61053 
61039 
61096 
61098 
61122 
61162 
61145 
61110 
61060 
60998 
60965 
61005 
61020 
60982 
60937 
60908 
60885 
60863 
60868 
60891 
60889 
60851 
60867 
60853 
60810 
60782 
60754 
60808 
60854 
60800 
60787 
60791 
60807 
60803 
60798 
60787 
60768 
60732 
60720 
60742 
60735 
60708 
60738 
60726 
60731 
60748 
60784 
60802 
60808 
60802 
60791 
60812 
60783 
60768 
60846 
60866 
60884 
60864 
60833 
60803 
60822 
60876 
60921 
60919 
60888 
60856 
60836 
60872 
60928 
60941 
60915 
60925 
60952 
60942 
60994 
61043 
60983 
60919 
60905 
60907 
60939 
61013 
61034 
60967 
60984 
61067 
61107 
61125 
61122 
61115 
61176 
61192 
61227 
61249 
61259 
61222 
61160 
61137 
61107 
61117 
61093 
61105 
61122 
61107 
61136 
61179 
61207 
61238 
61264 
61275 
61281 
61247 
61193 
61206 
61237 
61214 
61220 
61259 
61275 
61308 
61385 
61423 
61392 
61353 
61352 
61354 
61367 
61373 
61392 
61402 
61385 
61392 
61396 
61377 
61366 
61366 
61378 
61382 
61396 
61427 
61470 
61528 
61505 
61496 
61472 
61401 
61393 
61414 
61433 
61394 
61371 
61384 
61372 
61377 
61383 
61363 
61348 
61360 
61358 
61394 
61418 
61439 
61461 
61465 
61470 
61497 
61489 
61525 
61580 
61521 
61477 
61459 
61466 
61467 
61446 
61452 
61437 
61419 
61428 
61395 
61318 
61223 
61169 
61155 
61188 
61220 
61240 
61192 
61186 
61176 
61159 
61128 
61112 
61142 
61130 
61072 
61016 
60976 
60957 
60949 
60950 
60930 
60937 
60950 
60985 
60995 
60995 
60949 
60916 
60969 
60961 
60944 
60921 
60923 
60883 
60808 
60768 
60786 
60846 
60849 
60836 
60803 
60824 
60841 
60823 
60792 
60805 
60862 
60911 
60924 
60913 
60898 
60913 
60922 
60912 
60893 
60885 
60884 
60871 
60879 
60871 
60894 
60952 
60952 
60917 
60900 
60887 
60893 
60895 
60879 
60867 
60883 
60913 
60901 
60900 
60877 
60873 
60921 
60918 
60896 
60930 
60903 
60893 
60947 
60995 
60993 
61000 
61012 
61064 
61112 
61114 
61092 
61077 
61091 
61079 
61115 
61109 
61109 
61055 
61038 
61067 
61081 
61072 
61136 
61164 
61189 
61187 
61162 
61152 
61159 
61181 
61141 
61173 
61197 
61181 
61198 
61212 
61202 
61211 
61257 
61302 
61336 
61356 
61327 
61257 
61242 
61252 
61264 
61300 
61297 
61285 
61327 
61394 
61388 
61354 
61328 
61333 
61318 
61305 
61357 
61429 
61473 
61449 
61397 
61396 
61387 
61397 
61387 
61347 
61362 
61378 
61389 
61417 
61410 
61401 
61413 
61449 
61458 
61437 
61399 
61393 
61376 
61395 
61399 
61426 
61471 
61443 
61436 
61409 
61371 
61353 
61380 
61433 
61454 
61460 
61410 
61364 
61345 
61358 
61332 
61297 
61304 
61315 
61332 
61349 
61311 
61258 
61191 
61138 
61091 
61066 
61070 
61057 
60999 
61004 
61070 
61090 
61048 
61011 
61018 
61002 
60977 
61004 
61004 
60976 
61007 
60996 
60975 
60980 
60949 
60901 
60877 
60908 
60909 
60929 
60890 
60835 
60836 
60882 
60908 
60882 
60905 
60981 
60963 
60931 
60867 
60798 
60799 
60818 
60846 
60923 
60914 
60855 
60828 
60807 
60808 
60825 
60874 
60918 
60972 
61003 
60992 
60993 
60987 
60982 
60961 
60969 
60967 
60946 
60932 
60936 
60959 
60972 
60944 
60917 
60949 
60998 
61015 
61032 
61047 
61052 
61073 
61107 
61141 
61169 
61200 
61211 
61230 
61260 
61244 
61263 
61269 
61236 
61201 
61219 
61221 
61193 
61222 
61262 
61274 
61264 
61275 
61307 
61302 
61262 
61278 
61357 
61380 
61399 
61449 
61460 
61451 
61419 
61397 
61412 
61453 
61430 
61418 
61404 
61407 
61391 
61470 
61585 
61582 
61526 
61489 
61494 
61489 
61477 
61457 
61405 
61407 
61439 
61472 
61477 
61472 
61518 
61499 
61492 
61526 
61555 
61555 
61519 
61476 
61434 
61475 
61527 
61546 
61588 
61603 
61597 
61619 
61653 
61635 
61591 
61585 
61622 
61629 
61630 
61630 
61647 
61679 
61696 
61729 
61810 
61837 
61813 
61744 
61767 
61837 
61828 
61833 
61794 
61744 
61712 
61635 
61600 
61575 
61630 
61657 
61597 
61582 
61588 
61555 
61486 
61450 
61400 
61337 
61297 
61273 
61271 
61252 
61207 
61204 
61191 
61179 
61158 
61134 
61075 
61030 
60979 
60973 
60990 
60985 
61011 
61039 
60995 
60940 
60879 
60854 
60881 
60859 
60800 
60743 
60728 
60730 
60790 
60817 
60826 
60850 
60845 
60850 
60857 
60789 
60739 
60760 
60801 
60844 
60892 
60895 
60893 
60919 
60930 
60891 
60823 
60802 
60774 
60813 
60826 
60836 
60881 
60914 
60932 
60993 
61026 
61017 
61004 
60992 
61039 
61031 
61047 
61087 
61114 
61130 
61182 
61217 
61234 
61251 
61218 
61196 
61212 
61220 
61244 
61245 
61233 
61250 
61265 
61271 
61273 
61320 
61404 
61395 
61354 
61359 
61402 
61424 
61436 
61454 
61449 
61509 
61518 
61507 
61509 
61471 
61470 
61518 
61559 
61581 
61569 
61588 
61582 
61596 
61610 
61624 
61681 
61660 
61651 
61666 
61680 
61686 
61682 
61677 
61715 
61770 
61801 
61799 
61799 
61807 
61812 
61797 
61780 
61852 
61880 
61824 
61802 
61812 
61841 
61863 
61864 
61852 
61875 
61851 
61842 
61850 
61875 
61922 
61955 
61983 
61993 
61978 
61975 
61995 
62044 
62059 
62065 
62087 
62074 
62067 
62048 
61999 
61996 
62053 
62162 
62230 
62243 
62219 
62162 
62121 
62102 
62098 
62175 
62202 
62181 
62216 
62272 
62270 
62233 
62233 
62178 
62142 
62119 
62060 
62002 
61958 
61965 
61955 
61967 
61995 
61997 
61990 
61954 
61966 
61997 
61973 
61898 
61868 
61879 
61863 
61837 
61844 
61803 
61765 
61731 
61676 
61683 
61700 
61645 
61619 
61613 
61589 
61634 
61708 
61722 
61717 
61704 
61705 
61697 
61708 
61677 
61607 
61575 
61579 
61606 
61600 
61597 
61612 
61631 
61651 
61638 
61626 
61631 
61649 
61681 
61670 
61642 
61662 
61690 
61671 
61639 
61621 
61651 
61678 
61686 
61687 
61693 
61714 
61685 
61668 
61704 
61725 
61730 
61688 
61690 
61727 
61723 
61721 
61707 
61749 
61814 
61785 
61774 
61776 
61758 
61727 
61717 
61723 
61752 
61769 
61818 
61870 
61847 
61811 
61819 
61830 
61841 
61852 
61855 
61844 
61857 
61886 
61902 
61858 
61814 
61811 
61844 
61889 
61904 
61937 
61951 
61979 
61997 
62006 
62021 
61995 
62011 
62037 
62027 
61991 
61925 
61899 
61933 
61948 
61905 
61917 
61966 
61965 
61973 
61984 
62005 
61988 
61942 
61952 
61938 
61947 
61987 
62021 
62081 
62104 
62086 
62112 
62179 
62193 
62159 
62159 
62125 
62100 
62116 
62150 
62144 
62156 
62154 
62142 
62139 
62097 
62132 
62169 
62162 
62163 
62180 
62172 
62174 
62182 
62206 
62221 
62212 
62188 
62158 
62135 
62069 
62021 
62036 
62098 
62132 
62153 
62132 
62116 
62095 
62090 
62113 
62199 
62264 
62237 
62176 
62122 
62103 
62107 
62084 
62072 
62069 
62080 
62052 
62038 
62032 
62014 
61942 
61870 
61854 
61860 
61872 
61920 
61908 
61875 
61882 
61886 
61850 
61796 
61785 
61814 
61795 
61750 
61724 
61721 
61769 
61748 
61742 
61749 
61742 
61745 
61743 
61724 
61743 
61712 
61685 
61716 
61809 
61838 
61818 
61797 
61768 
61750 
61760 
61754 
61770 
61731 
61748 
61763 
61745 
61742 
61795 
61907 
61946 
61916 
61893 
61878 
61853 
61843 
61864 
61915 
61972 
61947 
61936 
61949 
61933 
61917 
61944 
61957 
61968 
61937 
61928 
61951 
61959 
61955 
61952 
61993 
62064 
62083 
62052 
62035 
62034 
62051 
62052 
62057 
62057 
62058 
62079 
62089 
62090 
62100 
62111 
62106 
62098 
62094 
62114 
62110 
62104 
62078 
62083 
62100 
62104 
62144 
62157 
62121 
62067 
62022 
62006 
62049 
62089 
62127 
62142 
62133 
62118 
62105 
62123 
62111 
62120 
62109 
62145 
62186 
62193 
62221 
62248 
62217 
62186 
62130 
62128 
62167 
62146 
62110 
62101 
62078 
62094 
62086 
62096 
62106 
62144 
62189 
62209 
62162 
62139 
62167 
62194 
62226 
62261 
62277 
62262 
62215 
62148 
62101 
62065 
62071 
62095 
62130 
62148 
62163 
62154 
62172 
62207 
62182 
62159 
62162 
62233 
62250 
62224 
62177 
62213 
62234 
62250 
62234 
62227 
62204 
62190 
62197 
62155 
62133 
62131 
62064 
61992 
61962 
61961 
61911 
61872 
61858 
61787 
61747 
61738 
61706 
61721 
61715 
61715 
61718 
61689 
61648 
61648 
61636 
61604 
61620 
61608 
61571 
61597 
61605 
61623 
61617 
61603 
61642 
61646 
61620 
61602 
61584 
61610 
61600 
61596 
61647 
61644 
61607 
61592 
61574 
61567 
61627 
61682 
61737 
61733 
61762 
61786 
61772 
61747 
61769 
61793 
61839 
61866 
61917 
61884 
61854 
61853 
61829 
61856 
61901 
61880 
61872 
61928 
61914 
61875 
61882 
61913 
61946 
61980 
61997 
62004 
62033 
62047 
62073 
62129 
62202 
62193 
62142 
62115 
62144 
62171 
62159 
62123 
62118 
62157 
62151 
62135 
62146 
62179 
62215 
62172 
62151 
62191 
62183 
62184 
62187 
62193 
62181 
62162 
62156 
62174 
62226 
62247 
62263 
62245 
62232 
62221 
62191 
62235 
62286 
62323 
62336 
62349 
62385 
62396 
62362 
62282 
62238 
62220 
62209 
62257 
62290 
62281 
62266 
62278 
62258 
62242 
62239 
62239 
62204 
62203 
62208 
62195 
62162 
62164 
62151 
62132 
62128 
62090 
62073 
62104 
62144 
62130 
62104 
62112 
62134 
62134 
62162 
62171 
62194 
62211 
62213 
62167 
62146 
62194 
62237 
62256 
62262 
62282 
62244 
62227 
62230 
62194 
62195 
62219 
62194 
62165 
62131 
62116 
62109 
62094 
62069 
62006 
61925 
61862 
61810 
61787 
61731 
61727 
61721 
61728 
61704 
61652 
61578 
61530 
61500 
61505 
61498 
61472 
61429 
61440 
61439 
61429 
61416 
61393 
61413 
61406 
61399 
61380 
61370 
61378 
61410 
61436 
61458 
61441 
61428 
61424 
61440 
61457 
61482 
61506 
61520 
61501 
61534 
61602 
61586 
61575 
61548 
61540 
61532 
61476 
61490 
61538 
61607 
61652 
61704 
61750 
61812 
61832 
61813 
61877 
61931 
61990 
61962 
61926 
61937 
61980 
62018 
61988 
62001 
62079 
62090 
62079 
62023 
61989 
62001 
61993 
62014 
62032 
62046 
62068 
62055 
62055 
62075 
62126 
62154 
62168 
62141 
62162 
62172 
62199 
62229 
62201 
62204 
62231 
62241 
62214 
62227 
62247 
62235 
62231 
62254 
62263 
62252 
62231 
62211 
62257 
62241 
62206 
62224 
62246 
62246 
62261 
62297 
62294 
62281 
62290 
62315 
62383 
62401 
62397 
62317 
62304 
62334 
62347 
62337 
62365 
62353 
62337 
62357 
62365 
62375 
62420 
62393 
62357 
62361 
62356 
62343 
62316 
62308 
62342 
62339 
62323 
62315 
62321 
62352 
62363 
62361 
62320 
62300 
62324 
62320 
62279 
62304 
62346 
62311 
62300 
62319 
62320 
62361 
62365 
62395 
62395 
62366 
62341 
62359 
62385 
62351 
62312 
62289 
62297 
62317 
62333 
62294 
62307 
62304 
62210 
62174 
62123 
62056 
62011 
61966 
61932 
61877 
61823 
61782 
61736 
61654 
61561 
61521 
61533 
61532 
61539 
61539 
61468 
61411 
61421 
61382 
61334 
61321 
61321 
61268 
61207 
61178 
61174 
61170 
61178 
61162 
61185 
61186 
61161 
61143 
61093 
61069 
61118 
61155 
61202 
61225 
61252 
61252 
61251 
61248 
61263 
61312 
61353 
61372 
61384 
61368 
61364 
61375 
61382 
61415 
61470 
61517 
61543 
61575 
61619 
61592 
61591 
61575 
61558 
61589 
61652 
61706 
61749 
61758 
61769 
61782 
61835 
61859 
61905 
61921 
61918 
61933 
61931 
61927 
61942 
61923 
61953 
61992 
62009 
62019 
62026 
62031 
62018 
62047 
62101 
62097 
62079 
62106 
62120 
62127 
62150 
62169 
62181 
62206 
62216 
62212 
62183 
62172 
62208 
62260 
62296 
62280 
62318 
62364 
62396 
62414 
62386 
62346 
62306 
62304 
62309 
62303 
62299 
62362 
62405 
62426 
62450 
62466 
62439 
62438 
62472 
62489 
62514 
62528 
62507 
62486 
62480 
62456 
62422 
62423 
62394 
62394 
62392 
62403 
62437 
62464 
62467 
62435 
62458 
62450 
62474 
62471 
62457 
62424 
62403 
62435 
62440 
62418 
62379 
62371 
62338 
62309 
62318 
62272 
62260 
62267 
62310 
62392 
62430 
62398 
62390 
62420 
62440 
62429 
62397 
62377 
62403 
62386 
62344 
62350 
62348 
62327 
62357 
62347 
62364 
62382 
62302 
62218 
62191 
62115 
62057 
62033 
62002 
61970 
61889 
61828 
61815 
61797 
61753 
61710 
61695 
61637 
61583 
61546 
61500 
61457 
61398 
61338 
61297 
61294 
61305 
61319 
61225 
61162 
61147 
61125 
61139 
61141 
61124 
61184 
61204 
61220 
61196 
61173 
61154 
61135 
61130 
61138 
61169 
61197 
61206 
61239 
61320 
61358 
61396 
61456 
61489 
61516 
61539 
61582 
61583 
61557 
61569 
61611 
61599 
61656 
61724 
61717 
61692 
61696 
61717 
61713 
61761 
61790 
61834 
61864 
61899 
61938 
61981 
62018 
62017 
62024 
62006 
62045 
62092 
62125 
62109 
62089 
62076 
62050 
62032 
61983 
61988 
62021 
62061 
62162 
62184 
62206 
62252 
62287 
62298 
62232 
62199 
62200 
62247 
62255 
62234 
62216 
62202 
62198 
62220 
62257 
62289 
62319 
62336 
62334 
62339 
62343 
62398 
62433 
62384 
62350 
62352 
62395 
62411 
62443 
62430 
62474 
62524 
62480 
62502 
62510 
62534 
62552 
62530 
62563 
62611 
62560 
62577 
62605 
62586 
62577 
62583 
62574 
62605 
62645 
62655 
62630 
62595 
62577 
62585 
62591 
62572 
62577 
62582 
62593 
62591 
62607 
62613 
62584 
62566 
62581 
62579 
62559 
62550 
62557 
62584 
62596 
62580 
62560 
62599 
62587 
62563 
62520 
62485 
62509 
62502 
62494 
62500 
62477 
62439 
62415 
62397 
62358 
62283 
62230 
62182 
62109 
62007 
61973 
61936 
61850 
61777 
61703 
61675 
61622 
61571 
61510 
61417 
61314 
61231 
61215 
61184 
61131 
61096 
61048 
61037 
61061 
61090 
61097 
61108 
61110 
61062 
61023 
61008 
61030 
61082 
61107 
61067 
61044 
61063 
61046 
61087 
61087 
61082 
61114 
61137 
61102 
61085 
61138 
61160 
61224 
61238 
61244 
61254 
61342 
61435 
61466 
61476 
61494 
61524 
61592 
61643 
61682 
61690 
61700 
61706 
61743 
61781 
61805 
61849 
61886 
61861 
61854 
61858 
61892 
61930 
61969 
61991 
62007 
62011 
62042 
62073 
62112 
62126 
62146 
62160 
62180 
62200 
62184 
62147 
62138 
62121 
62149 
62193 
62255 
62305 
62347 
62366 
62353 
62368 
62442 
62495 
62531 
62542 
62547 
62564 
62571 
62606 
62585 
62567 
62591 
62567 
62530 
62508 
62490 
62491 
62493 
62480 
62481 
62539 
62591 
62640 
62631 
62623 
62658 
62685 
62709 
62706 
62649 
62607 
62628 
62677 
62718 
62660 
62616 
62649 
62652 
62655 
62721 
62803 
62767 
62683 
62654 
62691 
62693 
62676 
62684 
62704 
62772 
62783 
62764 
62769 
62768 
62748 
62747 
62698 
62693 
62752 
62781 
62788 
62784 
62736 
62676 
62670 
62681 
62738 
62762 
62721 
62692 
62675 
62678 
62631 
62585 
62525 
62487 
62408 
62400 
62434 
62435 
62407 
62277 
62161 
62102 
62001 
61857 
61757 
61740 
61783 
61768 
61696 
61615 
61528 
61433 
61324 
61239 
61173 
61152 
61111 
61050 
60979 
60931 
60956 
