3293.9542286341466,3137.6037761692737,3150.7689536534494,3339.1718076672328,3375.158116240277,3217.846538763826,3196.724140253561,3371.738299338615,3442.258053095109,3275.961074347624,3183.0895761358233,3345.609110070361,3411.837328891436,3270.417841722708,3120.661153872151,3194.6454280192174,3283.6277226957945,3125.5114824189527,2964.958901996482,3015.3844374876544,3133.245186000489,3055.3270048292884,2875.2389997528794,2902.9104593885495,3074.2812841273885,3049.1355716151684,2860.084517012181,2841.3984586475444,3009.863556607194,3043.5923389902523,2846.3381941721673,2830.423752119989,2992.0939197652247,3046.341603558255,2914.0639798717475,2847.634595350575,2993.3232657102667,3054.120010628702,2935.320488848745,2850.406211663033,2945.5128843203647,3090.2180779240225,2980.7839370708393,2855.3012436987456,2959.5497798382976,3116.5037294034637,3066.078193912291,2868.2652554828237,2916.05328512827,3072.56019980433,3042.5418070008527,2879.4858311993876,2895.601438951664,3060.6467200096513,3088.698159301062,2907.2690495573343,2862.0067670353374,3043.882911668171,3103.8973455306705,2933.8452737146945,2829.864958508606,2989.5234691528644,3089.4581186125424,2963.1931141845125,2878.7705753768178,3109.105301988757,3534.7495716511694,3352.448743873685,3097.504746616453,3123.4104184401535,3218.1818149306555,3127.1878632531007,2960.533256594331,2984.5166783948757,3131.032363299413,3117.755427092961,2943.143599408102,2933.8452737146945,3103.562069363841,3120.325877705321,2948.7091837774738,2902.3293140327114,3105.394912409176,3152.7135554210613,2985.5225068953646,2873.383804963089,3009.282411251356,3092.050920969358,2953.87243674665,2842.828970292684,2981.3874341711326,3103.2938484303772,2976.626512602152,2840.7055545694298,2928.0114684118594,3074.348339360755,3029.242519049945,2870.3886712060776,2928.9055381900716,3106.691313587584,3080.7632900194276,2926.156273622069,2905.413854767544,3048.599129748241,3105.4172641536315,2949.7373640224178,2893.7462441618736,3059.439725809065,3125.2879649743995,2999.4252919465653,2909.213651324946,3046.788638447361,3131.4793981885196,3017.351390999722,2904.9444681339824,3027.6108417047076,3164.1800003266335,3070.9955776924585,2947.8821692326273,3043.9946703904475,3142.9681948385473,3108.881784544204,2947.5468930657976,2972.0667567332694,3134.072200545335,3095.627200082207,2984.5837336282416,2952.3525181236887,3090.4415953685757,3109.7087990890504,2992.8091755877945,2953.8053815132835,3073.9683597050143,3115.497900902975,2978.884038792138,2900.6082297096527,3009.818853118283,3086.0606534553353,2971.3291491662444,2881.3857294780887,2953.87243674665,3059.6408915091624,2999.693512880029,2887.130127803103,2909.4148170250437,3064.625330522696,3009.8412048627383,2859.6598338675303,2869.829877594695,3030.427161506076,3031.7682661733947,2833.061257965715,2833.5306445992765,2998.3300564682554,2968.9375125095266,2879.1505550325583,2821.1924816599467,2902.217555310435,2984.4496231615094,2874.1661160190247,2804.607487274109,2929.5760905237307,3024.8392253922493,2943.411820341566,2839.2079876909243,2917.1932240954907,3043.145304101146,2964.7353845519287,2850.8085430632286,2906.7996629237728,3044.4193535350983,2999.5146989243867,2868.801697349751,2884.224401023913,3046.1851413470677,3007.40486471711,2851.8814267970833,2817.7503130138293,2918.1990525959795,2947.032802943326,2810.575403043676,2731.6290416275315,2861.827953079695,2927.6538405005745,2816.386856602056,2736.5017219187885,2835.341135900156,2934.046439414792,2847.3663744171113,2713.7923495521964,2781.987521885338,2913.0805031157142,2866.544171159765,2746.090620290115,2792.9175249239834,2898.57422096422,2866.7453368598626,2747.677594146442,2798.572516271176,3014.535071198353,3123.7233428625277,3050.8119524493163,3069.430955580587,3190.1080238947898,3175.311169065377,2931.1630643800577,2738.8263033421404,2806.8873652085504,2893.7685959063288,2815.9174699684945,2769.3587862680897,2872.4226799515104,2994.239687232934,2966.992910741915,2840.906720269528,2891.8016423942618,3006.5107949388976,2923.5858230097083,2799.6230482605756,2854.228359964891,2983.9802365279484,2923.854043943172,2806.8650134640952,2835.1399702000585,2969.473954376454,2998.6876843795403,2879.441127710477,2847.3663744171113,3002.375722214666,3017.731370655462,2879.6199416661193,2840.482037124877,2951.3913931121106,3038.8090656768163,2944.2611866308675,2867.0359095377817,2951.637262301119,3052.756554216928,2986.6177423736744,2888.6053429371527,2954.542989080309,3071.5543713038414,3019.2289375339674,2905.5256134898204,2954.2971198913006,3108.814729310838,3087.8040895228496,2955.9958524699036,2980.605123115197,3113.5756508798186,3107.4512728990644,2963.1260589511467,2940.1037621621804,3067.46400206852,3126.3608487082543,3008.9024315956153,2980.538067881831,3113.016857268436,3213.711466039594,3108.524156632919,3017.9101846111043,2883.307979501245,2717.838015298607,2763.323815265157,2731.137303249515,2848.4616098954216,3024.1016178252244,3014.490367709442,2912.186433337502,2935.029916170826,3086.8653162557266,3073.007234693436,2950.8102477562725,2967.3281869087446,3047.7944669478497,3038.6526034656295,2876.2895317422785,2834.000031232838,2927.765599222851,2941.3554598516776,2790.749405711819,2705.611611081554,2776.9583793828942,2852.283758197279,2735.1829689959254,2626.8664153655072,2694.5251458317216,2792.8728214350726,2694.77101502073,2581.8723537769743,2654.7837441901856,2747.5658354241655,2704.136395947504,2585.1804119563594,2626.1064560540267,2770.185800812936,2741.6873266324196,2618.864490850507,2634.1754358023927,2770.901056635506,2778.031263116749,2666.1160786290266,2616.6963716383425,2725.862291558062,2776.511344493788,2681.605837536554,2624.8994618534402,2724.3647246795567,2793.4986702798215,2685.0256544382164,2590.813051559097,2679.057738668649,2800.2712488497796,2733.640698628509,2634.3766015024903,2691.9099917304507,2811.7600454998073,2763.9273123654502,2627.916947354907,2651.296872055158,2802.484071550855,2776.712510193886,2608.1580052564154,2613.5000721812335,2991.244553475923,3220.819320776382,2925.888052688605,2801.6794087504636,2891.891049372083,2908.029008868815,2779.126498595059,2687.86432598404,2778.031263116749,2819.314935125701,2691.2170876523364,2571.2105716717924,2636.008278847728,2722.733047334319,2638.0869910820716,2513.0289808546286,2563.655682045899,2679.6612357689423,2620.4067612179233,2469.353672188958,2489.939628832296,2616.6293164049766,2595.641028361443,2497.8968498583854,2508.3798180079243,2638.4446189933565,2662.38333730499,2534.6207659984548,2518.4157512683573,2601.2736679641807,2637.5729009595993,2529.4351612848236,2476.6403408813885,2589.136670724949,2691.5076603302555,2621.5467001851443,2539.8510742009967,2601.0501505196276,2655.253130823747,2572.0599379610944,2464.458640153246,2530.5080450186783,2654.269654067714,2612.561298914111,2485.715149130243,2519.6450972133994,2656.2142558353253,2660.6175494930208,2532.7655712086644,2518.7733791796422,2656.4154215354233,2713.1217972185373,2572.574028083566,2526.2165100832594,2629.034534577672,2678.700110757364,2569.981225726751,2496.0863585575057,2597.7644440846975,2669.4688402973225,2570.517667593678,2478.786108349098,2601.0277987751724,2713.0547419851714,2590.5895341145438,2455.696756326766,2528.1834635953264,2672.0616426541383,2608.649743634432,2500.1096725594607,2547.562426038078,2680.667064269431,2669.938226930884,2505.943477862296,2478.473183926724,2602.7265313537755,2613.880051836974,2495.102881801472,2454.7356313151877,2575.6362170739435,2634.130732313482,2516.851129156486,2439.983479974685,2551.138705150927,2642.289119039669,2548.9258824498515,2418.078770408484,2507.619858696444,2627.939299099362,2557.17367615386,2450.779372546598,2507.709265674265,2643.0714300956047,2593.8305370605635,2465.5985791204666,2529.7704374516534,2627.0899328100604,2588.3320079245577,2455.584997604489,2439.648203807855,2593.137632982449,2623.8712816084962,2497.4945184581898,2470.337148944992,2589.740167825242,2624.1171507975046,2523.422542026346,2453.5733406035115,2594.2328684607587,2700.850689512574,2556.905455220396,2472.3711576904248,2585.0463014896277,2664.9314361728952,2561.0852314335384,2430.238119392171,2464.8609715534417,2581.2018014433147,2539.4040393118908,2435.177854916794,2464.235122708693,2595.126938238971,2578.787813042142,2398.8115666880094,2404.108930123917,2548.9929376832174,2565.4661733467788,2424.5384245560676,2351.336461464937,2480.976579305718,2559.9229407218627,2488.2185445092377,2497.650980669377,2720.3414106776013,2840.884368525072,2764.8884373770284,2713.7252943188305,2764.7543269102966,2800.092434894137,2569.713004793287,2375.6104559434007,2425.298383867548,2575.0327199736503,2556.3466616090136,2431.825093248498,2486.9891985641957,2656.0801453685935,2640.389220760968,2500.2214312817373,2462.2458174521707,2625.8605868650184,2632.6108136905214,2488.106785786961,2463.564570375034,2605.676961621876,2689.764224262741,2540.298109090103,2425.0301629340843,2552.8597894739855,2637.2376247927696,2537.9511759222955,2431.4451135927575,2521.6344024699215,2638.4893224822667,2570.31650189358,2444.3867736323805,2502.97069584974,2659.611720992532,2621.5690519295995,2480.4401374387908,2503.1495098053824,2641.99854636175,2655.4319447793896,2543.874388202952,2526.238861827715,2679.9518084468614,2729.282108459724,2591.6624178483985,2561.17463841136,2702.5270703467218,2786.8825539210507,2713.613535596554,2649.8216569211077,2732.187835238914,2771.7504229248075,2299.1674899062505,2269.1714488472285,2472.617026879433,2676.867267712029,2652.995604633761,2548.0318126716393,2656.482476768789,2847.8134093062176,2836.279909167279,2725.638774113509,2807.3344000976563,2962.6119688286744,2947.8374657437166,2821.2148334044023,2838.537435357265,3013.663353164596,3069.7438800029613,2952.374869868144,2912.7005234599737,3061.004347920936,3134.4521802010754,3003.8062338598056,2890.1029098156587,2962.4555066174876,2995.223163988968,2867.4382409379773,2741.0838295321264,2816.789188002251,2886.9736655919155,2751.902073848495,2577.849039775019,2623.290136252658,2754.4948762053104,2712.004209995772,2593.8975922939294,2607.5098046672115,2732.903091061484,2703.577602336121,2572.819897272575,2554.8043912415974,2707.8244337826295,2786.0555393762043,2619.065656550605,2531.3574113079803,2656.19190409087,2728.611556126065,2606.749845355731,2554.3797080969466,2656.1024971130487,2741.508512676777,2629.682735166876,2547.562426038078,2625.1229792979934,2737.35108820809,2678.2754276127134,2583.2134584442924,2618.752732128231,2775.6619782044863,2738.893358575506,2655.901331412951,2647.2959097976577,2750.8962453480062,2751.745611637308,2636.9470521148505,2658.3600233030347,2786.3237603096677,2853.0660692532147,2740.0109457982717,2678.118965401526,2862.990243791371,3289.4615279986297,3131.881729588715,2928.1008753896804,2994.887887822138,3050.7448972159505,2921.3282968197223,2798.214888359891,2873.5626189187315,3004.275620493367,2880.692825399974,2731.5843381386208,2818.3091066252123,2944.529407564331,2902.9104593885495,2780.959341640394,2851.344984930156,2966.7023380639957,2931.0066021688704,2800.740635483341,2824.187615416958,2955.0570792027806,2972.022053244359,2854.56363613172,2807.9155454534944,2924.0105061543595,2995.4019779446103,2909.1018926026695,2842.0019557478377,2930.3584015796664,3006.622553661174,2905.9055931455605,2827.875653252084,2908.610154224653,3016.9937630884365,2908.7219129469295,2764.061422832182,2860.419793179011,3005.035579804847,2967.305835164289,2821.326592126679,2817.571499058187,2955.9735007254485,2960.399146127599,2839.342098157656,2822.019496204793,2998.2853529793447,3055.1928943625567,2903.156328577558,2854.5859878761757,2949.603253555686,3037.0656296093025,2958.8345240157278,2891.28755227179,3025.9791643594704,3130.071238287835,2987.0647772627804,2892.963933105938,3001.3922454586323,3144.9351483506143,3083.0655196983244,2948.731535521929,3021.1958910460344,3174.305340564888,3168.471535262053,3066.3464148457547,3091.268609913422,3239.192454718644,3264.427574208686,3135.8603401017594,3094.107281459246,3274.5082109580294,3329.7617232515486,3210.515166582485,3098.130595461201,3229.111817969301,3318.4070370682525,3178.4851167780303,3104.076159486313,3222.4062946327085,3351.0852874619113,3291.584943721884,3133.1557790226675,3243.3051756984205,3379.2708372200536,3299.028074625501,3190.197430872611,3233.3810011602645,3386.311636723475,3325.1125604048448,3202.334428111843,3250.614196135306,3412.641991691827,3428.0423436215337,3300.0786066149008,3305.0183421395236,3461.7934777490473,3516.510548175639,3426.8800529098576,3405.556488699495,3550.0381648585994,3604.956400985289,3464.7886115060583,3403.8130526319806,3494.4270246537953,3599.8154997605684,3544.316118278041,3451.2881578550528,3452.405745077818,3616.9369360133337,3583.7445954972027,3448.963576431701,3493.063568242022,3628.1128082409873,3618.769779058669,3493.063568242022,3493.421196153307,3631.3314594425515,3638.394610690428,3510.74379810617,3488.056777484033,3631.4208664203725,3692.374073549995,3648.8999305844227,3620.9378982708336,3761.3292051946173,3871.3891948925493,3719.464387829827,3585.957418198278,3706.0086376677323,3846.0870201691414,3799.975371357843,3719.374980852006,3797.94136261241,3946.3345940511936,3927.3132595197276,3763.206751728863,3795.8402986336114,3936.008088112842,3883.0568054982195,3736.764638038235,3741.4808561183045,3853.2842818837503,3840.8343602221444,3698.8784311864893,3654.018480064688,3801.22706904734,3832.720676984868,3698.6772654863917,3623.418941905373,3729.790893768179,3831.178406617452,3727.242794900274,3672.5480762181373,3743.492513119282,3838.8450549656222,3762.3573854395613,3643.8484363375233,3729.6791350459025,3888.2871137007614,3897.607791138624,3884.867296799099,4037.641470151123,4226.737228243021,4232.101646912294,4053.1088773141955,4011.847557049699,4059.479124483958,3986.0089404593637,3879.0558432407197,3920.6971431609563,4116.923107734097,4205.2572018214705,4146.025079014907,4121.996953725452,4306.644714670743,4404.232430962615,4291.154955763216,4118.398322868147,4171.908399094153,4285.343502204836,4232.548681801401,4162.073631533817,4223.652687508188,4303.180194280171,4193.299018537881,4068.129249588162,4137.956099266541,4284.695301615632,4230.157045144683,4110.351694864237,4137.777285310899,4300.252115756526,4289.94796156263,4149.355488938748,4147.612052871234,4302.42023496869,4329.264680059514,4208.811129189865,4114.598526310745,4240.438847594124,4305.795348381442,4205.681884966121,4115.582003066779,4262.2541501825035,4389.033244733006,4325.911918391218,4254.408687878691,4334.830264428886,4492.8794494723625,4482.865867956384,4303.582525680366,4313.618458940799,4472.3381963179345,4228.994754433007,3811.8664994080664,3968.5075245508583,4211.694504224599,4268.914970030185,4172.646006661178,4186.615846945745,4374.549314325966,4444.197350048703,4361.540599052978,4356.869084461819,4520.863833530407,4646.972375747249,4568.338938753479,4429.579309174933,4531.123284235392,4664.451439911299,4589.19311633028,4481.994149922628,4519.455673629722,4620.016171934149,4561.588711927976,4401.1925937166925,4381.456003362657,4519.634487585365,4463.375146791357,4286.796365594431,4265.98689150654,4391.626047089821,4368.156715411748,4200.138652341206,4105.210793639516,4194.081329593817,4191.488527237002,4058.830923894754,4017.9495832859975,4130.401209640648,4144.438105158581,4038.870816096165,3934.3764107676043,4008.2042227034835,4132.792846297365,4023.7610368443775,3873.803183293722,3953.0624691322414,4101.992142437952,4028.4996066689027,3887.974189278387,3957.4434110454813,4083.4625462845024,4011.60168786069,3885.6272561105798,3885.6943113439456,4039.586071918735,4039.876644596654,3861.0626889541973,3831.4466275509153,4002.9292110120314,4056.841618638232,3929.0790473316965,3893.8974015590434,4040.524845185858,4144.438105158581,4037.8202841067655,3952.8165999432326,4079.416880538092,4220.724608984543,4129.574195095801,3981.4268328460257,4037.4626561954806,4181.184373043105,4148.215549971527,4007.667780836556,4025.9515078009977,4141.398267912658,4121.415808369614,3976.2188763879394,3967.7252134949226,4125.774398538399,4146.606224370745,4004.739702312911,3958.739812223889,4109.323514619293,4167.415698458636,3954.872960433121,3868.952854746921,3978.230533388917,4049.130266801151,3910.01300931132,3807.619667961558,3882.4980118868366,3975.2577513763613,3897.6748463719905,3794.789766644212,3856.011194707298,3987.908838738065,3906.034398798275,3736.5411205936816,3768.526466909226,3894.076215514686,3878.7652705628007,3740.050344473165,3740.273861917718,3896.713721360412,3915.8915181030657,3784.954999083877,3747.4487718878713,3892.5562968917247,3989.2499434053834,3844.075363168164,3765.4419261743938,3888.264761956306,3989.3169986387493,3843.583624790147,3778.629455403025,3847.6963457699235,3938.5114834918363,3862.8955319995325,3774.181458256419,3855.519456329281,4006.2819726803273,3947.8545126741546,3812.291182552717,3847.495180069826,4024.543347900313,4026.644411879112,3875.43486063896,3894.9032300595322,4065.6258542091678,4114.375008866192,4007.287801180816,4000.6046295886795,4479.8483824549185,4653.342622917012,4373.655244547755,4187.755785912966,4306.935287348662,4386.2839801650025,4201.54681224189,4092.939685933553,4185.1182800672395,4300.497984945534,4156.910378564641,4014.46271115097,4106.9989331959405,4189.454518491569,4138.671355089111,3958.739812223889,3978.588161300202,4131.6752590746,4157.558579153845,4039.4966649409134,4042.84942660921,4198.797547673887,4190.393291758692,4034.7804468608438,4003.2868389233163,4168.600340914767,4238.69541152661,4120.030000213385,4058.674461683567,4159.614939643734,4261.27067342647,4177.719852652533,4108.272982629894,4201.099777352783,4298.665141900199,4250.586539576833,4151.389497684181,4206.866527422253,4347.548407023955,4314.423121741191,4209.92871641263,4248.016088964473,4348.509532035534,4302.554345435422,4151.590663384279,4159.547884410368,4299.380397722769,4293.501888931023,4139.34190742277,4124.813273526821,4244.149237173705,4220.970478173552,4034.5569294162906,4003.443301134503,4141.822951057309,4232.280460867937,4113.43623559907,3998.190641187506,4113.726808276989,4256.465048368579,4126.310840405326,3950.581425497702,4042.737667886933,4204.877222165731,4194.528364482923,4136.994974254963,4278.637978868243,4481.055376655505,4500.948429220728,4333.310345805925,4273.631188110255,4308.365798993802,4211.8286146913315,4044.0787725542514,4000.291705166305,4147.008555770941,4240.103571427295,4137.062029488329,4101.455700571025,4241.645841794711,4339.054744130939,4236.259071380981,4161.403079200159,4218.623545005745,4303.113139046805,4253.55932158939,4149.1990267275605,4223.496225297002,4368.067308433928,4325.598993968844,4214.957858915074,4271.530124131456,4414.44717817869,4415.274192723536,4292.831336597364,4280.761394591498,4413.262535722558,4448.935919873228,4328.795293425953,4288.629208639766,4402.801919317475,4454.948539131706,4337.959508652629,4254.833371023342,4350.409430314235,4431.166283031259,4338.630060986288,4247.189074419627,4324.280241045981,4449.204140806692,4376.113936437838,4226.6478212652,4286.528144660967,4389.860259277852,4341.960470910129,4196.674131950633,4194.774233671932,4329.734066693076,4301.906144846219,4141.6888405905775,4143.722849336011,4317.440607242657,4352.756363482042,4181.944332354586,3842.0860579116415,3812.492348252815,4044.5928626767236,4019.6930193535113,3977.4035188440707,4121.9075467476305,4258.633167580744,4167.281587991904,4063.4353832525476,4157.491523920479,4277.699205601121,4186.30292252337,4039.6531271521008,4086.547087019335,4221.238699107015,4142.359392924237,3975.2801031208164,3958.940977923987,4075.795897936332,4020.452978664992,3850.71383127139,3826.037505392731,3942.132466093596,3919.2219280269064,3764.2125802293517,3691.480003771783,3818.6390779780245,3910.907079089532,3783.36802522755,3650.1292765294647,3780.3505397260833,3875.9713025058873,3769.018205287243,3677.3089977871177,3770.292254721195,3873.847886782633,3791.392301487005,3659.6734714118807,3714.7481697497574,3840.3873253330385,3802.3893597590163,3662.802715635624,3665.2390557812523,3810.5030429962926,3828.876176938555,3724.046495443165,3723.331239620595,3892.9139248030096,3958.806867457255,3828.51854902727,3759.9657487828435,3903.8662795861105,3968.552228039769,3857.6652237969906,3778.2941792361953,3915.779759380789,4016.742589085411,3908.716608132912,3787.4807462073263,3853.2842818837503,3987.3053416377716,3932.2976985332607,3821.790673946223,3875.0548809832194,4021.41410367657,3983.192620657995,3858.939273230943,3842.5107410562923,3957.6669284900345,3967.3452338391826,3999.799966788288,4341.826360443397,4340.462904031623,4270.479592142056,4112.229241398482,4036.926214328553,4143.365221424726,4211.269821079948,4084.9154096740976,3998.6600278210676,4090.5256975323796,4175.819954373831,4080.199191594028,3968.8204489732325,4051.7230691579666,4184.44772773358,4101.85803197122,3995.5307835973244,4035.741571872422,4147.3214801933145,4142.605262113245,3958.225722101417,3945.6640417175345,4094.19138362305,4088.7152062315,3963.5677890262355,4029.259565980383,4127.227261927994,4125.595584582757,4036.4121242060814,3992.736815540411,4126.53435784988,4217.573013016345,4099.980485436975,4022.665801366067,4144.482808647491,4250.36302213228,4141.6888405905775,4018.731894341933,4093.1855551225613,4242.428152850646,4133.15047420865,4012.942792528009,4091.9785609219743,4200.809204674864,4194.885992394208,4067.0787175987625,4101.902735460131,4255.995661735018,4243.1210569287605,4098.8405464697535,4063.547141974824,4195.9812278725185,4249.200731420605,4098.482918558469,4021.928193799042,4131.630555585689,4170.902570593664,4059.099144828218,3989.294646894294,4103.959095950019,4226.021972420451,4192.606114459767,4163.951178068063,4305.1024443033275,4437.82710287894,4389.748500555575,4264.1316967167495,4314.221956041093,4478.12729813186,4460.134143845337,4360.9818054415955,4388.228581932614,4509.889127002851,4535.236005215169,4410.759140343564,4388.541506354989,4537.7841040830735,4570.730575410196,4431.993297576106,4356.377346083802,4465.900893914806,4548.155313510337,4417.911698569262,4330.449322515646,4437.0000883340945,4560.515828194121,4498.266219886091,4424.863091094862,4549.831694344484,4697.912001360894,4651.867407782961,4484.318731345979,4571.33407251049,4732.043115144148,4719.436731271355,4606.873346194428,4624.888852225406,4789.442394905376,4822.05359006567,4695.855640871006,4659.914035786872,4782.602761102052,4824.71344765585,4681.729338375251,4620.910241712361,4729.092684876047,4762.84381900356,4645.430105379833,4499.070882686482,4589.796613430573,4695.967399593282,4602.090072880992,4489.057301170505,4569.143601553869,4768.23058941729,4755.17717065539,4644.11135245697,4699.141347305936,4855.6929654709065,4828.267375024245,4691.653512913408,4662.708003843785,4797.310208953644,4847.62398572254,4803.7475113567725,4894.383835123042,5140.923576465079,5281.001958966489,5215.690161668082,5182.028434518389,5252.950519675079,5228.296545540875,5061.016090037357,4903.63745732754,5059.831447581226,5227.268365295931,5163.901169765136,5052.9247585445355,5151.965338226001,5320.810415841391,5284.287665401419,5131.424085071574,5171.1207832242,5308.04756975741,5268.440278582607,5130.708829249004,5168.483277378474,5335.897843348724,5333.707372392103,5212.605620933249,5207.040036563878,5377.7626607135135,5474.232789782619,5354.270977290986,5279.660854299171,5434.31257418544,5561.404593158316,5481.251237541585,5414.955963487144,5538.00231671361,5697.0796820020305,5586.036215548064,5483.8887433873115,5576.894352065844,5734.0047638421975,5671.889266000899,5519.5174240490705,5578.973064300188,5722.22539451425,5745.001822114208,5592.115890039908,5631.522015514614,5783.491526066247,5823.545852130157,5701.885307059921,5627.5210532571145,5786.62077028999,5883.694396459388,5769.6334445039565,5729.780284140144,5820.10368348404,5967.982824800351,5838.655631381945,5736.485807476736,5877.860591156554,5940.713696564877,5892.478632030325,5759.105772865507,5846.948128574864,6009.959400887418,5923.011114956274,5363.278730306474,5348.951262110622,5594.8875063523665,5572.2898927080505,5447.880083069812,5485.386310265817,5683.5792283510245,5729.556766695591,5597.837936620466,5565.003224015621,5709.551955408091,5768.918188681387,5616.613401962924,5576.29085496555,5715.430464199837,5800.322389641094,5678.8853620154105,5569.495924651137,5694.799804067588,5828.574994632601,5734.094170820019,5609.192622803763,5709.84252808601,5845.651727396456,5767.934711925353,5589.634846405369,5612.344218771961,5751.752048939711,5728.863862617477,5551.256901175607,5543.746715038624,5720.012571813175,5739.838569145032,5592.272352251095,5575.307378209517,5753.51783675168,5867.39997475147,5755.864769919488,5669.162353177351,5788.1853924018615,5876.430079511414,5754.2554443187055,5651.057440168553,5742.476074990759,5872.965559120841,5784.206781888817,5662.12155367393,5729.154435295396,5863.331957260604,5837.292174970171,5674.1914956797955,5672.895094501388,5790.129994169473,5775.400194573426,5611.897183882855,5557.738907067645,5645.849483710466,5632.371381803916,5448.595338892382,5383.261189849519,5498.931467405733,5537.577633568959,5390.078471908388,5287.66277881417,5374.7675269565025,5461.447591954183,5332.701543891614,5224.988487361489,5325.504282177006,5458.027775052521,5375.594541501348,5247.831970194813,5333.841482858835,5468.108411801864,5415.380646631796,5275.190505408109,5322.710314120092,5475.395080494294,5463.41454546625,5310.52861339195,5317.457654173095,5490.527211490537,5535.610680056891,5371.884151921768,5341.86575911829,5513.795377468512,5572.871038063889,5395.711111511125,5326.733628122048,5473.294016515496,5584.3821864583715,5461.380536720817,5313.81431982688,5353.53336972396,5454.496199428582,5375.8851141792675,5241.282909069409,5303.532517377439,5450.003498793066,5403.377759859295,5240.32178405783,5261.108906401266,5404.472995337605,5411.0444082074655,5328.231195000553,5654.968995448232,5877.6370737120005,5770.259293348706,5562.991567014643,5450.539940659994,5556.867189033889,5614.869965895411,5471.662339170259,5389.966713186111,5515.024723413554,5638.138131873386,5531.654421288303,5399.980294702089,5488.627313211837,5657.427687338315,5595.401596474838,5394.7276347550915,5451.456362182661,5614.333524028483,5550.005203486109,5398.9744662016,5390.033768419477,5528.994563698121,5523.585441539936,5363.837523917857,5338.937680594645,5491.533039991026,5534.493092834126,5381.115422381809,5285.941694491112,5402.930724970189,5483.665225942758,5376.153335112731,5220.898118126169,5258.493752299995,5359.277768048974,5278.655025798682,5192.511402667928,5299.710369075581,5453.579777905915,5387.709186996125,5247.407287050162,5284.757052034981,5403.109538925832,5340.479950962062,5158.8720272626915,5162.895341264647,5355.097991835832,5358.361346526307,5142.0858671767555,5117.007209897901,5279.414985110162,5340.703468406614,5238.153664845666,5213.276173266909,5403.914201726223,5488.046167855999,5324.945488565622,5214.371408745219,5263.455839569073,5256.750316232481,5090.252171784899,4934.326402464677,5007.304848111254,5172.931274525079,5096.175384065555,4968.144591825556,5029.276612910821,5161.107201708222,5120.58348901075,4977.465269263419,4993.5808770156955,5170.472582634996,5123.511567534396,4917.629649356562,4854.307157314677,4975.6771297069945,5048.834389309214,4893.310951389188,4795.142089741479,4908.510137618797,5003.281534109299,4859.96214866187,4784.748528569762,4908.621896341074,4983.723757710905,4866.5559132761855,4754.551321810642,4862.86787544106,4987.232981590389,4889.466451342875,4746.862321718017,4791.230534461801,4966.490562735863,4946.061068303713,4749.343365352555,4743.822484472094,4887.387739108532,4902.251649171311,4664.898474800405,4261.293025170926,4462.950463646706,4683.226905253757,4611.947192185783,4579.5148109811325,4729.964402909804,4803.881621823504,4707.143271820935,4618.987991689204,4748.784571741173,4857.950491660892,4737.742809980251,4564.449735218255,4621.58079404602,4762.7767637701945,4673.325082460056,4492.007731438605,4530.363324923912,4668.027719024149,4659.131724730936,4521.1767579527805,4510.000885725127,4715.793396925139,4738.07808614708,4590.891848908884,4614.875270709428,4761.346252125055,4820.131340042512,4675.426146438855,4635.327116886034,4820.220747020334,4935.734562365361,4846.3052327996775,4788.101290238058,4928.805521584216,5030.170682689033,4952.543074195752,4835.084657083114,4908.040750985236,5073.108383787678,5023.621621563629,4880.749271005306,4965.7529551688385,5165.957530255024,5124.048009401323,4908.4654341298865,4949.659699161017,5143.605785799717,5165.935178510568,4968.301054036743,4917.406131912009,5139.470713075485,5182.274303707398,4987.031815890291,4929.49842566233,5074.650654155094,5168.304463422831,5054.735249845416,4920.289506946744,5025.1862436755,5169.645568090149,5038.4855316264075,4873.194381379411,4968.256350547833,5147.4279341015745,5087.726424661449,4947.379821226576,4993.469118293419,5168.483277378474,5143.82930324427,4981.712100709928,5001.269877108321,5189.382158444186,5522.400799083805,5539.9469184812215,5325.727799621559,5407.781053516991,5429.909280527745,5245.999127149478,5145.460980589507,5292.580162594338,5407.535184327982,5284.354720634785,5152.322966137286,5240.679411969115,5362.898750650734,5221.188690804087,5051.181322477022,5147.025602701378,5317.837633828835,5239.651231724171,5022.504034340863,5050.3990114210865,5212.22564127751,5184.8224025753025,4976.302978551743,4945.099943292134,5080.104479802189,5097.740006177426,4904.308009661199,4833.229462293322,4976.817068674215,5036.6079850921615,4851.557892746674,4746.504693806732,4912.980486509859,5050.756639332371,4897.4907276023305,4785.955522770349,4930.861882074104,5066.872247084648,4954.666489919006,4828.915575613449,4939.31084147821,5079.344520490708,5001.001656174857,4837.543348973197,4877.172991892457,5063.541837160807,5017.251374393866,4847.445171766898,4850.373250290543,5042.732363072916,5045.436924152008,4855.804724193183,4816.063322551647,4980.259237320332,5010.858775479648,4861.638529496018,4767.984720228282,4898.004817724803,5015.440883092986,4898.809480525194,4751.600891542541,4858.509285272275,4987.411795546031,4877.463564570376,4720.867242916494,4817.337371985599,4993.446766548964,4940.383725212065,4745.007126928226,4793.3315984406,4970.424469759997,4952.341908495654,4791.409348417443,4826.769808145739,4995.234906105388,4999.772310229816,4815.884508596005,4786.715482081829,4956.812257386716,5021.22998490691,4844.2935757987,4731.193748854846,4888.907657731493,4984.439013533475,4880.749271005306,4785.910819281437,4914.723922577372,5086.452375227496,4989.691673480472,4841.477255997331,4948.9667950829025,5121.075227388767,5077.668139656561,4905.962038750892,4925.765684338294,5132.094637405234,5157.68738480656,4968.770440670305,4962.7578214118275,5154.580492327273,5206.190670274576,5051.8071713217705,5012.937487713992,5163.655300576127,5261.444182568095,5093.62728519765,5012.535156313796,5159.073192962789,5247.9213771726345,5119.443550043529,4974.7383564398715,5092.442642741518,5240.254728824464,5140.990631698445,5001.783967230794,5095.4824799874405,5263.366432591251,5203.17318477311,5035.110418213656,5059.004433036379,5237.371353789729,5240.791170691392,5050.063735254256,5043.76054331786,5196.847641092258,5237.974850890023,5068.056889540779,5054.310566700765,5248.323708572831,5324.252584487508,5178.1839344720765,5100.422215512063,5235.270289810931,5318.843462329324,5170.941969268557,4996.8665834506255,5068.258055240876,5230.107036841755,5188.890420066169,5040.6536508385725,5120.561137266295,5273.8046972518805,5257.152647632676,5095.4824799874405,5114.436759285541,5282.812450267369,5291.462575371573,5133.34633509473,5143.9634137110015,5315.848328572313,5345.86672137579,5196.445309692062,5129.770055981881,5306.818223812369,5406.998742461055,5273.603531551782,5173.110088480722,5316.027142527955,5452.998632550077,5336.05430555991,5203.709626640038,5310.90859304769,5473.294016515496,5403.713036026124,5245.37327830473,5311.0203517699665,5462.453420454672,5419.985105989588,5249.508351028961,5279.325578132341,5451.344603460384,5437.955908531655,5271.368357106252,5260.036022667411,5427.875271782312,5472.154077548275,5291.641389327216,5231.045810108878,5370.63245423227,5429.2387281940855,5268.015595437956,5145.818608500792,5291.0602439713775,5412.810196019434,5291.283761415931,5151.361841125708,5266.361566348263,5402.774262759002,5266.942711704101,4734.859434945516,4749.65628977493,5084.239552526421,5129.904166448613,5009.830595234704,5073.756584376882,5252.6152435082495,5289.1826974371315,5117.655410487105,5105.876041159158,5280.890200244213,5318.105854762299,5145.7292015229705,5075.857648355681,5218.975868103012,5257.711441244059,5073.711880887971,4930.92893730747,5020.782950017804,5080.238590268921,4907.683123073951,4731.216100599301,4818.723180141828,4977.979359385891,4895.568477579174,4727.103379619525,4786.067281492625,4954.59943468564,4909.4042073970095,4738.256900102723,4786.201391959356,4999.459385807441,5016.1337871711,4839.62206120754,4829.675534924929,5015.887917982092,5073.175439021044,4926.235070971856,4865.885360942526,5047.359174175164,5124.763265223893,4982.963798399424,4901.871669515571,5038.641993837595,5175.993463515457,5069.018014552357,4938.796751355738,5046.733325330416,5198.45696669304,5118.661238987594,4962.064917333712,5029.6789443110165,5195.953571314046,5146.466809089996,4983.410833288531,5009.7188365124275,5152.278262648376,5127.467826302985,4938.528530422274,5119.845881443725,5618.401541519349,5506.285191331529,5217.478301224506,5052.321261444243,5135.670916518083,5161.665995319605,4958.510989965319,4826.255718023267,4917.048504000724,5018.436016849997,4885.219619896367,4740.268557103701,4830.189625047401,4987.255333334843,4894.0262072117575,4727.1480831084355,4775.651368576452,4926.570347138685,4875.96599769187,4672.766288848673,4642.233805922724,4797.891354309482,4818.47731095282,4655.331928173534,4639.3951343768995,4804.261601479245,4910.477091130864,4766.017766716214,4678.756556362696,4841.700773441884,4933.789960597749,4780.658159334441,4652.046221738604,4776.031348232192,4899.412977625487,4775.316092409622,4616.194023632291,4695.810937382095,4873.7755267352495,4792.102252495558,4617.289259110601,4661.5233613876535,4815.728046384817,4796.796118831172,4617.512776555154,4638.366954131956,4820.354857487066,4839.175026318434,4685.663245399385,4655.77896306264,4799.053645021158,4870.847448211604,4724.778798196173,4653.946120017305,4825.652220922973,4932.448855930431,4820.913651098448,4723.996487140237,4789.822374561117,4909.247745185822,4812.062360294147,4703.410530496899,4827.7532849017725,5002.946257942469,4942.5741961686845,4817.292668496689,4893.802689767205,5093.24730554191,5110.6816662170495,4963.406022001031,5005.203784132455,5194.6795218800935,5219.288792525386,5065.531142417329,5082.205543780988,5274.0952699297995,5271.658929784171,5137.727277007971,5103.998494624912,5255.386859820707,5392.224239376097,5282.208953167075,5196.758234114437,5346.9619568541,5476.914999117255,5396.336960355873,5264.193447136098,5353.332204023863,5521.484377561138,5461.916978587745,5281.627807811237,5334.601442170316,5504.385293052828,5502.530098263037,5350.426477244673,5347.67721267667,5530.290964876529,5551.793343042534,5388.871477707801,5359.568340726893,5526.491168319127,5599.469613965704,5455.569083162437,5379.036710147466,5533.174339911264,5628.750399202157,5524.747732251612,5414.777149531502,5559.0800117349645,5755.6636042193895,5716.436292700326,5593.099366795942,5696.587943624013,5855.888826356987,5716.36923746696,5455.591434906893,5463.705118144169,5609.304381526039,5569.1159449953975,5420.923879256711,5478.814897395957,5676.2478561696835,5713.195289754306,5583.376357957883,5528.726342764658,5695.805632568077,5791.024063947686,5644.4860272986925,5574.301549709028,5734.742371409223,5842.321317472615,5719.453778201792,5614.847614150955,5752.847284418021,5910.918821205953,5815.789796804166,5676.493725358692,5775.534305040158,5930.923632493453,5872.898503887475,5727.768627139167,5794.041549449152,5979.605731917111,5957.253987461804,5796.723758783789,5807.877279266987,5987.652359921022,6032.467607553913,5837.58274764809,5812.392331646959,5983.4725837078795,6061.234302667893,5926.1850626689275,5868.964596863341,6021.71641847091,6141.342954795713,6030.970040675407,5914.428045085436,6014.787377689765,6175.205847645503,6073.05837548475,5944.714658822377,6029.986563919373,6188.996873974428,6142.728762951942,5988.725243654877,6032.221738364904,6228.335944215768,6234.125046029693,6070.7561458058535,6082.133183733605,6007.1877845749605,5775.221380617783,5764.7607642126995,5827.502110898747,6086.804698324764,6201.55855435831,6050.214892651426,5963.5124759092905,6108.240021257404,6223.642077880154,6102.696788632487,5986.892400609541,6091.386805938102,6220.222260978492,6109.82699511373,5928.6437545590115,5984.791336630743,6137.543158238311,6064.877637014108,5882.621512725534,5893.618570997545,6065.34702364767,6051.310128129737,5855.866474612531,5857.6322624245,6057.4345061104905,6075.3382534191915,5893.551515764179,5841.851930839054,6020.196499847949,6039.843683224164,5860.962672348342,5764.4701915347805,5901.776957723732,6006.651342708033,5888.20944883936,5777.52361029668,5899.541783278201,6065.212913180937,5996.101319325128,5856.380564735004,5926.162710924472,6094.247829228381,6053.478247341901,5883.225009825827,5915.232707885827,6114.453806215979,6113.291515504303,5970.933255068452,5988.546429699234,6134.860948903674,6185.733519283953,6037.049715167251,6012.261630566315,6512.806595898462,6742.783694599116,6431.17802514768,6267.786773179385,6340.6534601036865,6411.866117938294,6249.681860170586,6101.6909601319985,6220.512833656411,6364.100440037303,6246.642022924665,6063.491828857878,6145.858007175685,6319.084026704315,6259.158999819637,6089.196334981481,6130.390600012613,6317.832329014818,6310.1880324111025,6139.823036172752,6127.2837075333255,6318.413474370655,6364.502771437499,6207.794691061341,6144.852178675196,6292.977189180517,6366.983815072038,6230.571118661299,6155.446905547012,6302.141404407193,6425.3665715893,6310.120977177737,6181.062004692794,6290.33968333479,6458.335394660878,6365.732117382541,6193.17665018757,6270.960720892039,6444.924347987694,6404.288876567945,6244.228034523491,6289.892648445684,6482.162354250236,6481.514153661032,6291.367863579734,6261.8188574098185,6460.123534217302,6509.140909807791,6333.992640256005,6282.807145453352,6458.245987683057,6557.733602253628,6440.27518514099,6371.342405240823,6488.778470609006,6626.1075885424125,6517.008723856059,6394.163536329692,6525.345924537889,6696.873211487915,6621.212556506701,6443.449132853643,6536.3429828099,6736.435799173809,6697.744929521672,6541.081552634425,6574.519762339564,6745.644717889395,6746.583491156518,6565.512009324076,6569.155343670291,6762.855561119982,6808.497823297718,6642.2678997836,6589.763652058084,6751.1879505143115,6834.962288732802,6687.351368349954,6581.180582187246,6712.13945295089,6829.821387508081,6713.793482040583,6590.992998003126,6656.774181935094,6821.73005601526,6725.729313579716,6568.797715759006,6653.309661544521,6819.472529825274,6782.726261940749,6594.010483504592,6611.154271501812,6813.951648944813,6823.317029871587,6647.319394030499,6596.804451561506,6766.655357677384,6814.108111156001,6676.376661822398,6682.478688058697,6924.548080509673,7046.789770935747,6917.1943565838765,6812.275268110665,6929.264298589743,6962.23312166132,6757.401735472887,6563.7685732565615,6648.928719631282,6825.552204317118,6777.8982851384035,6650.850969654438,6739.967374797747,6939.076714405623,6928.012600900245,6777.048918849101,6775.037261848124,6923.832824687103,6938.026182416223,6776.557180471084,6747.946947568292,6928.705504978359,7000.834584335636,6849.088591228556,6774.38906125892,6935.545138781684,7037.87142489808,6904.230344799798,6806.642628507928,6944.37407784153,7084.564219065216,6769.359918756476,6317.519404592444,6593.854021293405,6874.703690374338,6843.277137670177,6727.8303775585155,6820.478358325763,7016.927840343456,6996.00660753329,6856.68818434336,6894.2391150282765,7067.68865200146,7092.432033113484,6934.9192899369355,6915.830900172103,7113.554431623749,7203.766072245368,7029.91420387199,6955.371136113541,7141.695277892981,7267.021509053888,7100.5680680952155,6995.067834266167,7142.522292437827,7298.3810065246835,7189.170383116053,7054.746991961836,7162.281234536319,7347.219568159529,7270.530732933371,7119.097664248666,7188.9468656715,7384.099946510786,7378.132030741219,7198.133432642631,7202.42496757805,7391.788946603411,7435.643069224724,7281.147811549642,7232.398656892617,7383.675263366135,7430.122188344263,7262.551160162826,7171.736022440913,7302.7843001823785,7387.430356434626,7221.759226531891,7074.5059340603275,7183.940074913511,7302.11374784872,7179.559133000271,7017.821910121669,7115.946068280467,7233.449188882017,7149.540740196793,6966.099973452088,7015.1620525314875,7214.718427028469,7180.855534178679,6989.14462198551,6992.76560458727,7178.687414966514,7205.844784479712,7026.62849743706,7000.43225293544,7166.393955516095,7238.321869173274,7081.054995185733,7014.782072875747,7173.546513741793,7288.546238964348,7164.6058159596705,7046.454494768917,7161.945958369489,7309.042788629865,7195.294761096807,7045.091038357144,7149.965423341445,7312.8202334428115,7264.831038097267,7079.222152140397,7117.287172947786,7326.700666749557,7664.815505124987,7562.578625986413,7390.671359380646,7486.33682564936,7478.29019764545,7282.779488894879,7234.1644447045865,7367.559655613859,7441.409819294193,7251.442343168538,7156.603891444671,7319.704570735046,7426.791778420423,7262.5735119072815,7137.1355220240985,7261.187703751052,7404.238868265018,7302.247858315452,7168.897350895089,7246.301441943818,7413.961877103076,7355.892045008189,7190.08680463872,7230.4093516360945,7428.289345298928,7389.956103558076,7225.000229477911,7214.539613072827,7403.121281042252,7446.461313541093,7267.53559917636,7220.641639309125,7376.656815607169,7449.970537420576,7312.797881698357,7238.053648239809,7355.109733952253,7441.342764060827,7308.282829318385,7183.336577813217,7309.690989219069,7455.9831566790535,7373.907551039166,7219.345238130718,7309.333361307784,7500.15020372274,7439.353458804305,7225.268450411374,7283.785317395368,7470.020052196986,7451.803380465911,7278.912637104111,7284.947608107043,7475.563284821902,7515.9752387970975,7328.712323750535,7285.01466334041,7461.816961981888,7553.325003781915,7404.931772343132,7332.623879030214,7498.697340333145,7617.988600491119,7494.852840286832,7377.059147007364,7490.8518780293325,7641.457932169192,7521.563174910924,7373.639330105702,7421.807339406889,7581.7787744735215,7503.659427602223,7318.318762578817,7386.871562823244,7537.589375685379,7517.875137075799,7330.5451667958705,7328.421751072616,7516.042294030463,7553.235596804095,7386.759804100968,7363.178713700619,7525.027695301497,7602.476489839136,7435.486607013537,7345.587890814292,7505.91695379221,7617.206289435183,7513.538898651469,7425.271859797462,7632.293716942516,7848.2115683807815,7770.226331976215,7595.547449057991,7632.897214042809,7715.509261549624,7528.045180802964,7299.029207113887,7323.772588225912,7543.579643199402,7589.490126310602,7478.826639512377,7484.347520392838,7675.656101185811,7741.213767673227,7600.509536327069,7557.504779995058,7695.236229328661,7743.068962463018,7621.229603437138,7529.766265126022,7638.351039689904,7776.797744846076,7677.243075042138,7539.6904396641785,7664.346118491426,7832.744161217709,7731.423703601802,7559.315271295938,7635.89234779982,7826.709190214777,7779.144678013883,7613.138271944317,7647.381144449848,7854.1347806614385,7855.833513240042,7634.998278021608,7624.023571494052,7813.409902263868,7839.136760131927,7672.437449984247,7641.524987402558,7847.965699191774,7908.740092365753,7751.8308462894975,7659.629900411356,7807.6431521944,7920.832386116074,7793.136870042905,7668.078859815462,7808.201945805782,8000.806927777163,7929.6836769203765,7778.451773935769,7832.542995517611,8005.925477257429,7976.711747254342,7816.427387765335,7868.08226920155,8095.354806823112,8121.796920513741,7909.924734821884,7884.935484520851,8074.83590541314,8044.392829465012,7507.794500326455,7582.561085529457,7889.0035020117175,8034.178082248936,7948.302680051646,7891.797470068631,8031.182948491925,8151.323574939201,8026.019695522749,7882.767365308687,7949.66613646342,8061.178989550947,7960.037345890683,7790.007625819162,7839.427332809846,8000.6504655659755,7947.609775973532,7780.038747792095,7834.487597285223,8048.192626022414,8015.447320395389,7809.297181284092,7777.580055902012,7958.0927441230715,8026.39967517849,7852.190178893827,7752.5908056009785,7877.738222806242,7967.301662838658,7823.31172505757,7745.080619463995,7864.617748810977,7985.29481712518,7893.429147413868,7770.896884309875,7873.3349291485465,8037.597899150598,7949.688488207876,7804.089224826005,7879.839286785042,8094.438385300445,8065.761097164285,7881.135687963449,7897.675978860377,8088.604579997609,8122.981562969871,7950.493151008267,7934.064618833616,8077.78633568124,8143.947499268949,8350.030583146881,8363.307519353333,8429.826310852326,8451.306337273876,8213.282610569311,8067.750402420807,8179.710290397441,8242.608099294675,8097.411167313,7943.117075338016,7995.0178259632385,8192.607246948153,8122.3333623806675,7906.191993497849,7932.075313577094,8119.494690834844,8131.832853774173,7984.512506069244,7985.719500269831,8154.452819162944,8171.440144948977,8018.285991941213,8056.418067981967,8251.593500565708,8281.388375924633,8122.13219668057,8018.822433808141,8160.912473310527,8269.653710085597,8139.253632933335,8003.913820256451,8136.861996276617,8276.761564822384,8168.4673629364215,8057.155675548992,8146.3391359256675,8256.600291323697,8205.414796521043,8081.4743735163665,8146.85322604814,8316.145338552635,8284.204695726,8096.159469623503,8130.983487484871,8309.015132071392,8309.998608827425,8143.388705657567,8132.793978785751,8329.735199181461,8379.870161994715,8226.87247119814,8138.448970132944,8292.251323729912,8431.48033994202,8273.520561876365,8138.51602536631,8310.22212627198,8471.109982861279,8324.683704934563,8179.129145041603,8300.856745345205,8432.888499842704,8333.423237016588,8193.680130682007,8249.738305775918,8416.28115371241,8372.248217135455,8157.246787219858,8173.09417403867,8356.84786520575,8381.65830155114,8188.4274707350105,8141.242938189857,8310.356236738711,8350.567025013808,8199.357473773656,8101.635647015053,8260.78006753684,8347.482484278975,8185.365281744634,8044.1469602760035,8159.3254994542,8328.438798003053,8240.43998008251,8139.208929444424,8305.349445980723,8593.1281558428,8610.763682218038,8459.263558299966,8465.67850895864,8570.239969520566,8392.700063312062,8042.180006763936,8046.426838210445,8296.02876854286,8382.306502140344,8222.178604862524,8220.278706583824,8427.702895129072,8478.262541086977,8310.713864649995,8224.3914275636,8388.654397565651,8517.154576439212,8377.634987549185,8257.472009357454,8374.483391580987,8534.097198736334,8434.274307998932,8290.664349873585,8394.935237757592,8605.019283893023,8535.438303403653,8359.306557095833,8428.373447462733,8673.259159715077,8649.879235014825,8368.761345000428,8384.251103907956,8651.041525726501,8701.847040873414,8505.576372811362,8457.855398399282,8615.122272386823,8701.377654239852,8427.881709084715,7952.728325453798,8260.355384392189,8543.172006985189,8473.926302662647,8346.566062756308,8497.507393062997,8709.267820032575,8640.111522687856,8489.818392970372,8580.119440569812,8810.230649737197,8767.047079449545,8572.989234088569,8629.807368493959,8845.546405976584,8873.32962433453,8723.081198105956,8699.924790850257,8881.532714549627,8950.309032238607,8792.796289062058,8731.68661972125,8921.452930146806,8988.73168095728,8841.970126863735,8743.845968704936,8897.38010136844,9052.881187544011,8914.52388936566,8803.480422911694,8954.622918918481,9102.949095123899,8982.584951232071,8801.804042077547,8838.79617915108,9002.634466008481,8912.109900964488,8682.266912730565,8708.843136887925,8902.163374681875,8866.378231808929,8634.367124362841,8636.334077874908,8837.008039594655,8900.107014191988,8732.178358099265,8660.541017120006,8851.648432212882,8960.702593410326,8807.280219469098,8710.541869466528,8868.255778343175,8999.907553184934,8894.407319355883,8736.939279668246,8827.55325169006,9006.702483499346,8895.770775767658,8707.636142687339,8771.472724851696,8951.471322950283,8926.347962182517,8760.788591002058,8778.290006910564,8977.309939540619,8995.034872893677,8797.445451908761,8777.664158065816,8960.054392821121,8994.789003704667,8818.456091696751,8757.704050267226,8939.334325711052,9192.512535156315,9404.898810970642,9116.091920863619,9145.305650866705,9231.739846675378,9089.426289728439,8894.496726333706,8937.657944876903,9099.886906133523,9007.753015488746,8816.712655629237,8897.33539787953,9099.842202644611,9031.602326822558,8810.0294840371,8848.720353689236,9047.852045041567,9032.876376256512,8832.425931981317,8805.045045023566,8977.980491874278,9023.510995329738,8838.930289617812,8801.044082766066,8968.05631733612,9023.846271496568,8883.432612828328,8756.742925255649,8883.432612828328,9017.096044671065,8899.548220580606,8765.884788737869,8896.508383334683,9073.914179076455,9000.175774118397,8835.108141315954,8923.106959236498,9102.211487556873,9044.655745584458,8854.263586314153,8871.697946989292,9067.476876673327,9105.787766669722,8934.171072741876,8907.036054973132,9070.65082438598,9108.22410681535,8956.545168941639,8928.493729650227,9119.869365676566,9231.96336411993,9078.205714011874,8950.331383983063,9102.166784067964,9236.344306033172,9103.396130013005,8975.566503473105,9092.600237441093,9252.191692851984,9192.020796778297,9015.26320162573,9076.618740155547,9226.978925106398,9188.10924149862,9002.232134608286,9037.637297825491,9193.808936334723,9192.356072945127,9009.854079467545,8987.234114078774,9187.885724054066,9224.721398916412,9041.191225193885,8984.127221599487,9145.95385145591,9254.136294619597,9135.247365861818,9035.26801291323,9119.645848232014,9249.35302130616,9129.212394858885,8973.82306740559,9082.966635580855,9261.847646456677,9232.633916453591,9136.856691462599,9307.579315612234,9541.93735622613,9508.633256987721,9294.749414294889,9248.905986417054,9268.463762815449,9140.947060697921,8934.193424486331,8944.38581995795,9169.758459300812,9244.368582292627,9093.896638619499,9071.991929053298,9275.482210574415,9373.226389077472,9182.297787940239,9050.221329953829,9215.780701134288,9391.24189510845,9265.78155348081,9105.541897480714,9231.136349575085,9418.689837299567,9310.775615069344,9149.932461968954,9236.724285688912,9434.470168885013,9406.105805171228,9230.73401817489,9276.957425708464,9506.152213353183,9506.621599986745,9323.091426264218,9342.358629984694,9540.149216669704,9548.799341773909,9382.681176982067,9318.934001795531,9533.331934610836,9653.405505824747,9485.096870076284,9361.491723238436,9535.008315444984,9706.021512272539,9541.825597503854,9383.32937757127,9536.908213723686,9747.21577730367,9640.217976596115,9441.19804396606,9553.448504620614,9746.634631947833,9700.612390114355,9492.092966090795,9542.31733588187,9806.827879765973,9799.004769206616,9568.066545494383,9544.753676027498,9791.807507492007,9871.513828219633,9694.800936555976,9442.852073055754,9260.595948767179,9548.955803985096,9509.192050599106,9432.614974095222,9611.272467526493,9814.114548458403,9685.077927717915,9520.79260597141,9652.489084302078,9865.85883687244,9761.520893755067,9516.635181502723,9584.830353835863,9779.290530597036,9702.624047115332,9469.383593724204,9489.187239311605,9683.133325950304,9655.797142481464,9436.235956696983,9404.116499914706,9589.166592260193,9626.963392134117,9403.177726647584,9302.527821365336,9508.007408142974,9650.611537767832,9471.842285614286,9342.51509219588,9497.12210859324,9658.836979727386,9531.432036332135,9379.641339736145,9517.126919880739,9723.522928181044,9629.19856657965,9402.931857458576,9494.104623091773,9732.620088174353,9682.418070127735,9471.73052689201,9485.745070665487,9706.82617507293,9715.409244943768,9483.599303197778,9469.473000702024,9658.613462282832,9703.115785493348,9523.720684495054,9490.863620145754,9684.988520740095,9816.908516515317,9990.82744012206,9961.367840929966,9997.912943114394,10088.012825013737,9856.024069312105,9652.690250002177,9757.318765797469,9959.892625795917,9851.821941354507,9630.919650902708,9673.499724090067,9903.186250112802,9831.593612622453,9599.604856920821,9644.040124897972,9861.94728159276,9871.893807875373,9634.920613160208,9568.111248983294,9818.18256594927,9895.698415720275,9690.218828942638,9617.687418185165,9822.339990417957,9902.806270457062,9694.465660389145,9565.943129771129,9757.4528762642,9909.623552515932,9731.63661141832,9545.84891150581,9655.618328525821,9881.773278924618,9804.972684976183,9592.98874056205,9667.91178797624,9897.86653493244,9849.720877375708,9616.52512747349,9625.71169444462,9844.825845339996,9861.455543214744,9669.789334510486,9647.303479588447,9858.125133290903,9935.261003406167,9733.156530041282,9663.91082571874,9864.696546160763,9994.202553534813,9805.375016376378,9669.610520554843,9845.004659295639,10005.22196355128,9868.071659573516,9690.06236673145,9803.944504731238,9985.507724941699,9895.027863386615,9704.054558760472,9784.543190544033,10021.806957937117,9951.018983247159,9726.11573053786,9727.054503804982,9921.782901499619,9934.523395839144,9710.290695463502,9629.645601468756,9866.61879618392,9929.114273680958,9702.691102348697,9615.228726295081,9826.698580586743,9896.883058176405,9717.86793683385,9561.94216751363,9716.97386705564,9861.52259844811,9705.105090749872,9549.13461794074,9681.859276516352,9869.792743896574,9784.78905973304,9614.111139072316,9770.036908392538,10096.573543140119,10129.587069700608,9921.67114277734,9861.835522870484,9988.815783121085,9867.356403750946,9501.145422595195,9451.368087693225,9721.131291524327,9848.938566319772,9643.05664814194,9555.035478476939,9783.000920176617,9923.928668967328,9770.394536303824,9633.80302593744,9790.980492947161,9957.63509960593,9833.42645566779,9655.350107592358,9750.568538971966,9933.875195249939,9825.268068941603,9670.705756033154,9734.095303308404,9925.761512012663,9885.014281870637,9657.205302382148,9643.615441753322,9861.23202577019,9899.431157044311,9685.837887029396,9665.631910041799,9890.848087173474,9998.672902425875,9805.240905909646,9667.330642620402,9863.467200215722,10008.865297897495,9877.794668411574,9721.734788624619,9855.129999533892,10005.3113705291,9886.578903982509,9731.346038740401,9857.432229212789,10038.704876745329,9931.707076037774,9739.951460355695,9840.534310404577,10063.403554368444,10029.250088840734,9824.508109630122,9826.363304419912,10060.207254911335,10120.95929634086,9908.774186226628,9861.94728159276,10079.183885953891,10171.451887065397,10003.523230972676,9900.01230240015,10086.895237790972,10027.50665277322,9527.632239774734,9570.994624018029,9842.836540083474,10079.56386560963,9991.743861644729,9829.045513754549,9949.610823346475,10158.934910170427,10047.80203673864,9839.32731620399,9864.4283252273,10090.896200048472,10053.680545530386,9799.094176184437,9762.839646677929,9974.085983525036,10005.73605367375,9801.709330285708,9732.329515496434,9892.4350610298,9977.841076593528,9797.75307151712,9696.67848309022,9849.653822142342,9970.73322185674,9832.822958567496,9683.736823050598,9820.864775283906,9991.743861644729,9887.160049338347,9723.031189803027,9845.697563373753,10068.56680733762,9977.68461438234,9782.330367842957,9849.005621553139,10075.51819986322,10066.935129992382,9854.414743711322,9881.862685902439,10096.104156506557,10137.968973871348,9931.192985915302,9868.742211907174,10079.85443828755,10170.557817287186,9963.31244269758,9846.301060474047,10045.544510548652,10182.046613937213,10053.188807152368,9884.164915581336,10358.357174200675,10725.037541989988,10440.723352518482,10175.788125489727,10224.649038869029,10371.589406918218,10271.40888826953,10046.66209777142,10113.560868926152,10324.784854028805,10273.264083059321,10049.366658850511,10058.41911535491,10272.1241440921,10295.504068792352,10097.266447218233,10073.171266695414,10297.94040893798,10401.920724144069,10224.179652235467,10094.919514050427,10254.712135161417,10444.120817675688,10289.871429189614,10120.534613196209,10264.233978299377,10410.34733180372,10278.963777895426,10096.126508251013,10219.754006833316,10450.513416589907,10389.984892604934,10200.196230434924,10266.2232835559,10508.002103328956,10523.648324447671,10347.360115928665,10352.612775875661,10561.109848154765,10623.337104718341,10414.527108016862,10345.929604283525,10549.0399061489,10665.760715694514,10483.146963494655,10393.002378106401,10597.878467783747,10720.522489610015,10567.52479881344,10455.430800370073,10585.585008333328,10737.018077018032,10628.366247220785,10473.491009889962,10523.044827347378,10705.971503969611,10679.238817601065,10492.937027566079,10496.736824123482,10712.766434284023,10719.539012853982,10519.60265870126,10518.41801624513,10741.153149742264,10799.290037070517,10558.293528353397,10478.207227970031,10719.851937276357,10833.242336898129,10678.031823400477,10529.772702428425,10668.286462817963,10899.895238863855,10805.146194117808,10678.009471656022,10928.01373338863,11165.657480437456,11000.79101333511,10735.006420017055,10766.522379699038,10982.708452070769,10837.600927066915,10410.436738781542,10375.635072664629,10663.883169160268,10778.32410077144,10566.295452868397,10557.42181031964,10777.832362393423,10871.642633872347,10693.40982358573,10632.411912967196,10834.739903776635,10932.081750879497,10753.379553959317,10627.785101864947,10782.7944496625,10908.053625590042,10752.440780692194,10568.441220336106,10706.865573747824,10841.780703280057,10749.266832979542,10612.787081335437,10758.922786584233,11045.248633056717,10963.441248350293,10742.449550920672,10790.818725921956,11031.681124172346,11039.28071728715,10875.48713391866,10839.009086967599,11093.461345846814,11182.153067845473,10974.862989766954,10811.024702909554,11025.623801424957,11205.667103012456,11055.03869712814,10957.003945947165,11121.289267693672,11195.899390685487,11098.825764516088,10998.779356334133,11169.345518272581,11354.194444917972,11256.204397225905,11030.89881311641,11132.643953876968,11352.115732683627,11308.149851340038,11127.257183463238,11173.435887507903,11405.514050187356,11402.675378641532,11166.015108348742,11112.303866422639,11352.853340250653,11257.992536782329,10741.197853231175,10891.200410270741,11189.015053393252,11239.261774928782,11086.331139365571,10986.88822828391,11084.520648064692,11224.576678821646,11107.230020431283,10973.767754288645,11083.827743986576,11280.14311553754,11223.41438810997,10970.102068197975,10927.857271177445,11034.855071884998,10991.023301008141,10754.184216759708,10739.722638097124,10900.141108052863,10829.107264173897,10528.968039628035,10462.35984115122,10680.982253668577,10766.947062843688,10631.406084466707,10490.79126009837,10672.980329153577,10799.580609748436,10565.66960402365,10464.103277218734,10645.957070107112,10806.308484829484,10593.922209015156,10404.781747434348,10532.969001885534,10737.755684585058,10638.938622348145,10453.776771280382,10520.764949412936,10714.845146518368,10743.45537942116,10540.635650233704,10506.281019005897,10685.229085115086,10765.628309920825,10572.442182593606,10508.739710895981,10726.557460612948,10745.981126544611,10477.961358781024,10552.61618526175,11150.950032585864,11143.149273770961,10786.70600494218,10559.701688254081,10699.757719011035,10796.339606802418,10613.032950524444,10459.901149261135,10534.17599608612,10725.484576879095,10572.777458760436,10438.599936795228,10512.897135364668,10730.513719381539,10725.506928623548,10516.562821455338,10506.45983296154,10573.358604116274,10487.237332729976,10403.887677656136,10457.911844004613,10727.518585624526,10846.318107404484,10604.673398098159,10424.54068953284,10555.745429485492,10721.036579732488,10593.519877614961,10436.655335027615,10581.852267009292,10743.45537942116,10587.708424056582,10399.327921787253,10527.51517623844,10752.50783592556,10651.25443354302,10397.875058397658,10499.709606136037,10740.706114853157,10714.152242440254,10523.51421398094,10554.650194007183,10818.534889046538,10832.750598520113,10600.761842818481,10509.83494637429,10694.25918987503,10802.843964438911,10635.71997114658,10553.219682362043,10746.696382367181,10903.91855286581,10721.17069019922,10569.715269770059,10783.599112462893,11050.456589514803,10836.416284610783,10583.372185632252,10681.183419368675,10903.695035421257,10831.588307808437,10607.780290577448,10641.956107849612,10823.653438526802,10843.971174236676,10629.282668743452,10637.753979892013,10861.919625034288,10924.25864032014,10709.704245293648,10644.370096250785,10872.134372250364,10991.671501597346,10852.688354574246,10753.446609192682,10899.023520830098,11102.737319795766,10939.97191667222,10773.65258618028,10901.750433653646,11105.128956452485,11047.461455757792,10951.036030177598,11102.737319795766,11293.464755232902,11233.047989970206,11046.433275512849,11062.19125535384,11202.671969255445,11100.010406972218,10787.197743320197,10795.780813191035,11138.745980113266,11271.42593519997,11034.676257929357,10939.323716083016,11183.203599834873,11294.984673855863,11061.297185575628,11017.733635632234,11237.205414438893,11372.992262004884,11204.08012915613,11070.57315952458,11205.175364634439,11373.998090505373,11229.69522830191,11036.799673652611,11143.77512261571,11381.754145831364,11314.43069153198,11111.275686177694,11198.872172698042,11412.532497946322,11356.966061230429,11059.978432652764,11047.975545880265,11311.726130452887,11398.249733239381,11213.445510082902,11168.20557930536,11372.075840482217,11481.84525750223,11261.881740317553,11123.30092469465,11302.628970459578,11448.585861752732,11291.341339509647,11137.49428242377,11320.063331134717,11504.509926379911,11419.886221872119,11233.830301026142,11325.785377715276,11523.978295800483,11452.832693199241,11247.688382588432,11299.835002402664,11521.273734721392,11547.626441434199,11273.415240456492,10873.7660495956,11170.530160728713,11344.717305268921,11142.21050050384,11126.765445085222,11372.768744560331,11527.755740613431,11373.841628294185,11267.670842131478,11453.771466466364,11648.745733350008,11532.539013926866,11351.981622216896,11457.727725234954,11615.955724234072,11454.12909437765,11252.203434968405,11349.791151260275,11591.972302433527,11500.75483331142,11232.265678914271,11291.162525554006,11517.742159097454,11487.567304082788,11237.518338861268,11209.60101003659,11487.03086221586,11541.680877409086,11321.896174180052,11245.520263376267,11414.946486347495,11511.148394483138,11340.6269360336,11217.98291420733,11427.865794642663,11599.01310193695,11357.278985652803,11165.501018226269,11364.38684038959,11669.376393482256,11512.221278216992,11183.717689957344,11301.243162303348,11546.933537356084,11505.09107173575,11288.301502263726,11318.789281700765,11538.261060507424,11545.167749544114,11357.63661356409,11311.390854286057,11499.100804221727,11562.66916545262,11327.953496927441,11293.531810466267,11880.73448905164,12121.954515213314,11763.90192078375,11603.081119427816,11733.481196580076,11851.364296837366,11655.048925286404,11498.989045499451,11649.192768239114,11869.133933679335,11725.926306954183,11499.03374898836,11557.260043294436,11776.374194189812,11779.548141902464,11568.279453310903,11642.330782691335,11923.828652361472,11947.74501892865,11726.194527887646,11711.308266080412,11950.874263152393,12002.976179477713,11779.458734924643,11701.808774686906,11949.08612359597,12066.812761642072,11844.05527640048,11680.664024432186,11900.202858472212,12138.584213088061,11962.161894102323,11760.19153120417,11893.229114202157,12097.34524456802,11968.08510638298,11780.442211680676,11852.236014871123,12019.09178722999,11941.821806647993,11753.173083445203,11868.30691913449,12101.122689380967,12056.776828381639,11849.687916003219,11829.14666284879,12071.193703555311,12144.239204435255,11904.539096896542,11815.221526053134,12032.122854247435,12160.801847076636,11958.630318478385,11799.172973534223,11931.562355943008,12057.022697570646,11942.93939387076,11805.587924192898,11950.717800941205,12165.205140734333,12048.95371782228,11850.649041014796,11937.329106012477,12143.143968956945,12072.154828566889,11860.930843464237,11916.653742391318,12191.043757324667,12232.819167711636,11987.821696737015,11928.477815208176,12165.629823878984,12246.364324851553,12040.460054929265,11953.578824231485,12150.989431260758,12264.871569260547,12093.791317199626,11931.048265820536,12090.460907275785,12255.036801700211,12059.079058060535,11849.77732298104,11986.011205436136,12165.808637834625,12030.737046091206,11826.419750025243,11888.647006588819,12106.174183627867,12063.884683118426,11823.983409879615,11824.989238380103,12051.255947501177,12020.723464575227,11783.437345437687,11751.273185166501,11974.187132619278,12052.284127746121,11821.681180200718,11724.182870886669,11933.149329799335,12095.266532333677,11880.041584973525,11725.255754620524,11964.441772036764,12211.22738256781,12103.670788248872,11939.02783859108,12029.127720490424,12198.553943461651,12029.57475537953,11690.185867570146,11644.320087947857,11796.244895010579,11756.972880002604,11601.538849060398,11661.709745134085,11923.06869304999,11911.870469077883,11742.332487384378,11723.132338897269,11962.877149924892,12041.063552029556,11859.58973879692,11820.518889489042,12025.305572188565,12181.968949075814,12016.47663312872,11913.2115737452,12129.375294372476,12307.630456403549,12242.028086427223,12053.133494035423,12139.657096821917,12353.16095985901,12315.006532073801,12150.877672538481,12226.85125194207,12384.766326518813,11929.97538208668,11669.689317904631,11890.949236267716,12198.263370783732,12262.099952948089,12079.620311214961,12081.699023449306,12376.809105492724,12470.015879871355,12270.23598792982,12193.45774572584,12408.414472152528,12567.380078718672,12382.374689862096,12230.338124077098,12387.78381202028,12576.745459645446,12443.014972569345,12295.180534741943,12445.56307143725,12681.083402762819,12617.8279659543,12403.273570927808,12423.680713615504,12683.899722564189,12664.341946165794,12432.532004419805,12480.923531165545,12751.156121630207,12813.539840404968,12600.68417795708,12553.38788668965,12764.76833400349,12847.20156755466,12685.75491735398,12604.461622770026,12814.948000305654,12992.264389069604,12812.466956671115,12674.869617804245,12787.902389514731,12901.382196114326,12743.131845370752,12596.079718599287,12672.634443358713,12840.093712817874,12753.19013037564,12571.425744465083,12595.163297076619,12768.322261371883,12723.238792805529,12500.682473264036,12503.364682598673,12740.941374414131,12754.665345509691,12532.086674223743,12518.8544415062,12732.894746410222,12794.339691917861,12567.983575818966,12476.877865419134,12692.795716857401,12833.29878250346,12679.205856228573,12517.267467649874,12662.12912346472,12890.720414009145,12793.087994228363,12595.677387199092,12670.22045495754,12856.075210103418,12805.426157167693,12598.806631422834,12629.36146609324,12860.098524105373,12879.052803403474,12714.85688863479,12729.296115552917,12960.636670665344,13235.80899665463,13312.073148736137,13057.531482879102,13155.36506835998,13161.288280640636,12891.368614598348,12747.110455883796,12925.209155703684,13057.06209624554,12905.249047905094,12762.62256653578,12899.549353068991,13104.760718913165,12995.058357126518,12813.562192149424,12880.885646448809,13072.149523752872,13007.19535436575,12800.665235598712,12858.31038454895,13090.321491995037,13057.039744501084,12827.39792196726,12835.958640093642,13091.908465851364,13175.99572849223,12953.171188017272,12852.275413546016,13039.91830824832,13156.102675927004,13010.838688711965,12909.518231096057,13083.124230280428,13236.85952864403,13077.91627382234,12896.93419896772,13031.156424421839,13229.751673907242,13120.988085387718,12913.742710798111,12993.829011181477,13198.056900269617,13128.967658158263,12929.768911572566,12959.384972975848,13204.494202672746,13208.986903308261,13009.139956133362,13012.470366057201,13218.776967379687,13231.986848352773,13005.76484272061,12885.579512784423,13095.73061415322,13237.910060633429,13138.020114662662,12988.911627401309,13160.573024818066,13318.197526716893,13142.848091465008,12950.064295537984,13118.350579541991,13314.531840626221,13235.674886187899,13074.809381343053,13115.288390551614,13330.870965823051,13212.540830676655,12954.735810129145,13008.134127632873,13290.39195661449,13289.028500202716,13059.900767791363,13036.900822746853,13268.464895303834,13346.204262519392,13128.40886454688,13024.830880740987,13254.271537574714,13312.274314436236,13118.372931286447,13067.790933584087,13226.443615727856,13385.297463571724,13221.70504590333,12989.716290201699,13164.12695218646,13407.336283604656,13263.502808034757,13046.668535073823,13129.571155258556,13364.286823783736,13334.894279825006,13160.483617840246,13190.323196688081,13381.564722247687,13369.405373264,13138.511853040678,13115.73542544072,13347.992402075817,13424.435368112967,13180.5107808722,13087.25930300466,13307.02165448924,13415.114690675104,13217.637028412466,13095.618855430945,13306.06052947766,13502.19708707298,13323.271372708246,13152.07936192505,13308.765090556752,13527.186337374013,13427.117577447603,13269.448372059867,13370.634719209042,13593.12398351717,13524.884107695116,13290.079032192116,13305.993474244295,13584.675024113063,13684.319100894822,13483.913360108538,13468.088325034181,13752.871901139248,13882.623777702305,13654.144245880158,13478.593644928176,13583.132753745647,13646.27643183189,13389.65605374051,13257.020802142717,13480.672357162519,13727.413264204653,13562.323279657756,13369.897111642018,13520.458462292965,13735.035209063913,13592.766355605883,13356.016678335272,13467.931862822994,13714.873935565227,13637.760417194417,13370.567663975677,13396.093356143638,13620.79544315284,13642.74485620795,13435.164205451514,13381.050632125216,13591.335843960744,13670.461019332532,13475.509104193343,13335.296611225202,13524.414721061556,13655.775923225394,13457.270080717813,13273.739906995286,13421.686103544964,13607.540858690842,13504.879296407616,13338.179986259936,13467.015441300326,13633.915917148104,13102.883172378919,12904.578495571435,13133.393303560413,13451.369220181612,13457.650060373553,13278.05379367516,13305.837012033107,13538.004581690382,13600.723576631974,13445.46835964541,13422.691932045453,13624.394074010144,13735.90692709767,13590.709995115996,13490.082441578203,13660.17921688309,13803.431547097152,13675.490161834976,13557.54000634432,13691.851638776261,13853.566509910406,13749.161511559667,13542.96666895946,13606.356216234712,13777.257654339988,13712.594057630786,13534.62946827763,13569.49818962791,13742.724209156539,13704.726243582518,13504.834592918705,13487.690804921485,13679.111144436734,13711.923505297125,13499.738395182896,13434.650115329041,13596.4096899521,13691.024624231413,13536.082331667225,13414.108862174615,13589.570056148776,13767.288776312922,13659.03927791587,13557.048267966304,13715.119804754235,13876.36528925482,13798.760032505994,13670.03633618788,13770.216854836566,13960.676069340238,13921.761682243548,13748.62506969274,13756.559938974375,13962.844188552403,13951.310688413465,13764.785380933927,13729.313162483355,13905.020225646524,13964.453514153185,13765.813561178871,13653.518397035408,13808.617151810784,13883.517847480518,13708.011950017448,13564.290233169822,13677.52417058041,13807.499564588019,13657.452304059543,13472.312804736233,13546.67705853904,13714.829232076316,13635.927574149082,13419.428577354978,13436.125330463092,13606.557381934808,13842.1671202382,13876.03001308799,13660.112161649724,13742.076008567336,13691.985749242993,13479.24184551738,13406.933952204461,13587.044309025325,13642.610745741218,13488.316653766235,13412.70070227393,13566.100724470703,13673.679670534095,13535.076503166736,13436.259440929824,13582.283387456346,13692.365728898732,13560.82571277925,13376.021489622772,13480.851171118162,13653.205472613034,13571.44279139552,13403.983521936361,13473.564502425732,13655.932385436581,13615.051044827826,13415.65113254203,13416.27698138678,13580.87522755566,13593.727480617463,13379.083678613148,13323.852518064085,13499.20195331597,13556.154198188091,13386.057422883205,13296.695148550887,13449.782246325285,13549.49337834041,13392.718242730885,13262.00524115625,13397.099184644127,13541.4467503365,13428.861013515118,13260.127694622004,13334.11196876907,13493.14463056858,13404.430556825466,13220.654513913933,13257.780761454196,13442.272060188301,13420.836737255662,13195.888781057452,13171.6594900679,13360.665841181975,13372.914597143485,13178.812048293597,13118.596448731,13287.463878090844,13352.172178288958,13168.485542355245,13071.68013711931,13218.352284235036,13318.465747650356,13163.076420197061,13049.082523474995,13201.47671717128,13336.749474614797,13188.691519342843,13030.843499999464,13132.633344248932,13312.721349325342,13220.56510693611,13013.140918390862,13082.073698291028,13286.189828656892,13257.959575409839,13061.711259092244,13047.517901363124,13250.628203228498,13293.565904327144,13133.080379138039,13068.640299873388,13244.012086869729,13303.73594805431,13142.959850187284,13055.564529367033,13215.558316178121,13319.426872661934,13116.093053352006,12973.555978960512,13093.49543970769,13221.90621160343,13097.250532776181,12927.444330149214,13021.589877794968,13205.500031173235,13105.900657880386,12925.812652803977,12985.00007212163,13183.416507651391,13164.953966731307,12937.614373876379,12918.056597477986,13103.240800290205,13114.461376006768,12920.716455068166,12851.940137379186,12994.007825137118,13045.997982740162,12899.41524260226,12854.331774035905,13109.365178270958,13300.58435208611,13231.115130319016,13088.488648949702,13143.853919965497,13149.441856079324,12922.526946369046,12717.717911925069,12822.592296909368,13049.194282197272,13003.037929897062,12818.01018929603,12861.059649116953,13059.073753246517,13051.272994431614,12829.96837257962,12794.026767495487,12995.661854226812,13022.260430128626,12811.639942126269,12751.312583841394,12933.434597663236,13006.882429943375,12821.988799809074,12698.249542504496,12866.938157908698,12993.784307692566,12831.756512136044,12685.017309786954,12805.6720263567,12962.13423754385,12847.11216057684,12661.056239730864,12721.785929415933,12880.55037028198,12809.740043847567,12607.412053038128,12636.983410952498,12828.761378379033,12807.706035102134,12618.92320143261,12556.67359312458,12330.205718303409,12284.80932531468,12293.325339952153,12346.500140011329,12531.393770145629,12651.333230892806,12493.194638871508,12417.533983890295,12608.59669549426,12773.284348640962,12642.213719155041,12478.509542764372,12606.92031466011,12796.731328574579,12703.010464073475,12544.178967974063,12638.659791786647,12809.62828512529,12739.62262149127,12530.231479433953,12546.235328463952,12743.020086648476,12708.307827509383,12516.731025782947,12493.596970271705,12666.085382233308,12673.975548026032,12474.642690973604,12402.379501149595,12566.486008940461,12624.555841035348,12428.195765995475,12274.527522865239,12402.670073827514,12517.870964750167,12357.094866883144,12201.862001641037,12303.294217979219,12476.386127041118,12357.698363983436,12179.420850207907,12249.80649349767,12426.407626439051,12376.630291537082,12196.519934716218,12218.871679171525,12407.296884929763,12416.639914112082,12207.137013332489,12192.384861991986,12405.50874537334,12474.262711317864,12279.958996767878,12199.157440561943,12396.500992357851,12489.886580692122,12319.856860620603,12218.111719860044,12361.453457051928,12528.063360221788,12428.21811773993,12272.024127486246,12341.292183553242,12492.635845260125,12369.58949203366,12166.434486679374,12229.533461276706,12665.995975255488,12911.999274730597,12505.443394833017,12400.904286015546,12556.383020446661,12522.05074096331,12303.987122057335,12249.515920819751,12428.911021818045,12458.392972754595,12238.049475914178,12117.193593644333,12255.349726122586,12333.267907293786,12148.798960304137,11982.323167601011,12082.146058338412,12162.165303488411,11996.874153241415,11826.464453514154,11960.50786501263,12135.611431075506,12018.689455829795,11837.729732719628,11924.678018650773,12076.602825713495,11960.977251646193,11754.313022412423,11758.336336414379,11932.657591421317,11845.932822934727,11573.442706280079,11461.527521792355,11612.267686398947,11673.958501095594,11486.069737204283,11383.408174921058,11538.819854118807,11624.695256316098,11467.473085817468,11385.39748017758,11555.494255482467,11733.838824491362,11610.188974164603,11478.045460944828,11604.779852006419,11817.791976665494,11760.839731793372,11580.975244161516,11659.988660811026,11905.4108149303,11904.87437306337,11712.93994342565,11723.132338897269,11951.65657420833,11987.486420570187,11791.282807741502,11732.56477505741,11912.608076644907,11985.742984502673,11819.133081332813,11761.219711449112,11952.282423053077,12082.347224038509,11934.803358889027,11804.269171270034,11959.79260919006,12156.97969877478,12055.033392314124,11853.130084649336,11985.18419089129,12189.903818357447,12091.86906717647,11892.938541524238,11945.755713672128,12180.270216497209,12110.510422052195,11887.3059019215,11908.942390554237,12092.852543932504,12088.113974107979,11876.599416327408,11842.021267655047,12052.015906812658,12109.21402087379,11921.906402338314,11823.782244179518,11993.789612506584,12117.573573300073,11949.399048018342,11811.354674262366,11963.905330169837,12121.239259390744,12015.604915094962,11821.882345900816,11888.289378677533,12134.605602575017,12175.531646672684,12047.009116054669,12123.407378602908,12287.960921282878,12167.1720942464,11804.537392203498,11594.207476879059,11736.901013481738,11868.619843556864,11749.596804332354,11710.548306768931,11905.813146330494,12043.634002641917,11873.604282570397,11756.99523174706,11941.642992692352,12085.230599073244,11922.822823860983,11740.834920505873,11919.134786025857,12123.742654769738,11996.024786952114,11849.3973433253,11952.617699219907,12131.252840906722,12065.046973830102,11884.936617009238,11935.451559478232,12179.867885097014,12195.469402726818,11988.179324648301,11976.243493109167,12200.386786506986,12267.03968847271,12033.75453159267,11611.172450920636,11626.3939888947,11907.489527164642,11857.958061451682,11834.82400594044,12060.95660459478,12232.081560144612,12087.689290963328,11916.11730052439,12101.592076014529,12315.967657085379,12207.181716821398,12010.687531314796,12128.391817616442,12358.503026783828,12272.225293186342,12072.221883800255,12193.681263170394,12464.472647246439,12406.671036085014,12152.330535928075,12162.277062210687,12426.407626439051,12475.000318884888,12250.789970253703,12198.777460906203,12416.774024578814,12540.736799327946,12362.615747763604,12211.920286645924,12355.373782560086,12518.250944405907,12386.286245141775,12212.076748857111,12371.601149034637,12496.61445577317,12304.747081368814,12100.049805647113,12196.497582971762,12418.092777501677,12312.48078495035,12084.045956617112,12141.825216034082,12380.54184681676,12367.108448399122,12133.398608374431,12109.795166229625,12338.475863751873,12414.248277455365,12164.623995378495,12072.937139622825,12337.134759084554,12405.419338395517,12174.861094339025,12018.220069196233,12198.866867884026,12387.82851550919,12245.157330650965,12047.322040477044,12192.0272340807,12453.252071529874,12331.546822970728,12124.681428036862,12247.414856840953,12523.302438652807,12501.353025597695,12256.579072067629,12295.448755675407,12549.990421532444,12561.926253071577,12332.127968326566,12305.931723824946,12549.118703498687,12636.64813478567,12411.700178587458,12281.903598535491,12567.134209529664,12691.678129634634,12473.122772350642,12508.326769867752,13177.158019203904,13177.873275026473,12852.565986223935,12641.36435286574,12768.501075327526,12957.865054352887,12736.00163888951,12452.067429073744,12557.38884894715,12807.281351957483,12705.26799026346,12465.970214124944,12576.611349178715,12902.544486826002,12868.748649209578,12605.48980301497,12609.155489105642,12904.131460682329,12998.299360072537,12741.299002325417,12639.576213309314,12903.84088800441,13075.167009254339,12824.514546932525,12614.586963008282,12867.87693117582,13059.274918946616,12829.051951056952,12566.44130545155,12748.51861578448,13066.069849261028,12950.578385660458,12636.961059208043,12724.222269561562,13036.29732564656,12993.918418159297,12644.962983723044,12643.64423080018,13039.91830824832,13058.805532313054,12703.926885596144,12666.64417584469,13045.282726917592,13147.31844035607,12788.058851725918,12643.107788933254,13007.86590669941,13221.481528458778,12870.492085277092,12580.813477136313,12878.114030136352,13198.66039736991,12890.966283198153,12477.548417752794,12704.999769329997,13096.803497887076,12867.251082331071,12410.470832642417,12567.000099062932,13065.980442283208,12960.346097987425,12416.751672834358,12462.796266412292,13001.853287440932,12986.005900622118,12376.518532814805,12274.594578098606,12810.879982814788,12941.525929156058,12372.83049497968,12154.766876073703,12690.381728456226,12990.520953002091,12448.424094727528,12113.617314531484,12603.992236136466,13087.505172193667,12664.967795010543,12136.505500853718,12526.185813687542,13120.988085387718,12827.286163244982,12236.641316013494,12529.695037567024,13262.966366167828,13089.203904772272,12355.887872682557,12337.112407340099,12960.614318920889,12872.079059133419,12050.42893295633,11860.886139975328,12526.901069510111,12789.176438948685,12129.151776927922,11843.72000023365,12487.204371357486,12896.040129189507,12286.329243937642,11792.3333397309,12359.240634350854,12965.777571890065,12496.010958672878,11873.470172103665,12335.659543950504,13076.39635519938,12753.19013037564,11962.184245846778,12218.424644282419,13042.980497238696,12911.731053797133,12104.58720977154,12178.482076940785,13049.261337430638,13138.713018740777,12320.90739261,12174.83874259457,13084.442983203291,13479.755935639852,12732.648877221212,12375.602111292137,13213.479603943779,13713.152851242168,12872.391983555794,12196.296417271664,12822.68170388719,13561.406858135088,12910.50170785209,11985.631225780395,12443.931394092011,13341.68921013942,12926.527908626547,11924.856832606416,12227.007714153257,13363.54921621671,13319.806852317673,12319.745101898325,12412.370730921119,13603.897524344628,13830.678323588172,12766.042383437441,12551.666802366592,13660.805065727838,14058.755524010126,12908.378292128837,12245.000868439778,13203.443670683346,13978.088078270923,12801.849878054843,11349.902909982553,12267.307909406176,13454.09613300516,12740.673153480668,11533.790711616364,12157.538492386162,13422.088434945159,12962.84949336642,11635.133520976726,11884.73545130914,13197.98984503625,13003.261447341616,11505.962789769506,11359.804732776252,12543.664877851592,12443.305545247264,10466.226692941987,9999.902248370916,12131.386951373453,12759.135694400751,11119.232907203783,10191.277884397256,11040.174787065362,10642.62666018327,7830.084303627527,5517.952801937199,5658.031184438609,6440.386943863266,5466.119106545342,4527.479949889177,5675.689062558301,7318.318762578817,7403.65772290918,7006.914258827479,7986.792384003686,9388.358520073714,9185.650549608536,8418.583383391308,9097.070586332153,10612.205935979599,10836.639802055335,9812.885202513362,9733.603564930389,10759.749801129079,10739.096789252377,9176.039299492753,8614.898754942269,10185.287616883234,11320.599773001644,10003.947914117327,8840.673725685327,10097.154688495957,11513.584734628766,10368.773087116848,8615.479900298107,9428.815177537821,11409.090329300205,11106.604171586534,9347.56658644278,9721.891250835806,11560.612804962731,11436.180643580037,9490.237771301005,9356.619042947179,11048.601394725012,11207.902277457986,9427.809349037332,8503.162384410189,9466.455515200558,10156.72208746935,8351.818722703305,7010.1105582845885,8313.641943173641,9621.688380442665,8446.1430843047,7200.23449662143,8611.993028163079,10402.926552644558,9547.011202217485,7877.648815828421,8663.469095643652,10669.672270974192,10376.976177331946,8585.327397027899,8892.105089676987,10824.592211793926,10806.084967384932,8816.332675973497,8525.894108521237,10367.0967062827,10977.701661312778,9334.446112447515,8774.669024308805,10455.386096881164,11369.304224169759,9441.578023621802,7882.208571697304,9213.29965749975,10535.964135642545,8854.732972947713,6672.621568753907,7282.779488894879,8770.623358562394,7587.724338498633,5569.495924651137,6478.9437030486715,8957.238073019753,8800.284123454587,6678.097746145457,7066.839285712157,9566.233702449048,9982.087908040037,7913.143386023448,7622.615411593368,9911.210526372257,10784.94021713021,8733.050076133022,7785.313759483548,9833.113531245415,11341.029267433796,9611.585391948867,8111.291600619746,9848.04449654156,11881.53915185203,10583.394537376707,8587.763737173527,9954.707021082286,12378.59724504915,11570.961662645539,9257.801980710266,10150.77652344424,12988.576351234478,12984.038947110052,10421.858480198203,10401.96542763298,12982.921359887287,13369.338318030635,10646.314698018396,9943.374686643445,12416.818728067725,13570.459314639487,11310.876764163586,10039.420132567899,12305.596447658116,14162.042935138099,12258.56837732415,10363.252206236388,12090.05857587559,14196.732842532736,12465.411420513561,9852.447790199256,11019.432368210837,13548.040514950815,12405.754614562347,9570.167609473183,10215.30600968671,13047.808474041043,12836.606840682845,9994.046091323626,9865.545912450065,12637.653963286159,13204.538906161655,10469.847675543748,9584.539781157944,12105.660093505394,13354.295594012214,10761.269719752041,9141.885833965043,11348.628860548599,13237.775950166697,11127.480700907792,8880.258665115674,10630.243793755031,13042.064075716029,11476.972577210972,8742.214291359698,9953.187102459324,12784.48257261307,11988.604007792952,9062.648899870981,9602.510583700012,12569.481142697472,12501.308322108785,9500.944256895096,9283.819411256243,12189.099155557056,12981.982586620163,10147.401410031487,9184.957645530421,11918.061902292002,13339.476387438344,10667.21357908411,8918.10016847851,11283.339414994647,13422.356655878622,11303.299522793237,8941.882424578956,10783.263836296062,13412.65599878502,11852.213663126668,8951.180750272364,10033.452216798332,12913.250972420094,12002.596199821974,8875.117763890954,9343.453865463003,12392.768251033815,12303.160107512487,8972.012576104711,8519.769730540482,11467.517789306377,12261.250586658787,9337.79887411581,8231.231061366923,10927.767864199623,12356.670183738494,9597.794365619942,7560.365803285337,9789.03589117955,11919.3135999815,9609.640790181254,6943.435304574407,8479.044852142913,11106.87239252,9367.906673897109,5718.9173363348655,6453.485066114076,9438.24761369796,8598.917257656725,5258.739621489003,5686.462603385759,9305.947638266998,10116.421892216433,7605.672789296244,7798.769509645643,11912.384559200354,13579.198846721512,10270.246597557854,7957.019860389217,8842.014830352644,9966.151114243403,7264.33929971925,5150.266605647398,6915.450920516363,8169.249673992357,5205.296600496364,2879.2623137548344,5332.478026447061,8929.186633728343,8145.176845213991,5715.877499088943,7410.586763690325,11175.626358464522,10926.247945576662,7950.157874841438,8256.86851225716,11395.992207049396,11532.404903460134,8069.024451854761,7401.6907693971125,10498.726129380004,11651.137370006725,8739.174454113776,7493.5564391084245,10387.012110592379,12289.614950372572,9736.30812600948,7710.301305091537,10144.92036639695,12683.810315586366,10671.907445419723,7969.089802395082,9641.782598707987,12522.296610152318,11047.372048779971,7745.281785164093,8496.814488984883,11507.773281070386,10741.778998587013,7213.131453172142,7383.138821499208,11031.547013705615,12092.2043433433,9317.145862239107,9292.894219505099,12804.174459478196,14050.105398905922,10853.917700519289,9340.190510772529,12344.332020799164,14466.607805086114,11882.58968384143,9596.676778397177,11998.70699628675,14768.088134299296,12769.350441616827,9948.068552979059,11768.595787119364,15075.022289159571,13871.55966419693,10579.482982097028,11626.952782506083,15216.352369350478,14790.842210154799,11165.791590904188,11221.849765998099,14822.335818092326,15358.934147230882,11826.062122113959,10999.002873778687,14420.205583596897,15555.450684481943,11933.328143754978,10080.457935387843,13080.687890134799,15190.379642293412,12232.528595033717,9456.598395895768,11487.65671106061,14006.58655245144,11494.69751056403,8080.513248504788,9880.566284724031,13423.18367042347,12273.186418197922,8814.365722461429,9894.513773264143,13793.909703959192,13770.462724025576,9939.01609647466,9390.817211963798,12704.262161762974,12838.797311639466,8745.58940477245,7606.835080007921,11104.368997141004,12650.260347158952,9290.703748548478,7460.967595692587,10540.032153133412,13058.425552657314,10355.76437184386,7292.837773899767,9431.855014783743,12870.335623065905,10332.317391910243,6337.814788557862,8254.007488966881,12487.338481824218,11189.037405137708,6957.963938470357,7939.294927036158,12385.459230596929,11961.111362112924,7201.3520838441955,6782.458041007286,11175.559303231157,11983.284292612589,7368.543132369892,5853.005451322252,10046.12565590449,11960.731382457183,7562.9362538976975,5152.367669626197,8778.759393544125,11338.123540654606,7215.657200295592,3213.8008730174156,5705.729807106234,9545.088952194328,7824.138739602416,4691.050015813114,7275.336357991262,12000.13750793189,11086.420546343392,7092.834364513679,8192.115508570136,12928.98660051663,12946.622126891867,8563.2215217616,8285.724614348963,12769.238682894551,13808.371282621776,9466.388459967191,8001.946866744383,12252.555758065673,14510.439575962972,10592.558752603383,7965.513523282233,11653.618413641265,15043.931012622239,11863.814218498972,8374.706909025539,11633.948878520594,16900.690424524597,16591.09641207414,13577.20954146499,18737.422673395,29498.178303024568,29809.158123631256,21082.16537024562,19953.08935083024,25762.017162086628,23838.493089496267,14432.81196746969,13336.905936825984,21679.53809255816,23658.96387803124,15593.381594822598,12244.822054484137,19812.072195061708,23727.471974786757,15350.015801193214,9139.941232197432,15265.816779830073,21098.280977997896,14341.616850092036,6677.60600776744,11438.527576747845,18990.55617935135,14384.621606424047,5830.899576055954,8967.609282447014,17563.263185413263,15075.089344392938,5789.90647672492,6752.149075525889,15484.841523747627,15609.541906063785,7035.166863818988,6042.235319880881,14468.53005510927,16900.668072780143,9222.866204126622,6367.363794727778,14203.639531569426,18828.237811116913,12114.332570354054,7333.607355786247,14322.528460327205,21128.388777779197,15950.316602029396,9866.462333972733,16575.293728744236,26607.31543389743,24193.394087957633,16390.19893290984,20269.768866273032,30977.193233632235,30741.695254051123,23054.505652726373,26035.848383408593,38379.24163094063,40680.42077784786,30549.961990113497,27098.472666558348,37588.235746411774,41903.955269331374,32735.448507720055,26619.206561947653,31974.32690552794,36321.51768464061,29159.90700243795,21087.50743717044,22682.237348823233,25195.288681422317,17353.022677066645,9696.052634245472,12245.023220184234,16259.642393546392,10791.981016633632,3041.848902922738,5788.498316824236,13797.933017961148,11694.544457738932,2669.357081575046,2636.9023486259402,9447.925919047108,8410.76027283195,277.96629404619864,-2705.0081139812605,2123.9521651210985,4178.099832308273,-104.80732975093481,-1097.2247835665685,4967.3399290251655,9608.702016914132,6763.548465198096,4113.302125132337,7930.421284487401,11556.589490960776,7988.714634026842,3843.270700367773,7338.144759910675,13750.234395293523,12998.321711816992,8110.956324452916,9657.406468082247,15039.438311986723,13992.303787744499,8128.345981639145,7770.852180820964,12618.073835143308,12250.499397575784,5776.42837481837,3934.0858380896857,8704.618657185873,9944.693439566308,4283.980045793062,1025.4756838650328,5687.669597586346,9238.7806461788,4967.31757728071,1184.553049153453,5235.60556597776,9886.444793515777,6544.344907324899,1672.1563544459766,4595.317494311034,10073.46183937333,7790.499364197179,2365.462763960691,3813.073493608653,9556.622452333266,8801.446414166263,3108.1888804660894,3255.8892078267586,9437.062971241829,10430.218032624487,4946.753972381827,3404.0365700765337,9052.992946266288,11457.861835701686,6345.079105505837,3472.321149387497,8546.614175631306,12549.632793621158,8274.191114210023,4177.719852652533,8172.222456004913,12957.395667719326,9275.996300696886,3659.405250478417,6257.549674218854,12151.034134749669,9877.124116077914,3792.375778243039,5181.424937418096,11605.897439229184,11157.54379720018,5250.51417952945,5052.9247585445355,11431.665591200066,12415.499975144861,6350.644689875208,4442.789190148019,10427.893451201136,13017.544212048557,7480.055985457419,4132.368163152714,9400.7190347575,13543.905442226584,8829.587260435494,4107.602430296234,8324.862518890204,13982.692537628716,10821.351208847906,5510.509671033582,8622.632458523805,15216.061796672559,13265.000374913261,7016.592564176627,8140.974717256394,14805.63906498421,14104.733062354693,7220.105197442198,6447.427743366688,13328.814605333162,14565.491922556392,7209.9798572039435,4142.493503390969,10862.85839830141,13913.580943772906,5765.09604037953,-628.4416471054134,5947.598033857112,12803.459203655626,7594.02753043503,1077.3764344902556,5985.216019775394,13989.800392365503,10211.193288706934,2208.374703928793,4816.4880056962975,13559.81988427876,11815.154470819769,3371.939465038713,3777.333054224617,12799.793517564955,13320.835032562618,4902.117538704579,2939.500265061887,11390.471326168934,14100.665044863827,6206.006551504916,2143.6217002417684,9688.095413219382,14546.828215936212,7634.886519299331,1829.2891179667854,7993.989645718294,14699.20005788804,9274.230512884917,1956.068212517287,6160.341937582724,14158.578414747528,10601.700616085604,2514.660658199866,4675.44849818331,13420.032074455272,12007.558287091051,3526.1888535247867,3391.7878141150254,12092.852543932504,12837.59031743888,4494.958161706706,2168.0745086758743,10409.229744580955,13463.550920909754,5967.6251968890665,1742.4525907579173,9111.33099929464,14546.716457213934,8297.88396333265,2319.2840599160268,7937.864415391018,14570.163437147552,9462.096925031772,2061.8143155353446,5686.417899896848,13388.002024650816,10033.385161564966,1951.709622348502,3531.3968099828735,11651.986736296027,10363.609834147672,2337.724249091655,2049.185579918096,10481.917617549612,11625.790491794407,3985.807774759266,1609.3032490376531,9310.015655757863,12386.822687008702,5384.289370094463,1126.751437992029,7687.56958098049,12672.142704980697,6803.066349395079,1056.2540359799905,6077.908704031552,12441.115074290643,7908.114243521005,838.3245275407467,3745.4818183758043,10739.007382274554,7398.427414706638,-393.3459989244937,807.5014719368783,9163.611729575603,8895.301389134096,1640.7521534862703,1280.553791588997,9382.658825237611,10939.860157949945,3961.9361116809982,1475.2598375391767,8866.355880064473,12309.172726770965,5855.084163556596,2055.779344532412,8278.035614256336,12848.766189666532,7241.093485485731,1589.8572313615362,6098.069977530239,12488.903103936089,8462.929244390636,1673.1845346909208,4498.355626863912,11856.907529462282,9731.21192827367,2721.68251534492,3612.623049333459,11212.059701926673,10906.556058711536,3859.6098255646025,2843.5218743707987,10231.108693016613,11838.512043775565,5152.322966137286,2342.1945979827165,9069.197960996386,12572.655090410124,6664.641995983362,2321.273365172549,7920.318295993602,13007.441223554759,8164.667566379019,2561.867542489474,6706.506813348153,13087.59457917149,9638.206319595138,3174.9311894096363,5601.883602366877,12761.370868846283,10915.139128582374,4013.4345309060254,4551.485723434177,11991.822658994515,11937.418512990298,4976.302978551743,3627.643421607426,10874.973043796188,12702.27285650645,6099.098157775183,3025.152149814624,9502.35241679578,13181.874237283975,7400.03674030742,2819.024362447782,8177.944502585471,13473.09511579217,8819.9313068308,3071.532019559386,6971.419688632452,13498.710214937952,10267.296167289755,3745.2583009312516,5895.809041954165,13148.950117701306,11591.860543711251,4682.221076753268,4957.929844609481,12453.90027211908,12746.551662272414,5833.872358068509,4240.327088871848,11427.64227719811,13586.753736347406,7129.580632398204,3817.365028544072,10247.514873446808,14216.558839864594,8524.910631765202,3707.9085359464334,8906.074929961555,14433.594278525625,9870.731517163696,3883.2803229427727,7489.823697784388,14132.426873734817,10993.88432429842,4180.022082331429,5922.608783556078,13206.461156184812,11768.61813886382,4573.010453344637,4410.088588009905,11791.059290296947,12120.322837868076,4904.218602683378,2693.452262097867,9592.049967294928,11890.92688452326,5376.153335112731,1727.6780876729595,8042.224710252847,12381.950006717445,6920.792987441181,1993.0827013352755,7197.32876984224,13242.067485102116,9142.28816536524,3195.3830355862424,6759.793372129604,13732.040075306903,10936.216823603729,4069.246836810927,5743.593662213524,13434.918336262506,12592.63754995317,5643.010812164643,5457.647795396781,13186.054013497116,14245.34788672303,7465.952034706121,5378.589675258359,12585.417936494105,15474.291500364721,9217.099454057152,5394.660579521726,11614.659323055665,16222.650256472858,10849.179130694763,5596.049797064042,10375.165686031067,16403.565276094112,12271.465333874863,5961.947853797419,9061.821885326133,16077.855655891379,13512.05420637777,6595.306884682999,7828.519681515656,15341.410379577921,14573.60560579367,7429.8539674108,6736.882834062914,14178.583226035027,15317.292847310646,8448.869997128248,5906.739044992811,12790.137563960263,15806.37136773722,9523.541870539411,5307.712293590581,11136.264936478727,15905.322540440864,10647.96872710809,5112.872137173669,9540.730362025542,15681.715688909972,11763.410182405732,5309.500433147005,8098.12642313557,15202.650749999375,12915.709664310178,5932.957641238885,6812.901116955414,14253.05923856011,13195.307635701614,5962.4619439198905,5112.91684066258,12438.768141122835,13587.133716003147,5723.857071859488,1108.2888970719455,6246.060877568827,8369.99069094547,1583.4869841917734,-3069.207438136034,2340.0935340039177,6899.804699397648,1392.9160109658255,-4487.470327314178,-397.5034233931808,5692.117594732952,1977.6376459166584,-4231.40874283418,-1262.4488785801982,6193.735443798953,4397.34809367038,-2042.9270914706103,-732.1760931224934,7216.081883440243,7315.010704399432,773.1691924535266,181.9879033551101,7996.291875397191,10067.024536970202,3884.91200028801,1509.6591722558944,8563.377983972787,12451.84391162919,6841.153721946922,2673.9615409328394,8504.056454188401,14008.575857707961,9452.955061549552,3956.191713355984,8163.460572178433,14809.841192941809,11508.443833404046,4978.135821597079,7308.863974674222,14644.952374095008,12977.266368540093,6008.439482264457,6402.947771900627,13993.264912756076,14169.910749186367,7209.063435681276,5690.5082691321695,13263.10047663456,15862.04956317539,9120.025827887754,5687.64724584189,12075.462886746274,15899.95812177159,10063.068278201614,5246.200292849576,10500.491917191974,15951.054209596421,11253.119856491072,5248.279005083919,8939.043753033133,15597.51666754683,12424.194803737975,5705.260420472672,7655.427772453759,15007.430613926723,13510.82486043273,6367.609663916786,6431.781522247973,13965.57110137595,14354.022068264732,7332.489768563482,5414.620687320315,12589.620064451703,14950.366610332325,8426.76412186195,4858.062250383169,11177.995643376786,15307.79335591714,9718.963172312162,4710.943068378338,9657.406468082247,15237.4971196052,10829.37548510736,4718.833234171061,8060.329623261646,14741.53426188639,11793.00389206456,5009.316505112231,6603.8005475760165,13866.821094372404,12625.338152091284,5562.142200725341,5159.676690063083,12582.936892859567,13364.398582506012,6462.537522618476,4291.490231930045,11251.46582740138,13859.847350102347,7512.48836666207,3731.891957746978,9890.155183095358,14271.946462624845,8848.809760667058,3702.8123382106232,8472.406384039687,14370.22708299483,10169.68609925343,3774.404975700972,6857.425791910386,13785.72896548855,11074.127086892973,4156.999785542463,5524.993601440621,13057.553834623557,12130.716399039793,5018.927755228014,4479.60251326591,11988.827525237504,12889.98280644212,5935.863368018076,3578.6483977613925,10637.731628147558,13566.97244250446,7238.970069762478,3105.618429853729,9092.600237441093,13530.382636831122,7569.507666767558,2057.3439666442832,6562.516875567064,11647.002297282494,7680.372319265881,2706.3715703930343,6114.632620171621,12206.309998787643,9696.723186579131,4307.874060615785,5837.58274764809,12105.68244524985,11076.04933691613,5476.803240394979,5432.479731140105,11848.525625291542,12189.970873590813,6413.766016216996,4804.932153812904,10978.238103179707,13035.29149714607,7373.7510888279785,4335.456113273634,9688.92242776423,13230.019894840705,8362.636967019675,4110.485805330969,8220.993962406394,13102.570247956544,9346.069019564275,4276.022824766973,6887.175963780399,12513.311208881285,10239.065914042701,4746.549397295642,5568.400689172828,11519.776167842885,10745.22116723313,5251.609415007761,4678.242466240224,10695.823811986902,11528.985086558472,6035.105113399639,3748.3428416660836,9142.623441532069,11510.969580527495,6513.8124243989505,3077.7905080068717,7663.206179524205,11464.388545082635,7154.3910687435955,2573.6022083285106,5940.601937842601,10681.026957157488,6754.093677293501,486.30690411411575,1495.1081866154893,6199.301028168325,3227.97187900208,-2884.313808001734,-2494.946419590285,3487.4756321281952,2312.243260412605,-3678.694805943347,-4501.2166501541915,1590.4160249729186,2758.182914040436,-2842.0690109812035,-5354.226273802075,-102.39334134976166,2364.3004732490153,-2665.423174550912,-6355.047983532904,-1829.847911578168,2284.5494490324795,-1707.33800021863,-5961.769039841776,-2533.145550864405,2520.44976001379,-710.6513632120327,-5986.892400609541,-3781.4457752043936,2622.2396042632586,1341.0823155739683,-3894.38913993706,-3110.826386311816,3734.238890914785,4033.3722869601593,-1213.006819845059,-1744.240730314342,5083.747814148404,7060.5360937757605,2150.416630556182,126.64498408376981,5970.9109033239965,8617.938592188191,3465.5262190730837,-123.29222241547376,4556.358403725434,9134.733275739345,5274.587008307816,391.40139715688196,3325.51489180504,8697.264933260076,5929.560176081679,645.2054554468937,2282.1354606313066,8341.089885364758,6869.875713571992,1049.660271365675,843.4877805099226,6866.746469348249,7009.127081528554,2100.393426465205,919.3943046801454,6491.013645054537,7641.010897280085,2022.6317075051913,-954.3300812637904,4246.295004641414,7636.562900133479,3164.5376282379184,-695.4298252379687,3553.636795715904,8194.90947662705,4504.524708333577,-428.527644697147,2355.1809615112497,7958.606834245544,5443.901472556767,-55.745250671535814,1188.755177111051,7273.838791112757,6155.960995669484,428.54999644160233,46.80455288941299,6159.246702104414,6744.415371944353,1331.2922515025439,-482.2612383677052,5105.9877998814345,7308.282829318385,2340.0041270260963,-887.632475809154,3721.4760448308048,7349.678260049613,3142.074125060335,-1154.1770284386907,2121.0017348529977,6702.818775513027,3580.145964639898,-1372.866496189415,566.1473353084726,6042.190616391971,4583.404014516355,-441.4693047367698,75.52654451448257,5867.511733473746,5829.849044066554,701.0848165851613,-436.3507552565045,4996.240734605877,6440.185778163169,1789.1230331805984,-608.4368358179136,4099.935781948064,6864.958329791824,2825.215795661902,-559.1512392939615,3033.2211295629895,7021.845224123625,4116.81134901182,-97.1406814027645,1839.526216927316,6292.373692080223,4715.368713780488,373.9893882261978,718.9438604049517,5161.844809275247,5021.185281418,909.1795574640701,-203.78085419903448,3754.4448679023826,4934.393457698043,1432.4338951628083,-707.6562294550216,2350.9341300647416,4421.1527015152815,1753.1143728630989,-1049.1685329876582,742.3461368496581,3479.473707613195,2097.5547549193807,-632.129684940539,-199.86929891935574,2523.981335637729,2542.3768213244466,109.59060306437053,-537.0900675165734,1663.8415055086025,2253.63698645079,117.52547234600453,-1493.767081948171,-439.54705471361336,1153.2829586604785,1000.598192286276,-855.8706469381627,-2911.828805426217,-2409.6521627488332,386.1934406987954,1760.0657653886994,261.6048171049139,775.0690907322277,4564.874418362906,6878.83876309857,5415.470053609616,5522.087874661431,11074.529418293168,16391.227113154782,14145.055609352066,7319.771625968412,10970.124419942429,22347.251754671546,23257.45949238056,14892.319129981892,16146.028476480065,28224.911180128,32750.088900338284,25757.2785922621,25431.12193717026,37405.75610467864,44187.34242765218,37598.33873490557,34292.02399158764,44316.177882692566,52568.3078251252,46809.69379063771,40727.58295864856,48461.085374484705,58293.975388285566,54514.13893868196,46727.685240231185,51677.92608474804,61739.29563037105,59276.87099896324,49772.886904822226,51450.02769828173,61316.780604932384,61355.1809019066,52415.26543083971,52621.21440425091,62306.73936685793,64828.28436235004,56374.09465004142,53000.29999021292,60437.23946061605,64212.51615435078,56828.41620784,52419.37815181949,59710.539544885105,66222.42971926091,61502.881229267274,56518.82219538953,61994.79842123967,68709.6647870141,65315.28417054226,59583.76045033461,63498.22145679253,70954.18226172712,69554.15839602452,63741.25197425509,66115.29780808662,73570.5657089431,73759.8626327351,68055.45157855173,69176.88330136338,76916.51009518029,78741.082995067,73255.0931877009,72984.10063792476,81036.78596458268,85799.2051004416,81987.62917371145,81109.00445091778,89262.3173311135,96165.54184741281,93446.02745128005,90210.27716520753,95962.2527315918,103360.34487013161,102194.58963806507,99457.23854985698,106319.8946499699,116420.75972804544,117518.45389824557,113718.50087863219,116817.54789561605,124098.96392809915,124247.84889791596,118331.47625106291,119073.353001279,126360.35696987594,128613.34575573752,123511.18010415795,123349.867564424,131155.4096526396,136423.4028963331,134072.8040424352,133074.32926587216,139752.44936376208,145599.35278884802,142838.9570521065,139647.64203401114,143828.22290995394,150228.73434170894,148405.21197381165,143956.09723998277,147171.70860430106,153373.93771099302,152752.69332560222,146663.7205080653,146806.34698943462,153028.33503822508,153189.49111574783,146894.0105311883,146480.43620353178,151770.2223980692,151208.14308025158,142956.46017270806,139195.04156053564,143949.54817885737,146548.22904446474,140907.09577883434,137462.28962687132,143084.49096494805,148629.55643290957,145346.4204485918,140950.7263840111,145087.14021291022,150903.04176843664,147741.0745908111,141490.07397771763,143620.97753536433,149547.11789454435,147339.2349289936,139755.91388415266,139782.93714319912,146004.5675640783,145823.00434386783,138703.50434821896,137443.06712663974,143568.67445333893,145153.99428057604,138593.7572829434,135809.86986277936,141393.76031085974,144743.59390063214,139333.37650696954,135278.0324552098,140116.7827983836,145018.83328185478,141009.26560273953,135959.51479190766,139771.247180849,145756.28438666873,143028.45514159862,136621.9534423296,138013.84127305046,143722.18623425797,142034.1824929932,134921.29861370308,135048.43533616487,141321.18419661335,141436.67566021392,134330.98904263842,132660.66553123778,138794.8559278078,140971.20058193215,135094.97166812082,132879.869089111,139713.80319759884,145155.87182711027,141874.14400269318,139782.42305307664,146858.5159609933,154501.96319841902,153069.7304689563,149730.1339781444,154603.30600777938,161854.36837129216,160622.38492040455,155752.43154197116,158379.96850967032,165434.02259755405,165827.7932796232,160855.20069065102,162595.0381273077,170612.65356691522,173407.96272849594,169302.4166586896,169615.07286013043,176761.14907993664,180345.40776555633,175966.522212806,174124.2467313107,180180.60835368733,185062.81048808224,181513.84520695749,178157.50725954858,183132.89381657768,-187500.04470348894,185890.60734398453,180763.02775895927,183666.31819800357,-187500.04470348894,-187772.31130269903,180837.19084706198,181854.88812385657,-187500.04470348894,-188416.75679883442,179449.77336523216,178500.8300543821,184085.5475170073,184556.02938604707,177546.52232486277,174847.48212665107,180011.24918594948,182265.98140787857,176213.21841635925,172493.23993840694,177497.3484870611,181746.1468870815,177160.2171254417,172348.177116892,176366.50667983375,181805.87074826608,178373.62627668696,172044.7074824223,174179.6120023265,180125.24308267154,177894.4272273096,170670.85750947686,171646.8240793734,179006.761790128,179003.3419732263,171656.278867278,171207.63465257105,179249.56879014598,181941.7917062988,175788.66938217514,174338.57760889264,182615.96502255977,-187500.04470348894,182681.61209602503,178857.0051022774,184391.52054685602,-187500.04470348894,184930.37640218454,179623.82639930563,183996.38640837508,-187500.04470348894,-188640.0730776874,179275.2062410362,181180.62540061778,-187845.2897483456,184754.17760064336,177070.20665052018,176725.94508241952,181916.24366238638,180335.2153700847,172175.0852078301,169871.55912775508,174472.21868899092,174342.22094323885,166680.78055152664,163172.20487263263,167658.11057783492,169543.63668485126,163524.6918826928,159864.97370779203,164954.84589992117,169658.301133907,166245.05564511486,162917.7973172423,167868.48519664828,174087.63457389292,172516.44104915156,168534.58953316088,171810.2600348306,177903.3008698584,177370.43528204385,173938.5037348871,178430.1091349255,-188372.07566166826,-187500.04470348894,-187794.1266052874,-187500.04470348894,-187500.04470348894,-187500.04470348894,-187500.04470348894,-187500.04470348894,-187500.04470348894,-187500.04470348894,-187500.04470348894,-187500.04470348894,-187500.04470348894,-187500.04470348894,-187500.04470348894,-187500.04470348894,-187500.04470348894,-187500.04470348894,-187500.04470348894,-187500.04470348894,-187500.04470348894,-187500.04470348894,-187500.04470348894,-187500.04470348894,-187500.04470348894,-187500.04470348894,-187500.04470348894,-187500.04470348894,-187500.04470348894,-187500.04470348894,-187500.04470348894,-187500.04470348894,-187500.04470348894,-187500.04470348894,-187500.04470348894,-187500.04470348894,-187500.04470348894,-187500.04470348894,-187500.04470348894,-187500.04470348894,-187500.04470348894,-187500.04470348894,-187500.04470348894,-187500.04470348894,-187500.04470348894,-187500.04470348894,-187500.04470348894,-187500.04470348894,-187500.04470348894,-187500.04470348894,-187500.04470348894,-187500.04470348894,-187500.04470348894,-187500.04470348894,-187500.04470348894,-187500.04470348894,-187500.04470348894,-187500.04470348894,-187500.04470348894,-187500.04470348894,-187500.04470348894,-187500.04470348894,-187500.04470348894,-187500.04470348894,-187500.04470348894,-187500.04470348894,-187500.04470348894,-187500.04470348894,-187500.04470348894,-187500.04470348894,-187500.04470348894,-187500.04470348894,-187500.04470348894,-187500.04470348894,-187500.04470348894,-187500.04470348894,-187500.04470348894,-187500.04470348894,-187500.04470348894,-187500.04470348894,-187500.04470348894,-187500.04470348894,-187500.04470348894,-187500.04470348894,-187500.04470348894,-187500.04470348894,-187500.04470348894,-187500.04470348894,-187500.04470348894,-187500.04470348894,-187500.04470348894,-187500.04470348894,-187500.04470348894,-187500.04470348894,-187500.04470348894,-187500.04470348894,-187500.04470348894,-187500.04470348894,-187500.04470348894,-187500.04470348894,-187500.04470348894,-187500.04470348894,-187500.04470348894,-187500.04470348894,-187500.04470348894,-187500.04470348894,-187500.04470348894,-187500.04470348894,-187500.04470348894,-187500.04470348894,-187500.04470348894,-187500.04470348894,-187500.04470348894,-187500.04470348894,-187500.04470348894,-187500.04470348894,-187500.04470348894,-187500.04470348894,-187500.04470348894,-187500.04470348894,-187500.04470348894,-187500.04470348894,-187500.04470348894,-187500.04470348894,-187500.04470348894,-187500.04470348894,-187500.04470348894,-187500.04470348894,-187500.04470348894,-187500.04470348894,-187500.04470348894,-187500.04470348894,-187500.04470348894,-187500.04470348894,-187500.04470348894,-187500.04470348894,-187500.04470348894,-187500.04470348894,-187500.04470348894,-187500.04470348894,-187500.04470348894,-187500.04470348894,-187500.04470348894,-187500.04470348894,-187500.04470348894,-187500.04470348894,-187500.04470348894,-187500.04470348894,-187500.04470348894,-187500.04470348894,-187500.04470348894,-187500.04470348894,-187500.04470348894,-187500.04470348894,-187500.04470348894,-187500.04470348894,-187500.04470348894,-187500.04470348894,-187500.04470348894,-187500.04470348894,-187500.04470348894,-187500.04470348894,-187500.04470348894,-187500.04470348894,-187500.04470348894,-187500.04470348894,-187500.04470348894,-187500.04470348894,-187500.04470348894,-187500.04470348894,-187500.04470348894,-187500.04470348894,-187500.04470348894,-187500.04470348894,-187500.04470348894,-187500.04470348894,-187500.04470348894,-187500.04470348894,-187500.04470348894,-187500.04470348894,-187500.04470348894,-187500.04470348894,-187500.04470348894,-187500.04470348894,-187500.04470348894,-187500.04470348894,-187500.04470348894,-187500.04470348894,-187500.04470348894,-187500.04470348894,-187500.04470348894,-187500.04470348894,-187500.04470348894,-187500.04470348894,-187500.04470348894,-187500.04470348894,-187500.04470348894,-187500.04470348894,-187500.04470348894,-187500.04470348894,-187500.04470348894,-187500.04470348894,-187500.04470348894,-187500.04470348894,-187500.04470348894,-187500.04470348894,-187500.04470348894,-187500.04470348894,-187500.04470348894,-187500.04470348894,-187500.04470348894,-187500.04470348894,-187500.04470348894,-187500.04470348894,-187500.04470348894,-187500.04470348894,-187500.04470348894,-187500.04470348894,-187500.04470348894,-187500.04470348894,-187500.04470348894,-187500.04470348894,-187500.04470348894,-187500.04470348894,-187500.04470348894,-187500.04470348894,-187500.04470348894,-187500.04470348894,-187500.04470348894,-187500.04470348894,-187500.04470348894,-187500.04470348894,-187500.04470348894,-187500.04470348894,-187500.04470348894,-187500.04470348894,-187500.04470348894,-187500.04470348894,-187500.04470348894,-187500.04470348894,-187500.04470348894,-187500.04470348894,-187500.04470348894,-187500.04470348894,-187500.04470348894,-187500.04470348894,-187500.04470348894,-187500.04470348894,-187500.04470348894,-187500.04470348894,-187500.04470348894,-187500.04470348894,-187500.04470348894,-187500.04470348894,-187500.04470348894,-187500.04470348894,-187500.04470348894,-187500.04470348894,-187500.04470348894,-187500.04470348894,-187500.04470348894,-187500.04470348894,-187500.04470348894,-187500.04470348894,-187500.04470348894,-187500.04470348894,-187500.04470348894,-187500.04470348894,-187500.04470348894,-187500.04470348894,-187500.04470348894,-187500.04470348894,-187500.04470348894,-187500.04470348894,-187500.04470348894,-187500.04470348894,-187500.04470348894,-187500.04470348894,-187500.04470348894,-187500.04470348894,-187500.04470348894,-187500.04470348894,-187500.04470348894,-187500.04470348894,-187500.04470348894,-187500.04470348894,-187500.04470348894,-187500.04470348894,-187500.04470348894,-187500.04470348894,-187500.04470348894,-187500.04470348894,-187500.04470348894,-187500.04470348894,-187500.04470348894,-187500.04470348894,-187500.04470348894,-187500.04470348894,-187500.04470348894,-187500.04470348894,-187500.04470348894,-187500.04470348894,-187500.04470348894,-187500.04470348894,-187500.04470348894,-187500.04470348894,-187500.04470348894,-187500.04470348894,-187500.04470348894,-187500.04470348894,-187500.04470348894,-187500.04470348894,-187500.04470348894,-187500.04470348894,-187500.04470348894,-187500.04470348894,-187500.04470348894,-187500.04470348894,-187500.04470348894,-187500.04470348894,-187500.04470348894,-187500.04470348894,-187500.04470348894,-187500.04470348894,-187500.04470348894,-187500.04470348894,-187500.04470348894,-187500.04470348894,-187500.04470348894,-187500.04470348894,-187500.04470348894,-187500.04470348894,-187500.04470348894,-187500.04470348894,-187500.04470348894,-187500.04470348894,-187500.04470348894,-187500.04470348894,-187500.04470348894,-187500.04470348894,-187500.04470348894,-187500.04470348894,-187500.04470348894,-187500.04470348894,-187500.04470348894,-187500.04470348894,-187500.04470348894,-187500.04470348894,-187500.04470348894,-187500.04470348894,-187500.04470348894,-187500.04470348894,-187500.04470348894,-187500.04470348894,-187500.04470348894,-187500.04470348894,-187500.04470348894,-187500.04470348894,-187500.04470348894,-187500.04470348894,-187500.04470348894,-187500.04470348894,-187500.04470348894,-187500.04470348894,-187500.04470348894,-187500.04470348894,-187500.04470348894,-187500.04470348894,-187500.04470348894,-187500.04470348894,-187500.04470348894,-187500.04470348894,-187500.04470348894,-187500.04470348894,-187500.04470348894,-187500.04470348894,-187500.04470348894,-187500.04470348894,-187500.04470348894,-187500.04470348894,-187500.04470348894,-187500.04470348894,-187500.04470348894,-187500.04470348894,-187500.04470348894,-187500.04470348894,-187500.04470348894,-187500.04470348894,-187500.04470348894,-187500.04470348894,-187500.04470348894,-187500.04470348894,-187500.04470348894,-187500.04470348894,-187500.04470348894,-187500.04470348894,-187500.04470348894,-187500.04470348894,-187500.04470348894,-187500.04470348894,-187500.04470348894,-187500.04470348894,-187500.04470348894,-187500.04470348894,-187500.04470348894,-187500.04470348894,-187500.04470348894,-187500.04470348894,-187500.04470348894,-187500.04470348894,-187500.04470348894,-187500.04470348894,-187500.04470348894,-187500.04470348894,-187500.04470348894,-187500.04470348894,-187500.04470348894,-187500.04470348894,-187500.04470348894,-187500.04470348894,-187500.04470348894,-187500.04470348894,-187500.04470348894,-187500.04470348894,-187500.04470348894,-187500.04470348894,-187500.04470348894,-187500.04470348894,-187500.04470348894,-187500.04470348894,-187500.04470348894,-187500.04470348894,-187500.04470348894,-187500.04470348894,-187500.04470348894,-187500.04470348894,-187500.04470348894,-187500.04470348894,-187500.04470348894,-187500.04470348894,-187500.04470348894,-187500.04470348894,-187500.04470348894,-187500.04470348894,-187500.04470348894,-187500.04470348894,-187500.04470348894,-187500.04470348894,-187500.04470348894,-187500.04470348894,-187500.04470348894,-187500.04470348894,-187500.04470348894,-187500.04470348894,-187500.04470348894,-187500.04470348894,-187500.04470348894,-187500.04470348894,-187500.04470348894,-187500.04470348894,-187500.04470348894,-187500.04470348894,-187500.04470348894,-187500.04470348894,-187500.04470348894,-187500.04470348894,-187500.04470348894,-187500.04470348894,-187500.04470348894,-187500.04470348894,-187500.04470348894,-187500.04470348894,-187500.04470348894,-187500.04470348894,-187500.04470348894,-187500.04470348894,-187500.04470348894,-187500.04470348894,-187500.04470348894,-187500.04470348894,-187500.04470348894,-187500.04470348894,-187500.04470348894,-187500.04470348894,-187500.04470348894,-187500.04470348894,-187500.04470348894,-187500.04470348894,-187500.04470348894,-187500.04470348894,-187500.04470348894,-187500.04470348894,-187500.04470348894,-187500.04470348894,-187500.04470348894,-187500.04470348894,-187500.04470348894,-187500.04470348894,-187500.04470348894,-187500.04470348894,-187500.04470348894,-187500.04470348894,-187500.04470348894,-187500.04470348894,-187500.04470348894,-187500.04470348894,-187500.04470348894,-187500.04470348894,-187500.04470348894,-187500.04470348894,-187500.04470348894,-187500.04470348894,-187500.04470348894,