2551 
2250 
2602 
2868 
2770 
2383 
2552 
2936 
2866 
2471 
2437 
2880 
2895 
2494 
2460 
2971 
2993 
2734 
2557 
3071 
3191 
2993 
2690 
3175 
3413 
3244 
2882 
3175 
3505 
3410 
2963 
3139 
3573 
3476 
3079 
3099 
3540 
3494 
3177 
3101 
3604 
3593 
3315 
3065 
3542 
3674 
3374 
3064 
3502 
3645 
3312 
2893 
3237 
3529 
3393 
2990 
3104 
3493 
3349 
2898 
2940 
3270 
3269 
2861 
2681 
3155 
3134 
2768 
2531 
2929 
3029 
2744 
2379 
2766 
3021 
2794 
2347 
2697 
3051 
2922 
2464 
2660 
3136 
3057 
2733 
2727 
3201 
3167 
2773 
2647 
3078 
3106 
2733 
2389 
2765 
2845 
2481 
2014 
2366 
2574 
2278 
1818 
2170 
2483 
2351 
1966 
2220 
2845 
2862 
2481 
2448 
2946 
2942 
2594 
2473 
2905 
3016 
2633 
2340 
2735 
2844 
2529 
2062 
2304 
2434 
2201 
1711 
1962 
2219 
2090 
1684 
1877 
2254 
2198 
1889 
1931 
2447 
2503 
2216 
2141 
2668 
2812 
2565 
2369 
2888 
3142 
3017 
2687 
3212 
3650 
3714 
3649 
4273 
4827 
4811 
4444 
4605 
4995 
4847 
4416 
4347 
4831 
4769 
4327 
4129 
4648 
4608 
4293 
4028 
4494 
4630 
4376 
4037 
4344 
4591 
4395 
3979 
4260 
4635 
4463 
4012 
4204 
4584 
4449 
4006 
4091 
4618 
4605 
4316 
4244 
4497 
4360 
3838 
3240 
3409 
3426 
3117 
2622 
2896 
2876 
2478 
1789 
1885 
2150 
1984 
1566 
1747 
2255 
2188 
1780 
1814 
2256 
2261 
1990 
1869 
2330 
2458 
2348 
2354 
3079 
3429 
3254 
2877 
3203 
3339 
3080 
2647 
2908 
3152 
3038 
2554 
2772 
3206 
3070 
2686 
2713 
3176 
3215 
2934 
2834 
3375 
3530 
3342 
3178 
3775 
3978 
3855 
3593 
4034 
4363 
4168 
3703 
4037 
4298 
4088 
3508 
3520 
3733 
3502 
2852 
2517 
2792 
2641 
2184 
1922 
2237 
2201 
1824 
1530 
1866 
1922 
1692 
1344 
1726 
1952 
1787 
1384 
1667 
1950 
1868 
1475 
1630 
1982 
1939 
1480 
1436 
1898 
1886 
1474 
1257 
1657 
1704 
1381 
1053 
1447 
1578 
1326 
937 
1329 
1511 
1398 
1035 
1292 
1623 
1503 
1249 
1421 
1804 
1672 
1284 
1238 
1711 
1721 
1357 
1178 
1682 
1710 
1432 
1147 
1626 
1788 
1505 
1147 
1555 
1786 
1598 
1149 
1382 
1707 
1513 
1038 
1105 
1380 
1160 
597 
364 
606 
361 
-138 
-401 
18 
58 
-210 
-499 
-24 
137 
-64 
-358 
4 
306 
226 
-128 
160 
569 
521 
189 
426 
908 
893 
622 
644 
1207 
1246 
944 
764 
1297 
1427 
1127 
847 
1327 
1533 
1376 
1008 
1404 
1649 
1498 
1090 
1343 
1724 
1602 
1172 
1350 
1814 
1711 
1264 
1278 
1939 
2079 
1925 
1954 
2497 
2583 
2201 
1683 
1914 
2015 
1811 
1401 
1686 
1886 
1642 
1192 
1391 
1694 
1574 
1127 
1229 
1650 
1602 
1156 
1062 
1558 
1559 
1195 
1038 
1528 
1531 
1222 
966 
1362 
1489 
1216 
773 
1047 
1261 
1070 
594 
815 
1207 
1064 
608 
720 
1146 
1082 
689 
646 
1202 
1254 
995 
955 
1576 
1741 
1438 
1213 
1730 
1936 
1777 
1440 
1895 
2283 
2146 
1762 
2039 
2389 
2282 
1848 
1961 
2405 
2319 
1877 
1831 
2171 
2111 
1729 
1525 
1997 
2047 
1712 
1367 
1810 
1944 
1702 
1349 
1683 
1984 
1874 
1443 
1711 
2150 
2067 
1683 
1807 
2280 
2264 
1922 
1932 
2464 
2532 
2259 
2122 
2735 
2857 
2563 
2333 
2826 
3114 
2878 
2483 
2848 
3143 
2987 
2546 
2771 
3110 
3018 
2555 
2661 
3240 
3273 
2800 
2749 
3208 
3173 
2824 
2530 
2965 
3013 
2662 
2285 
2649 
2829 
2579 
2228 
2594 
2961 
2828 
2431 
2701 
3099 
3007 
2651 
2747 
3228 
3213 
2814 
2734 
3259 
3190 
2800 
2633 
3125 
3225 
2891 
2563 
3033 
3149 
2935 
2575 
2897 
3184 
3057 
2527 
2771 
3239 
3104 
2655 
2757 
3270 
3177 
2784 
2790 
3278 
3305 
2955 
2771 
3310 
3412 
3141 
2856 
3277 
3450 
3313 
2887 
3282 
3559 
3367 
2931 
3108 
3489 
3424 
3015 
3049 
3467 
3402 
3019 
2975 
3527 
3510 
3189 
3017 
3509 
3597 
3332 
3030 
3428 
3618 
3415 
3003 
3333 
3588 
3527 
3253 
3625 
4194 
4125 
3636 
3639 
3922 
3656 
3155 
3144 
3650 
3674 
3312 
3054 
3525 
3612 
3372 
3083 
3562 
3724 
3434 
3031 
3385 
3643 
3440 
3066 
3281 
3621 
3508 
3099 
3174 
3598 
3548 
3179 
3076 
3558 
3593 
3202 
3008 
3515 
3585 
3265 
2993 
3501 
3599 
3408 
3051 
3364 
3595 
3455 
3087 
3301 
3669 
3538 
3152 
3220 
3681 
3672 
3334 
3277 
3757 
3748 
3442 
3219 
3707 
3854 
3581 
3281 
3667 
3838 
3672 
3233 
3562 
3832 
3666 
3132 
3305 
3661 
3462 
2974 
3055 
3452 
3375 
2976 
2841 
3296 
3277 
2908 
2651 
3106 
3211 
2905 
2531 
2913 
3083 
2880 
2492 
2810 
3058 
2874 
2435 
2573 
2944 
2850 
2431 
2458 
2932 
2906 
2545 
2465 
2939 
2971 
2642 
2443 
2867 
2907 
2643 
2385 
2786 
2995 
2768 
2353 
2694 
2992 
2818 
2411 
2638 
3019 
2953 
2575 
2632 
3107 
3050 
2706 
2655 
3163 
3179 
2867 
2629 
3066 
3246 
2898 
2524 
2979 
3139 
2887 
2516 
2866 
3123 
2887 
2472 
2626 
2991 
2834 
2345 
2336 
2678 
2610 
2243 
2108 
2593 
2576 
2194 
1984 
2432 
2453 
2217 
1932 
2387 
2615 
2420 
2102 
2435 
2708 
2557 
2160 
2395 
2769 
2724 
2352 
2350 
2875 
2879 
2471 
2347 
2823 
2898 
2571 
2319 
2746 
2900 
2650 
2288 
2712 
2948 
2883 
2620 
3120 
3616 
3437 
2931 
3027 
3365 
3079 
2609 
2727 
3201 
3185 
2841 
2706 
3168 
3209 
2875 
2666 
3140 
3247 
2946 
2620 
3050 
3228 
2960 
2572 
2927 
3206 
3021 
2570 
2795 
3215 
3140 
2659 
2695 
3224 
3159 
2813 
2702 
3166 
3186 
2906 
2660 
3181 
3303 
2998 
2693 
3118 
3366 
3119 
2699 
3089 
3406 
3266 
2834 
3013 
3412 
3342 
2961 
3034 
3473 
3422 
3097 
3025 
3478 
3525 
3218 
2982 
3441 
3490 
3222 
2863 
3332 
3477 
3232 
2756 
3015 
3326 
3136 
2679 
2825 
3187 
3047 
2688 
2670 
3102 
3060 
2697 
2573 
3056 
3099 
2795 
2582 
3010 
3123 
2911 
2552 
2978 
3238 
3037 
2598 
2943 
3212 
3116 
2650 
2819 
3221 
3141 
2715 
2732 
3221 
3195 
2839 
2674 
3157 
3200 
2876 
2633 
3103 
3253 
2966 
2654 
3064 
3238 
3099 
2637 
2965 
3287 
3176 
2748 
2880 
3288 
3213 
2857 
2902 
3328 
3285 
2871 
2786 
3341 
3385 
3059 
2764 
3271 
3409 
3130 
2793 
3186 
3419 
3222 
2804 
3158 
3456 
3307 
2903 
3064 
3494 
3373 
2937 
2958 
3473 
3455 
3067 
2945 
3413 
3483 
3191 
2936 
3365 
3515 
3279 
2940 
3407 
3627 
3473 
3027 
3311 
3586 
3460 
3055 
3248 
3624 
3536 
3070 
3073 
3530 
3534 
3150 
3010 
3515 
3589 
3289 
2950 
3409 
3594 
3312 
2935 
3352 
3582 
3384 
2974 
3211 
3602 
3615 
3266 
3575 
4178 
4145 
3670 
3601 
3900 
3671 
3261 
3129 
3636 
3689 
3351 
3037 
3491 
3660 
3425 
3052 
3463 
3698 
3498 
3102 
3408 
3739 
3571 
3142 
3364 
3746 
3681 
3257 
3329 
3751 
3757 
3335 
3190 
3735 
3770 
3434 
3140 
3665 
3812 
3571 
3171 
3578 
3793 
3594 
3196 
3485 
3821 
3670 
3236 
3441 
3846 
3761 
3427 
3420 
3911 
3862 
3456 
3367 
3876 
3967 
3657 
3379 
3862 
4030 
3730 
3410 
3809 
4036 
3828 
3392 
3683 
3984 
3784 
3374 
3462 
3793 
3712 
3301 
3180 
3653 
3622 
3247 
3032 
3562 
3597 
3290 
2974 
3415 
3606 
3340 
2981 
3309 
3601 
3413 
3011 
3323 
3581 
3462 
3041 
3226 
3596 
3476 
3119 
3122 
3584 
3564 
3197 
3063 
3557 
3575 
3265 
3041 
3534 
3659 
3415 
3008 
3390 
3646 
3470 
3012 
3304 
3666 
3518 
3082 
3247 
3677 
3562 
3143 
3175 
3638 
3577 
3235 
3073 
3568 
3629 
3372 
3010 
3471 
3645 
3426 
3073 
3469 
3710 
3500 
3027 
3301 
3666 
3544 
3122 
3229 
3656 
3613 
3217 
3200 
3639 
3623 
3242 
3089 
3579 
3685 
3330 
3043 
3519 
3718 
3472 
3093 
3506 
3728 
3538 
3106 
3400 
3731 
3592 
3203 
3365 
3754 
3701 
3267 
3224 
3692 
3727 
3397 
3209 
3717 
3733 
3410 
3180 
3586 
3718 
3525 
3092 
3466 
3736 
3553 
3161 
3389 
3705 
3597 
3184 
3335 
3744 
3687 
3260 
3167 
3699 
3800 
3569 
3613 
4274 
4401 
4092 
3697 
3972 
3976 
3606 
3254 
3670 
3906 
3703 
3325 
3556 
3828 
3738 
3339 
3445 
3886 
3819 
3419 
3422 
3875 
3845 
3513 
3291 
3804 
3877 
3646 
3389 
3812 
3988 
3775 
3381 
3737 
3972 
3766 
3346 
3584 
3957 
3820 
3386 
3512 
3950 
3873 
3473 
3470 
3876 
3916 
3560 
3391 
3919 
4034 
3741 
3459 
3942 
4077 
3890 
3520 
3903 
4220 
4054 
3639 
3917 
4241 
4099 
3666 
3826 
4243 
4194 
3767 
3700 
4120 
4174 
3797 
3577 
4045 
4102 
3779 
3456 
3891 
4041 
3831 
3430 
3813 
4048 
3840 
3433 
3695 
4020 
3883 
3551 
3623 
4073 
3976 
3601 
3552 
3985 
4062 
3758 
3590 
4087 
4153 
3866 
3534 
3988 
4113 
3895 
3526 
3844 
4106 
3947 
3513 
3715 
4067 
3926 
3463 
3561 
4001 
3865 
3485 
3463 
3901 
3915 
3610 
3394 
3822 
3880 
3610 
3356 
3826 
3913 
3730 
3382 
3766 
4002 
3850 
3424 
3645 
3991 
3889 
3488 
3555 
4003 
3931 
3519 
3436 
3908 
3911 
3579 
3380 
3853 
3948 
3616 
3344 
3741 
3880 
3675 
3307 
3701 
3951 
3741 
3374 
3592 
3931 
3828 
3405 
3540 
3933 
3823 
3461 
3430 
3883 
3908 
3578 
3384 
3882 
4007 
3751 
3438 
3848 
4051 
3794 
3465 
3888 
4118 
3947 
3567 
3818 
4137 
4011 
3551 
3644 
4001 
3964 
3599 
3527 
4028 
4047 
3641 
3478 
3953 
4018 
3754 
3442 
3827 
4003 
3806 
3392 
3749 
4074 
4091 
3833 
4165 
4620 
4469 
3996 
3964 
4182 
3942 
3561 
3550 
4055 
4082 
3773 
3493 
3933 
4046 
3750 
3446 
3870 
4038 
3800 
3357 
3763 
4041 
3885 
3426 
3626 
4046 
3935 
3534 
3604 
4076 
4039 
3660 
3601 
4097 
4125 
3779 
3593 
4101 
4214 
3917 
3596 
4047 
4299 
4033 
3715 
4170 
4510 
4441 
4072 
4340 
4798 
4706 
4364 
4498 
4980 
4907 
4616 
4612 
5132 
5215 
4912 
4689 
5183 
5305 
5026 
4783 
5225 
5418 
5255 
4860 
5177 
5414 
5273 
4842 
4989 
5334 
5214 
4818 
4822 
5212 
5188 
4797 
4738 
5210 
5200 
4858 
4612 
5096 
5208 
4994 
4701 
5039 
5237 
4968 
4607 
4921 
5181 
5071 
4667 
4876 
5267 
5137 
4728 
4776 
5186 
5181 
4780 
4659 
5173 
5170 
4833 
4623 
5079 
5173 
4923 
4561 
4971 
5177 
4972 
4598 
4863 
5163 
4985 
4598 
4796 
5143 
5076 
4740 
4706 
5153 
5117 
4730 
4602 
5098 
5105 
4753 
4499 
4981 
5092 
4846 
4434 
4804 
4986 
4786 
4427 
4720 
5002 
4802 
4365 
4533 
4877 
4736 
4326 
4356 
4735 
4685 
4312 
4208 
4695 
4733 
4391 
4135 
4603 
4727 
4455 
4123 
4551 
4712 
4547 
4141 
4398 
4720 
4551 
4062 
4201 
4613 
4478 
4064 
4107 
4522 
4464 
4104 
3982 
4447 
4489 
4183 
3963 
4440 
4510 
4269 
3930 
4332 
4513 
4297 
4061 
4500 
4981 
4932 
4505 
4585 
4897 
4603 
4002 
3984 
4522 
4533 
4189 
3997 
4477 
4547 
4213 
3982 
4417 
4538 
4292 
3953 
4348 
4521 
4371 
3997 
4268 
4559 
4452 
4028 
4180 
4578 
4462 
4106 
4130 
4577 
4514 
4209 
4020 
4472 
4525 
4278 
4012 
4458 
4565 
4338 
3999 
4404 
4600 
4424 
4056 
4309 
4673 
4517 
4056 
4261 
4641 
4587 
4236 
4226 
4665 
4644 
4320 
4173 
4655 
4731 
4447 
4172 
4641 
4764 
4463 
4118 
4516 
4700 
4491 
4069 
4339 
4576 
4399 
3944 
4050 
4453 
4354 
3937 
3903 
4350 
4356 
4015 
3870 
4375 
4384 
4072 
3816 
4271 
4373 
4103 
3753 
4118 
4294 
4222 
3769 
4023 
4343 
4201 
3778 
3921 
4313 
4184 
3844 
3797 
4288 
4256 
3923 
3744 
4154 
4239 
3922 
3636 
4075 
4213 
3953 
3602 
3927 
4131 
3951 
3545 
3788 
4094 
3890 
3557 
3682 
4053 
3961 
3585 
3540 
3998 
3991 
3612 
3469 
3938 
3979 
3645 
3382 
3849 
3996 
3721 
3357 
3729 
3973 
3802 
3332 
3568 
3929 
3807 
3397 
3464 
3893 
3812 
3447 
3469 
3909 
3820 
3498 
3338 
3798 
3870 
3589 
3289 
3688 
3902 
3703 
3392 
3715 
3922 
3775 
3315 
3571 
3899 
3815 
3467 
3521 
3921 
3864 
3433 
3349 
3823 
3809 
3459 
3276 
3705 
3828 
3501 
3282 
3687 
3854 
3621 
3203 
3553 
3840 
3619 
3220 
3456 
3897 
3839 
3572 
3867 
4377 
4292 
3834 
3697 
3962 
3779 
3432 
3244 
3745 
3849 
3502 
3179 
3639 
3824 
3537 
3178 
3530 
3753 
3571 
3170 
3421 
3802 
3631 
3244 
3354 
3718 
3678 
3314 
3284 
3764 
3794 
3444 
3221 
3697 
3775 
3543 
3199 
3648 
3818 
3606 
3250 
3588 
3861 
3721 
3315 
3486 
3834 
3800 
3366 
3493 
3964 
3889 
3533 
3458 
3919 
3961 
3702 
3455 
3995 
4068 
3787 
3472 
3915 
4150 
3967 
3540 
3878 
4166 
3996 
3582 
3781 
4112 
4005 
3533 
3607 
3997 
3885 
3495 
3409 
3884 
3865 
3516 
3299 
3757 
3843 
3585 
3307 
3693 
3890 
3654 
3250 
3540 
3796 
3640 
3220 
3462 
3853 
3702 
3301 
3335 
3758 
3776 
3388 
3266 
3720 
3764 
3434 
3246 
3719 
3791 
3530 
3175 
3622 
3802 
3555 
3194 
3546 
3787 
3643 
3248 
3434 
3774 
3707 
3255 
3314 
3799 
3751 
3353 
3307 
3755 
3805 
3485 
3203 
3676 
3827 
3569 
3203 
3572 
3823 
3608 
3188 
3487 
3819 
3674 
3226 
3461 
3840 
3705 
3311 
3369 
3773 
3748 
3364 
3270 
3758 
3794 
3500 
3270 
3676 
3809 
3614 
3299 
3647 
3837 
3643 
3259 
3596 
3886 
3725 
3342 
3544 
3923 
3855 
3469 
3469 
3915 
3889 
3526 
3423 
3868 
3881 
3565 
3308 
3791 
3899 
3615 
3209 
3630 
3839 
3629 
3228 
3571 
3862 
3672 
3236 
3454 
3828 
3686 
3296 
3348 
3753 
3756 
3478 
3502 
4158 
4367 
4117 
3783 
4114 
4036 
3584 
3210 
3695 
3881 
3636 
3260 
3593 
3831 
3679 
3255 
3442 
3855 
3730 
3327 
3386 
3829 
3781 
3427 
3267 
3788 
3808 
3480 
3210 
3708 
3826 
3610 
3290 
3719 
3848 
3624 
3209 
3546 
3864 
3743 
3379 
3525 
3896 
3832 
3388 
3445 
3885 
3811 
3523 
3419 
3839 
3907 
3611 
3405 
3886 
3998 
3727 
3428 
3851 
4039 
3876 
3485 
3785 
4075 
3966 
3578 
3742 
4145 
4043 
3650 
3699 
4110 
4019 
3587 
3466 
3928 
3940 
3591 
3296 
3743 
3834 
3594 
3231 
3516 
3723 
3535 
3140 
3470 
3715 
3548 
3171 
3333 
3717 
3622 
3245 
3242 
3684 
3627 
3321 
3243 
3701 
3677 
3347 
3154 
3631 
3799 
3489 
3171 
3549 
3749 
3530 
3135 
3427 
3775 
3591 
3196 
3348 
3752 
3685 
3252 
3250 
3702 
3699 
3315 
3176 
3651 
3712 
3416 
3135 
3597 
3689 
3497 
3146 
3495 
3736 
3499 
3083 
3379 
3730 
3589 
3135 
3286 
3679 
3576 
3163 
3222 
3677 
3602 
3325 
3207 
3624 
3688 
3378 
3079 
3541 
3695 
3464 
3084 
3465 
3719 
3482 
3091 
3391 
3722 
3575 
3128 
3293 
3726 
3612 
3173 
3281 
3752 
3715 
3406 
3254 
3709 
3738 
3486 
3182 
3624 
3714 
3472 
3122 
3465 
3708 
3494 
3097 
3386 
3675 
3557 
3137 
3291 
3666 
3629 
3213 
3190 
3647 
3638 
3253 
3123 
3687 
3857 
3662 
3571 
4136 
4253 
3911 
3397 
3526 
3618 
3473 
3134 
3415 
3754 
3659 
3194 
3279 
3692 
3653 
3219 
3209 
3620 
3671 
3329 
3127 
3650 
3749 
3437 
3167 
3588 
3738 
3498 
3171 
3557 
3756 
3626 
3201 
3454 
3822 
3677 
3255 
3407 
3800 
3714 
3358 
3333 
3748 
3749 
3453 
3308 
3773 
3816 
3562 
3325 
3801 
3902 
3679 
3329 
3734 
3988 
3818 
3444 
3688 
4035 
3954 
3557 
3695 
4095 
4030 
3662 
3622 
4097 
4104 
3730 
3528 
3977 
4035 
3735 
3414 
3761 
3865 
3621 
3249 
3536 
3818 
3621 
3207 
3425 
3744 
3626 
3191 
3287 
3691 
3642 
3256 
3195 
3644 
3675 
3338 
3154 
3643 
3681 
3360 
3089 
3551 
3688 
3461 
3101 
3467 
3714 
3499 
3120 
3352 
3683 
3594 
3210 
3268 
3646 
3642 
3270 
3171 
3593 
3628 
3262 
3083 
3595 
3686 
3368 
3091 
3472 
3696 
3432 
3085 
3416 
3651 
3499 
3073 
3320 
3669 
3590 
3190 
3268 
3660 
3589 
3227 
3171 
3601 
3630 
3312 
3071 
3558 
3646 
3365 
3153 
3503 
3679 
3483 
3031 
3405 
3690 
3513 
3158 
3401 
3734 
3628 
3269 
3316 
3758 
3688 
3340 
3264 
3671 
3691 
3321 
3120 
3611 
3658 
3347 
3137 
3510 
3613 
3444 
3069 
3393 
3683 
3524 
3142 
3360 
3696 
3599 
3178 
3231 
3673 
3693 
3427 
3505 
4125 
4214 
3812 
3556 
3905 
3851 
3358 
3104 
3600 
3838 
3642 
3248 
3545 
3844 
3690 
3282 
3469 
3842 
3754 
3403 
3418 
3852 
3832 
3486 
3408 
3851 
3912 
3604 
3410 
3831 
3911 
3695 
3340 
3717 
3934 
3773 
3384 
3721 
4017 
3783 
3375 
3634 
3972 
3866 
3462 
3570 
3970 
3926 
3583 
3474 
3932 
3953 
3631 
3483 
3948 
4027 
3789 
3448 
3851 
4094 
3908 
3498 
3862 
4167 
4010 
3540 
3793 
4122 
4015 
3680 
3700 
4104 
4040 
3586 
3470 
3897 
3874 
3561 
3278 
3680 
3796 
3518 
3112 
3514 
3776 
3540 
3146 
3462 
3765 
3589 
3141 
3398 
3752 
3596 
3193 
3288 
3739 
3652 
3295 
3216 
3681 
3711 
3388 
3123 
3616 
3717 
3442 
3125 
3552 
3766 
3562 
3168 
3433 
3764 
3551 
3132 
3375 
3757 
3684 
3233 
3251 
3693 
3649 
3321 
3180 
3639 
3712 
3369 
3095 
3583 
3660 
3365 
3030 
3506 
3723 
3495 
3088 
3365 
3647 
3516 
3074 
3263 
3675 
3554 
3115 
3122 
3580 
3508 
3177 
3071 
3531 
3517 
3203 
2997 
3464 
3549 
3259 
2963 
3351 
3579 
3374 
2981 
3279 
3635 
3490 
3048 
3174 
3632 
3566 
3127 
3093 
3537 
3567 
3121 
2976 
3472 
3545 
3204 
2908 
3398 
3544 
3295 
2847 
3281 
3538 
3364 
2935 
3234 
3507 
3365 
2957 
3061 
3548 
3586 
3221 
3412 
4006 
4017 
3601 
3369 
3687 
3598 
3239 
3043 
3499 
3622 
3394 
2999 
3376 
3583 
3403 
2992 
3268 
3648 
3505 
3068 
3206 
3588 
3496 
3131 
3084 
3615 
3631 
3261 
3100 
3592 
3649 
3338 
3036 
3549 
3655 
3409 
3101 
3494 
3732 
3519 
3083 
3374 
3800 
3635 
3159 
3320 
3781 
3682 
3217 
3237 
3726 
3753 
3436 
3284 
3776 
3800 
3487 
3275 
3709 
3891 
3627 
3247 
3661 
3942 
3713 
3347 
3645 
3989 
3841 
3313 
3277 
3672 
3605 
3191 
3135 
3558 
3528 
3168 
2983 
3450 
3518 
3226 
2858 
3283 
3489 
3283 
2834 
3217 
3493 
3325 
2914 
3121 
3474 
3373 
2924 
3034 
3475 
3424 
2988 
2945 
3457 
3451 
3073 
2910 
3409 
3451 
3244 
2911 
3368 
3498 
3259 
2884 
3236 
3548 
3368 
2925 
3153 
3496 
3402 
3062 
3270 
3658 
3579 
3172 
3138 
3580 
3590 
3246 
3019 
3515 
3602 
3304 
2974 
3453 
3661 
3370 
2982 
3376 
3625 
3417 
3014 
3264 
3595 
3468 
3076 
3160 
3570 
3517 
3117 
3039 
3555 
3515 
3205 
2995 
3440 
3567 
3230 
2961 
3409 
3585 
3338 
2928 
3308 
3631 
3470 
2982 
3239 
3666 
3552 
3077 
3145 
3610 
3603 
3168 
3071 
3509 
3545 
3225 
2952 
3464 
3550 
3272 
2904 
3342 
3541 
3281 
2903 
3271 
3513 
3353 
2933 
3143 
3533 
3394 
2973 
3152 
3728 
3794 
3569 
3579 
4005 
3951 
3471 
3028 
3424 
3564 
3333 
3000 
3419 
3606 
3350 
2946 
3264 
3583 
3462 
3010 
3235 
3635 
3526 
3068 
3156 
3626 
3570 
3178 
3061 
3542 
3575 
3263 
3037 
3526 
3616 
3369 
2991 
3469 
3632 
3454 
3053 
3379 
3674 
3526 
3078 
3271 
3683 
3589 
3153 
3230 
3677 
3638 
3250 
3162 
3705 
3734 
3414 
3229 
3707 
3808 
3570 
3249 
3661 
3932 
3686 
3283 
3618 
3916 
3752 
3354 
3538 
3883 
3683 
3161 
3182 
3615 
3566 
3157 
3038 
3504 
3467 
3129 
2876 
3403 
3468 
3160 
2780 
3206 
3442 
3254 
2837 
3144 
3434 
3260 
2878 
3049 
3426 
3356 
2914 
2929 
3399 
3424 
2997 
2835 
3436 
3490 
3209 
2880 
3324 
3439 
3172 
2872 
3283 
3482 
3278 
2951 
3363 
3655 
3537 
3075 
3208 
3599 
3494 
3061 
3060 
3551 
3584 
3185 
3041 
3501 
3526 
3215 
3024 
3522 
3582 
3334 
2969 
3373 
3581 
3388 
2971 
3286 
3613 
3436 
3017 
3168 
3565 
3491 
3082 
3059 
3519 
3571 
3181 
2983 
3435 
3527 
3234 
2983 
3448 
3583 
3329 
2969 
3379 
3614 
3417 
2958 
3268 
3571 
3458 
3042 
3212 
3645 
3568 
3165 
3162 
3629 
3632 
3278 
3118 
3598 
3645 
3293 
3027 
3456 
3595 
3371 
2934 
3289 
3565 
3409 
2985 
3232 
3528 
3427 
2986 
3099 
3520 
3482 
3053 
2988 
3478 
3565 
3323 
3317 
4016 
4143 
3764 
3409 
3695 
3620 
3267 
2919 
3332 
3574 
3377 
2941 
3242 
3529 
3365 
2976 
3081 
3487 
3445 
3022 
2989 
3478 
3486 
3153 
2947 
3418 
3545 
3247 
2901 
3318 
3536 
3319 
2920 
3340 
3635 
3436 
3011 
3250 
3594 
3487 
3090 
3210 
3679 
3567 
3160 
3160 
3641 
3688 
3329 
3153 
3615 
3709 
3459 
3157 
3554 
3785 
3598 
3184 
3543 
3841 
3707 
3296 
3511 
3885 
3805 
3415 
3493 
3909 
3843 
3406 
3282 
3627 
3626 
3254 
3034 
3530 
3616 
3259 
2958 
3339 
3527 
3241 
2854 
3208 
3458 
3343 
2901 
3086 
3474 
3370 
2940 
3019 
3467 
3415 
3011 
2916 
3410 
3430 
3124 
2929 
3395 
3501 
3231 
2863 
3316 
3554 
3317 
2876 
3211 
3508 
3342 
2941 
3129 
3551 
3608 
3200 
3217 
3637 
3610 
3221 
3091 
3588 
3620 
3286 
2999 
3553 
3638 
3322 
2990 
3439 
3676 
3422 
2990 
3351 
3629 
3486 
3043 
3275 
3655 
3543 
3140 
3163 
3628 
3592 
3168 
3074 
3632 
3624 
3298 
3065 
3562 
3658 
3372 
3019 
3448 
3663 
3471 
3036 
3373 
3698 
3521 
3055 
3272 
3651 
3556 
3094 
3164 
3628 
3622 
3224 
3174 
3659 
3746 
3413 
3112 
3603 
3733 
3464 
3094 
3458 
3735 
3508 
3070 
3374 
3632 
3485 
3076 
3240 
3648 
3554 
3059 
3137 
3595 
3542 
3175 
3092 
3567 
3607 
3255 
2986 
3556 
3742 
3627 
3471 
4006 
4191 
3913 
3354 
3451 
3566 
3457 
3096 
3282 
3691 
3617 
3098 
3079 
3585 
3585 
3227 
3060 
3578 
3643 
3276 
3014 
3498 
3622 
3382 
3002 
3420 
3696 
3474 
3078 
3359 
3671 
3535 
3087 
3289 
3700 
3603 
3217 
3210 
3703 
3684 
3304 
3187 
3674 
3726 
3469 
3182 
3652 
3760 
3529 
3197 
3573 
3821 
3665 
3226 
3543 
3916 
3755 
3320 
3481 
3897 
3832 
3431 
3488 
3934 
3909 
3528 
3377 
3881 
3948 
3671 
3219 
3570 
3724 
3496 
3040 
3421 
3655 
3432 
2995 
3227 
3536 
3398 
2981 
3088 
3560 
3456 
2982 
2946 
3502 
3465 
3145 
2960 
3415 
3524 
3252 
2898 
3354 
3525 
3315 
2940 
3292 
3587 
3393 
2946 
3195 
3600 
3486 
2979 
3071 
3555 
3542 
3324 
3264 
3723 
3699 
3321 
3063 
3589 
3674 
3364 
3051 
3529 
3660 
3432 
3035 
3381 
3659 
3470 
3023 
3243 
3642 
3550 
3067 
3156 
3601 
3560 
3158 
3067 
3513 
3586 
3237 
2997 
3506 
3626 
3372 
3021 
3464 
3705 
3440 
3023 
3391 
3642 
3487 
3079 
3267 
3586 
3496 
3092 
3165 
3593 
3617 
3199 
3060 
3587 
3594 
3214 
3021 
3569 
3696 
3421 
3102 
3530 
3702 
3427 
3015 
3350 
3644 
3489 
3026 
3230 
3554 
3476 
3032 
3077 
3536 
3505 
3082 
2970 
3473 
3491 
3243 
2950 
3464 
3591 
3301 
2907 
3340 
3556 
3403 
3087 
3549 
4042 
4059 
3606 
3734 
3981 
3711 
3011 
3101 
3670 
3614 
3223 
3073 
3587 
3608 
3253 
2995 
3514 
3618 
3378 
2962 
3430 
3644 
3418 
2972 
3295 
3651 
3507 
3007 
3229 
3660 
3550 
3092 
3120 
3608 
3587 
3253 
3116 
3655 
3622 
3287 
3081 
3609 
3696 
3423 
3058 
3522 
3775 
3585 
3148 
3476 
3787 
3650 
3231 
3422 
3831 
3781 
3387 
3402 
3913 
3881 
3490 
3304 
3823 
3919 
3571 
3354 
3863 
3999 
3670 
3314 
3755 
3940 
3574 
3079 
3372 
3695 
3522 
3098 
3234 
3625 
3537 
3059 
2994 
3508 
3490 
3077 
2925 
3465 
3535 
3191 
2880 
3348 
3511 
3259 
2894 
3334 
3611 
3379 
2955 
3223 
3562 
3421 
3069 
3221 
3573 
3455 
3072 
3033 
3622 
3714 
3365 
3177 
3670 
3698 
3417 
3119 
3559 
3724 
3443 
3047 
3479 
3739 
3542 
3115 
3300 
3668 
3546 
3121 
3221 
3707 
3645 
3212 
3149 
3638 
3643 
3271 
3078 
3607 
3651 
3394 
3058 
3512 
3674 
3421 
3031 
3434 
3708 
3495 
3074 
3364 
3702 
3560 
3104 
3196 
3635 
3569 
3169 
3131 
3616 
3686 
3311 
3116 
3586 
3644 
3358 
3036 
3525 
3712 
3480 
3098 
3482 
3816 
3592 
3176 
3401 
3721 
3610 
3149 
3266 
3685 
3557 
3210 
3096 
3628 
3594 
3269 
3059 
3548 
3632 
3342 
3030 
3479 
3662 
3450 
3005 
3313 
3691 
3629 
3341 
3719 
4269 
4211 
3704 
3621 
3905 
3617 
3137 
3134 
3650 
3709 
3361 
3106 
3575 
3680 
3339 
3081 
3535 
3687 
3479 
3052 
3419 
3709 
3575 
3129 
3284 
3732 
3627 
3165 
3216 
3685 
3656 
3269 
3183 
3695 
3695 
3364 
3114 
3648 
3787 
3443 
3099 
3555 
3777 
3590 
3184 
3495 
3826 
3702 
3234 
3418 
3821 
3741 
3350 
3442 
3885 
3830 
3494 
3412 
3903 
3932 
3639 
3394 
3871 
4003 
3738 
3369 
3833 
4054 
3847 
3405 
3734 
3961 
3666 
3184 
3290 
3698 
3579 
3097 
3141 
3587 
3506 
3121 
3016 
3531 
3478 
3175 
2927 
3408 
3579 
3298 
2907 
3338 
3604 
3358 
2878 
3212 
3583 
3442 
2969 
3122 
3564 
3484 
3078 
3089 
3551 
3530 
3127 
3001 
3605 
3755 
3387 
3124 
3602 
3725 
3421 
3051 
3481 
3734 
3545 
3062 
3290 
3688 
3562 
3103 
3251 
3689 
3630 
3166 
3186 
3635 
3625 
3309 
3072 
3576 
3691 
3361 
3035 
3511 
3692 
3421 
2998 
3382 
3698 
3517 
3068 
3309 
3676 
3547 
3050 
3221 
3661 
3602 
3176 
3133 
3651 
3647 
3276 
3041 
3582 
3651 
3351 
3065 
3553 
3742 
3508 
3076 
3430 
3734 
3599 
3145 
3385 
3718 
3586 
3155 
3251 
3672 
3572 
3185 
3109 
3570 
3636 
3245 
3078 
3578 
3609 
3346 
3020 
3466 
3630 
3442 
3036 
3358 
3620 
3604 
3288 
3655 
4238 
4189 
3693 
3655 
3826 
3525 
3080 
3113 
3706 
3744 
3366 
3124 
3587 
3678 
3432 
3068 
3486 
3683 
3486 
3067 
3408 
3714 
3554 
3081 
3317 
3734 
3637 
3223 
3245 
3689 
3621 
3290 
3184 
3710 
3731 
3389 
3163 
3675 
3786 
3511 
3139 
3594 
3785 
3567 
3181 
3513 
3820 
3694 
3253 
3457 
3847 
3778 
3368 
3420 
3904 
3828 
3445 
3350 
3903 
3947 
3622 
3417 
3893 
4014 
3751 
3371 
3828 
4056 
3848 
3383 
3746 
4056 
3836 
3350 
3492 
3866 
3693 
3083 
3093 
3546 
3527 
3112 
2976 
3508 
3509 
3189 
2884 
3396 
3578 
3280 
2881 
3307 
3558 
3369 
2940 
3241 
3582 
3459 
2989 
3174 
3554 
3476 
3107 
3078 
3574 
3602 
3162 
2985 
3506 
3679 
3513 
3155 
3601 
3753 
3536 
3099 
3504 
3764 
3514 
3118 
3431 
3739 
3590 
3156 
3319 
3755 
3676 
3211 
3222 
3693 
3686 
3336 
3175 
3627 
3731 
3451 
3107 
3562 
3768 
3517 
3095 
3517 
3793 
3591 
3166 
3446 
3838 
3714 
3207 
3336 
3818 
3804 
3402 
3315 
3744 
3751 
3399 
3195 
3641 
3726 
3427 
3101 
3593 
3738 
3505 
3113 
3515 
3750 
3553 
3140 
3364 
3729 
3607 
3193 
3277 
3701 
3722 
3426 
3414 
4072 
4187 
3825 
3493 
3810 
3697 
3246 
2965 
3489 
3739 
3506 
3117 
3460 
3723 
3535 
3090 
3288 
3705 
3596 
3143 
3244 
3689 
3626 
3221 
3095 
3636 
3649 
3309 
3101 
3584 
3640 
3371 
3077 
3469 
3618 
3436 
2997 
3405 
3664 
3498 
3056 
3255 
3651 
3507 
3114 
3177 
3596 
3546 
3172 
3125 
3597 
3594 
3304 
3104 
3631 
3750 
3482 
3207 
3613 
3864 
3653 
3347 
3697 
3975 
3843 
3462 
3714 
4082 
4017 
3643 
3693 
4111 
4053 
3682 
3584 
4022 
4052 
3714 
3480 
3876 
3837 
3598 
3306 
3754 
3980 
3769 
3434 
3794 
4136 
4001 
3628 
3819 
4210 
4096 
3751 
3813 
4266 
4264 
3928 
3851 
4324 
4400 
4113 
3952 
4405 
4512 
4310 
3972 
4543 
4826 
4602 
4254 
4558 
4892 
4737 
4381 
4623 
5011 
4910 
4561 
4605 
5096 
5076 
4795 
4703 
5212 
5307 
5079 
4849 
5332 
5461 
5297 
5009 
5384 
5643 
5502 
5157 
5466 
5759 
5640 
5317 
5454 
5817 
5815 
5453 
5499 
5917 
5923 
5601 
5508 
5931 
5912 
5651 
5339 
5537 
5520 
5171 
4772 
5041 
5250 
5032 
4701 
4956 
5210 
5185 
4846 
5036 
5416 
5364 
5080 
5127 
5523 
5585 
5315 
5274 
5800 
5869 
5574 
5312 
5837 
6108 
6039 
5922 
6451 
6693 
6469 
5993 
6041 
6166 
6068 
5835 
5985 
6367 
6309 
6020 
5967 
6381 
6363 
6065 
5988 
6439 
6522 
6249 
6045 
6378 
6532 
6357 
6070 
6394 
6596 
6519 
6193 
6429 
6715 
6620 
6352 
6443 
6820 
6766 
6505 
6453 
6816 
6920 
6706 
6598 
7035 
7140 
6942 
6797 
7190 
7366 
7274 
7071 
7378 
7614 
7595 
7358 
7635 
7972 
7954 
7728 
7884 
8241 
8258 
8100 
8166 
8536 
8653 
8493 
8387 
8753 
8780 
8572 
8443 
8743 
8891 
8808 
8546 
8785 
8967 
8901 
8662 
8809 
9125 
9038 
8817 
8915 
9235 
9231 
9042 
9016 
9374 
9422 
9295 
9251 
9642 
9809 
9716 
9636 
10011 
10252 
10238 
10108 
10468 
10781 
10799 
10696 
10889 
11210 
11362 
11218 
11364 
11738 
11729 
11509 
11498 
11860 
11887 
11658 
11507 
11820 
11871 
11671 
11462 
11797 
11933 
11832 
11608 
11873 
12084 
12014 
11796 
11994 
12332 
12236 
11957 
12033 
12382 
12460 
12253 
12210 
12591 
12636 
12490 
12468 
12812 
12900 
12809 
12697 
13085 
13256 
13171 
12983 
13245 
13527 
13535 
13228 
13328 
13509 
13303 
12939 
12935 
13223 
13100 
12724 
12518 
12571 
12346 
11862 
11652 
12034 
12339 
12450 
12519 
12978 
13274 
13320 
13171 
13534 
13836 
13926 
13761 
13926 
14222 
14143 
13916 
14082 
14496 
14675 
14592 
14510 
14756 
14714 
14328 
13907 
14186 
14348 
14203 
13951 
14217 
14283 
14161 
13902 
14065 
14251 
14130 
13802 
13891 
14046 
13947 
13616 
13597 
13754 
13613 
13278 
13070 
13300 
13105 
12782 
12443 
12587 
12560 
12252 
11814 
11924 
11904 
11605 
11177 
11228 
11242 
10937 
10438 
10401 
10564 
10335 
9879 
9692 
9850 
9691 
9297 
9062 
9272 
9165 
8801 
8473 
8640 
8578 
8304 
7914 
8026 
8024 
7748 
7321 
7395 
7537 
7358 
6888 
6825 
6893 
6685 
6318 
6204 
6415 
6298 
5912 
5632 
5886 
5822 
5482 
5134 
5334 
5319 
5022 
4588 
4792 
4875 
4614 
4176 
4310 
4460 
4279 
3882 
3893 
4107 
3916 
3559 
3490 
3749 
3666 
3340 
3157 
3456 
3393 
3173 
2850 
3118 
3186 
2938 
2590 
2869 
2985 
2894 
2699 
2797 
3020 
2946 
2556 
2589 
2894 
2790 
2249 
1854 
1939 
1847 
1572 
1534 
2004 
2165 
2015 
1776 
2152 
2118 
1302 
458 
632 
935 
901 
588 
635 
752 
666 
351 
377 
749 
700 
377 
304 
717 
739 
503 
291 
632 
715 
539 
299 
631 
817 
683 
331 
613 
879 
774 
453 
613 
921 
860 
527 
634 
1040 
1041 
731 
732 
1202 
1262 
1072 
921 
1397 
1550 
1422 
1208 
1647 
1838 
1735 
1393 
1760 
2150 
2230 
2062 
2474 
2902 
2918 
2523 
2411 
2581 
2471 
2253 
2292 
2737 
2836 
2606 
2392 
2813 
2974 
2808 
2549 
2882 
3012 
2899 
2617 
2869 
3122 
3036 
2716 
2840 
3122 
3157 
2802 
2755 
3092 
3094 
2859 
2738 
3079 
3071 
2838 
2605 
2966 
3031 
2842 
2580 
2856 
3015 
2857 
2507 
2729 
2943 
2844 
2513 
2651 
2965 
2890 
2553 
2589 
2969 
2952 
2650 
2491 
2881 
2994 
2770 
2543 
2895 
2983 
2774 
2452 
2786 
2967 
2782 
2408 
2452 
2603 
2523 
2158 
2273 
2523 
2443 
2129 
2057 
2410 
2416 
2078 
1903 
2275 
2338 
2073 
1822 
2119 
2242 
2098 
1757 
2023 
2219 
2086 
1733 
1898 
2159 
2048 
1748 
1786 
2095 
2071 
1787 
1689 
2043 
2030 
1768 
1633 
1969 
2001 
1796 
1603 
2039 
2208 
2075 
1751 
1980 
2174 
2093 
1775 
1934 
2228 
2159 
1859 
1914 
2271 
2259 
1996 
1913 
2276 
2301 
2103 
1915 
2247 
2399 
2186 
1933 
2242 
2380 
2214 
1951 
2190 
2427 
2322 
1947 
2143 
2444 
2387 
2070 
2107 
2458 
2427 
2179 
2152 
2547 
2566 
2363 
2202 
2522 
2607 
2463 
2208 
2513 
2743 
2637 
2311 
2586 
2865 
2811 
2553 
2728 
3061 
3067 
2784 
2865 
3227 
3225 
2976 
2903 
3368 
3619 
3585 
3527 
3922 
3959 
3686 
3212 
3341 
3509 
3464 
3245 
3475 
3713 
3640 
3361 
3486 
3860 
3822 
3538 
3603 
3985 
4048 
3794 
3679 
4109 
4162 
3971 
3805 
4194 
4364 
4241 
3992 
4324 
4566 
4459 
4189 
4417 
4684 
4613 
4336 
4479 
4786 
4714 
4463 
4456 
4797 
4866 
4610 
4513 
4775 
4798 
4641 
4431 
4752 
4841 
4721 
4384 
4672 
4838 
4722 
4355 
4554 
4804 
4736 
4363 
4456 
4792 
4753 
4417 
4332 
4574 
4456 
4114 
3959 
4288 
4289 
4050 
3771 
4042 
4141 
3974 
3642 
3864 
4094 
3970 
3639 
3746 
3986 
3966 
3635 
3667 
3999 
3951 
3683 
3640 
3920 
3964 
3769 
3614 
3941 
4001 
3822 
3616 
3949 
4067 
3947 
3659 
3895 
4124 
4049 
3737 
3893 
4161 
4098 
3701 
3846 
4291 
4254 
3971 
3868 
4187 
4205 
3934 
3706 
4002 
4057 
3804 
3521 
3777 
3876 
3690 
3366 
3560 
3684 
3464 
3090 
3193 
3328 
3171 
2830 
2769 
2932 
2825 
2528 
2333 
2525 
2434 
2126 
1824 
2034 
2064 
1785 
1435 
1594 
1618 
1385 
986 
1075 
1208 
1046 
672 
675 
775 
672 
365 
273 
512 
419 
57 
-131 
109 
34 
-231 
-537 
-343 
-339 
-664 
-1064 
-837 
-768 
-1029 
-1454 
-1385 
-1247 
-1433 
-1840 
-1886 
-1708 
-1846 
-2227 
-2394 
-2207 
-2284 
-2585 
-2812 
-2605 
-2727 
-2930 
-3145 
-2728 
-2506 
-2696 
-3093 
-2960 
-2971 
-3431 
-4077 
-3986 
-3773 
-3927 
-4392 
-4474 
-4256 
-4404 
-4819 
-4952 
-4677 
-4786 
-5163 
-5428 
-5140 
-5181 
-5483 
-5817 
-5497 
-5440 
-5702 
-6110 
-5872 
-5641 
-5862 
-6315 
-6140 
-5840 
-5966 
-6330 
-6305 
-5946 
-5989 
-6288 
-6343 
-5955 
-5896 
-6111 
-6271 
-5830 
-5672 
-5876 
-6075 
-5678 
-5402 
-5556 
-5752 
-5393 
-5068 
-5056 
-5332 
-5111 
-4697 
-4676 
-4901 
-4781 
-4308 
-4250 
-4508 
-4538 
-4240 
-4083 
-4260 
-4418 
-4024 
-3797 
-3960 
-4203 
-3819 
-3589 
-3687 
-3997 
-3707 
-3397 
-3453 
-3718 
-3561 
-3177 
-3118 
-3399 
-3381 
-2880 
-2818 
-3045 
-3142 
-2618 
-2480 
-2689 
-2827 
-2346 
-2191 
-2325 
-2570 
-2139 
-1888 
-1958 
-2289 
-1996 
-1605 
-1697 
-1987 
-1838 
-1455 
-1380 
-1680 
-1720 
-1232 
-1203 
-1409 
-1313 
-847 
-772 
-969 
-1215 
-743 
-586 
-749 
-1006 
-667 
-395 
-528 
-877 
-623 
-223 
-281 
-606 
-516 
-101 
-69 
-366 
-428 
-23 
52 
-165 
-287 
176 
263 
64 
-188 
222 
406 
270 
-30 
279 
566 
445 
112 
354 
689 
603 
227 
358 
749 
693 
431 
418 
891 
906 
609 
488 
952 
1025 
804 
515 
938 
1159 
967 
620 
893 
1144 
1031 
667 
868 
1233 
1150 
772 
813 
1275 
1262 
963 
846 
1341 
1378 
1131 
930 
1394 
1505 
1258 
926 
1440 
1831 
1750 
1519 
1971 
2296 
2093 
1525 
1486 
1701 
1730 
1396 
1422 
1925 
1892 
1454 
1323 
1816 
1901 
1567 
1237 
1797 
1991 
1748 
1294 
1706 
2041 
1773 
807 
1173 
2051 
1955 
962 
1164 
2345 
2347 
1368 
1242 
2561 
2709 
1879 
1436 
2701 
3024 
2383 
1549 
2751 
3344 
2844 
1841 
2805 
3583 
3219 
2132 
2788 
3780 
3535 
2367 
2584 
3848 
3796 
2693 
2444 
3826 
3896 
3005 
2309 
3659 
3973 
3146 
2127 
3238 
3764 
3136 
1874 
2808 
3625 
3148 
1797 
2302 
3273 
2984 
1764 
1855 
3054 
2929 
1777 
1370 
2727 
2815 
1807 
1001 
2344 
2685 
1938 
842 
2031 
2642 
2064 
754 
1592 
2508 
2112 
792 
1246 
2393 
2170 
935 
945 
2296 
2193 
1119 
717 
2109 
2246 
1281 
536 
2032 
2469 
1774 
661 
1782 
2393 
1841 
636 
1440 
2453 
2042 
749 
1166 
2306 
2101 
955 
920 
2209 
2186 
1184 
700 
2087 
2258 
1400 
577 
1853 
2351 
1653 
547 
1653 
2349 
1896 
687 
1421 
2372 
2026 
891 
1203 
2372 
2184 
1066 
927 
2273 
2310 
1332 
831 
2126 
2315 
1555 
766 
1998 
2457 
1860 
750 
1750 
2514 
2086 
907 
1600 
2598 
2381 
1199 
1377 
2577 
2475 
1401 
1207 
2535 
2558 
1655 
980 
2308 
2648 
1875 
936 
2145 
2749 
2139 
998 
1910 
2714 
2330 
1108 
1688 
2711 
2498 
1266 
1392 
2684 
2687 
1750 
1629 
3112 
3357 
2437 
1618 
2791 
2844 
2006 
1121 
2308 
2885 
2335 
1186 
2067 
2871 
2461 
1229 
1788 
2836 
2629 
1505 
1549 
2852 
2796 
1729 
1443 
2755 
2917 
2100 
1354 
2630 
2982 
2371 
1392 
2512 
3133 
2612 
1428 
2255 
3112 
2778 
1606 
2014 
3135 
2961 
1816 
1760 
3048 
3034 
2001 
1595 
2993 
3131 
2293 
1499 
2765 
3227 
2609 
1515 
2628 
3302 
2813 
1669 
2389 
3308 
3051 
1839 
2103 
3143 
2964 
1841 
1734 
3015 
2969 
1993 
1434 
2735 
2951 
2124 
1236 
2483 
2956 
2299 
1206 
2238 
2960 
2506 
1306 
1952 
2972 
2713 
1467 
1720 
2966 
2797 
1684 
1510 
2866 
2912 
2018 
1454 
2750 
3051 
2260 
1363 
2608 
3120 
2569 
1383 
2375 
3198 
2787 
1554 
2187 
3357 
3156 
1915 
2062 
3297 
3223 
2123 
1857 
3237 
3304 
2327 
1637 
3024 
3361 
2607 
1609 
2833 
3405 
2739 
1547 
2439 
3395 
2980 
1720 
2250 
3302 
3032 
1844 
1947 
3210 
3164 
2075 
1689 
3125 
3221 
2269 
1537 
2873 
3223 
2472 
1459 
2570 
3241 
2692 
1511 
2342 
3208 
2854 
1599 
2048 
3200 
3025 
1833 
1847 
3176 
3178 
2125 
1675 
3076 
3250 
2397 
1587 
2885 
3319 
2650 
1593 
2659 
3363 
2859 
1645 
2455 
3426 
3099 
1854 
2155 
3377 
3228 
2061 
1911 
3244 
3265 
2252 
1726 
3060 
3227 
2420 
1565 
2841 
3275 
2623 
1502 
2535 
3295 
2837 
1623 
2282 
3232 
2943 
1782 
1996 
3217 
3202 
2236 
2231 
3784 
3826 
2794 
2094 
3280 
3321 
2487 
1639 
2860 
3366 
2754 
1621 
2545 
3378 
2947 
1690 
2338 
3384 
3097 
1943 
2102 
3359 
3258 
2204 
1942 
3277 
3423 
2517 
1866 
3182 
3532 
2832 
1893 
3047 
3647 
3096 
2002 
2862 
3687 
3273 
2198 
2666 
3646 
3381 
2293 
2303 
3456 
3420 
2430 
2031 
3260 
3382 
2551 
1829 
3114 
3457 
2809 
1790 
2863 
3460 
3051 
1995 
2751 
3609 
3264 
2160 
2449 
3458 
3270 
2232 
2198 
3362 
3292 
2320 
1906 
3124 
3286 
2447 
1717 
2810 
3157 
2580 
1619 
2561 
3176 
2783 
1678 
2323 
3233 
2908 
1799 
2084 
3111 
3007 
1985 
1881 
3107 
3139 
2232 
1754 
2944 
3158 
2427 
1620 
2834 
3242 
2670 
1678 
2591 
3272 
2808 
1872 
2575 
3418 
3138 
2084 
2275 
3396 
3286 
2268 
2058 
3298 
3392 
2509 
1965 
3146 
3403 
2703 
1881 
2952 
3427 
2894 
1875 
2707 
3465 
3096 
1977 
2461 
3430 
3199 
2110 
2224 
3397 
3315 
2284 
2017 
3229 
3371 
2566 
1933 
3066 
3389 
2727 
1858 
2895 
3475 
2948 
1909 
2678 
3452 
3098 
1930 
2385 
3400 
3223 
2188 
2171 
3347 
3313 
2405 
2024 
3251 
3351 
2603 
1891 
3081 
3443 
2856 
1864 
2882 
3500 
3026 
1894 
2627 
3502 
3197 
2114 
2497 
3514 
3347 
2301 
2262 
3448 
3441 
2542 
2053 
3301 
3429 
2700 
1930 
3057 
3447 
2894 
1858 
2827 
3480 
3086 
2010 
2589 
3449 
3182 
2148 
2339 
3374 
3279 
2295 
2126 
3397 
3546 
2860 
2564 
3839 
4076 
3293 
2334 
3158 
3502 
2976 
2026 
2908 
3581 
3175 
2075 
2572 
3525 
3264 
2164 
2364 
3445 
3367 
2421 
2186 
3245 
3325 
2777 
2364 
3028 
3219 
2891 
2454 
2943 
3171 
2928 
2482 
2849 
3231 
3082 
2636 
2798 
3174 
3128 
2731 
2737 
3192 
3163 
2784 
2666 
3179 
3247 
2928 
2681 
3169 
3313 
3077 
2759 
3141 
3406 
3256 
2869 
3216 
3506 
3359 
3011 
3188 
3574 
3514 
3128 
3021 
3405 
3407 
3111 
2955 
3392 
3376 
3066 
2777 
3200 
3326 
3047 
2714 
3075 
3213 
3046 
2690 
2957 
3229 
3049 
2716 
2842 
3204 
3127 
2798 
2747 
3127 
3080 
2802 
2697 
3112 
3181 
2893 
2630 
3017 
3140 
2968 
2708 
2995 
3186 
3031 
2692 
2918 
3297 
3327 
2917 
2986 
3330 
3298 
2951 
2904 
3345 
3368 
3044 
2844 
3269 
3336 
3096 
2860 
3188 
3392 
3067 
2053 
2611 
3463 
3154 
2049 
2441 
3461 
3270 
2199 
2224 
3404 
3381 
2400 
1990 
3237 
3438 
2596 
1863 
3060 
3464 
2807 
1784 
2836 
3470 
3003 
1860 
2575 
3428 
3070 
1906 
2273 
3408 
3261 
2156 
2116 
3341 
3351 
2368 
1935 
3202 
3391 
2594 
1807 
3062 
3456 
2863 
1811 
2847 
3502 
3077 
1863 
2596 
3549 
3243 
2082 
2383 
3538 
3436 
2339 
2232 
3539 
3599 
2584 
2047 
3343 
3647 
2897 
1972 
3198 
3697 
3047 
1909 
2869 
3636 
3197 
2012 
2608 
3558 
3334 
2150 
2338 
3577 
3477 
2358 
2133 
3458 
3488 
2516 
1887 
3199 
3617 
2961 
2097 
3491 
4215 
3661 
2423 
3212 
3860 
3277 
1998 
2583 
3701 
3501 
2305 
2336 
3572 
3572 
2495 
2122 
3507 
3638 
2781 
1997 
3323 
3745 
3061 
2012 
3152 
3792 
3326 
2111 
2948 
3865 
3546 
2332 
2711 
3857 
3740 
2550 
2510 
3871 
3876 
2843 
2326 
3711 
3984 
3180 
2309 
3536 
4053 
3460 
2363 
3400 
4163 
3693 
2528 
3190 
4167 
3961 
2721 
3021 
4193 
4135 
2936 
2803 
4156 
4316 
3263 
2589 
4019 
4357 
3526 
2444 
3599 
4168 
3467 
2164 
3214 
4037 
3512 
2125 
2767 
3899 
3578 
2268 
2409 
3733 
3682 
2406 
2118 
3653 
3760 
2707 
2011 
3471 
3750 
2956 
1897 
3097 
3736 
3176 
1947 
2888 
3795 
3366 
2003 
2598 
3834 
3543 
2200 
2309 
3775 
3702 
2447 
2119 
3755 
3941 
2885 
2128 
3601 
3950 
3110 
1972 
3285 
3916 
3291 
1998 
2951 
3904 
3512 
2139 
2628 
3844 
3699 
2416 
2398 
3814 
3817 
2667 
2162 
3549 
3818 
2968 
2106 
3423 
3834 
3172 
2121 
3153 
3868 
3367 
2127 
2876 
3868 
3575 
2311 
2634 
3784 
3650 
2426 
2349 
3694 
3772 
2698 
2094 
3488 
3788 
2931 
2024 
3295 
3807 
3148 
1943 
3047 
3892 
3374 
2094 
2862 
3877 
3558 
2205 
2540 
3814 
3658 
2392 
2210 
3626 
3687 
2562 
1924 
3418 
3679 
2741 
1774 
3204 
3752 
3023 
1739 
2917 
3724 
3201 
1887 
2621 
3716 
3394 
2006 
2315 
3771 
3765 
2658 
2600 
4119 
4167 
3018 
2118 
3368 
3656 
2936 
1933 
3263 
3883 
3226 
1919 
2989 
3850 
3351 
2024 
2710 
3858 
3581 
2236 
2434 
3818 
3711 
2547 
2216 
3685 
3858 
2860 
2040 
3494 
3907 
3093 
1943 
3319 
3977 
3402 
2067 
3058 
4036 
3605 
2216 
2749 
4028 
3804 
2491 
2533 
3989 
3982 
2788 
2333 
3859 
4055 
3092 
2258 
3734 
4193 
3463 
2277 
3541 
4288 
3744 
2430 
3308 
4367 
3949 
2583 
3019 
4292 
4075 
2744 
2662 
4071 
4011 
2739 
2063 
3567 
3716 
2812 
1853 
3256 
3736 
2977 
1778 
2996 
3741 
3201 
1845 
2633 
3717 
3346 
1990 
2293 
3633 
3481 
2198 
2052 
3530 
3537 
2453 
1868 
3382 
3648 
2705 
1751 
3121 
3652 
2979 
1755 
2854 
3792 
3421 
2056 
2717 
3797 
3569 
2200 
2397 
3763 
3640 
2406 
2111 
3591 
3668 
2658 
1939 
3392 
3725 
2853 
1840 
3182 
3774 
3150 
1878 
2892 
3817 
3394 
2048 
2592 
3814 
3554 
2173 
2313 
3750 
3677 
2480 
2111 
3569 
3704 
2813 
1997 
3393 
3804 
3038 
1928 
3186 
3839 
3244 
1933 
2823 
3850 
3450 
2079 
2530 
3718 
3515 
2267 
2216 
3555 
3575 
2476 
1963 
3500 
3701 
2791 
1817 
3202 
3714 
3038 
1846 
3003 
3786 
3273 
1935 
2629 
3642 
3330 
2189 
2319 
3349 
3426 
2456 
2144 
3222 
3469 
2859 
2244 
3131 
3371 
2902 
2549 
3124 
3292 
2973 
2445 
2904 
3247 
2992 
2480 
2748 
3193 
3152 
2676 
3029 
3749 
3751 
3167 
3074 
3584 
3340 
2747 
2486 
3174 
3307 
2900 
2443 
3020 
3205 
2877 
2398 
2901 
3229 
2937 
2396 
2730 
3231 
3111 
2468 
2598 
3241 
3155 
2616 
2539 
3217 
3216 
2775 
2442 
3162 
3268 
2903 
2441 
3078 
3347 
3025 
2499 
2985 
3334 
3204 
2510 
2846 
3408 
3272 
2695 
2765 
3464 
3384 
2853 
2710 
3449 
3471 
3055 
2713 
3405 
3580 
3212 
2726 
3360 
3689 
3410 
2805 
3287 
3716 
3479 
2876 
3108 
3649 
3526 
2887 
2871 
3546 
3400 
2828 
2643 
3349 
3403 
2854 
2465 
3141 
3101 
2686 
2201 
2798 
3126 
2766 
2221 
2650 
3118 
2927 
2264 
2465 
3111 
2996 
2348 
2319 
3030 
3020 
2483 
2248 
2961 
3040 
2615 
2198 
2889 
3100 
2728 
2191 
2741 
3196 
2927 
2288 
2625 
3143 
2974 
2331 
2452 
3078 
3027 
2496 
2355 
3041 
3063 
2502 
2197 
2906 
3065 
2597 
2196 
2828 
3081 
2765 
2118 
2651 
3073 
2967 
2374 
2660 
3237 
3080 
2430 
2532 
3177 
3067 
2521 
2340 
3078 
3072 
2565 
2203 
3004 
3158 
2737 
2214 
2883 
3187 
2860 
2138 
2740 
3170 
2931 
2284 
2559 
3135 
3004 
2344 
2395 
3148 
3046 
2433 
2289 
3067 
3110 
2631 
2214 
2995 
3175 
2774 
2256 
2889 
3156 
2927 
2293 
2749 
3249 
2993 
2351 
2555 
3193 
2990 
2356 
2318 
3079 
3070 
2475 
2213 
3026 
3031 
2570 
2181 
2904 
3122 
2703 
2136 
2704 
3094 
2757 
2122 
2557 
3232 
3092 
2583 
2956 
3722 
3559 
2882 
2619 
3123 
3057 
2551 
2312 
3088 
3167 
2659 
2202 
2911 
3141 
2777 
2217 
2797 
3191 
2886 
2265 
2646 
3218 
2995 
2367 
2526 
3203 
3147 
2510 
2378 
3157 
3194 
2673 
2333 
3091 
3263 
2873 
2323 
2932 
3352 
3017 
2378 
2912 
3304 
3109 
2458 
2777 
3394 
3291 
2655 
2714 
3447 
3390 
2844 
2676 
3403 
3448 
3021 
2627 
3409 
3659 
3263 
2750 
3431 
3701 
3412 
2768 
3226 
3725 
3517 
2824 
3050 
3640 
3508 
2834 
2810 
3504 
3396 
2807 
2567 
3326 
3396 
2864 
2410 
3137 
3384 
2992 
2354 
2996 
3360 
3119 
2428 
2832 
3380 
3193 
2560 
2743 
3330 
3255 
2640 
2550 
3301 
3276 
2745 
2504 
3264 
3335 
2891 
2440 
3135 
3415 
3091 
2471 
3000 
3394 
3140 
2501 
2858 
3397 
3217 
2605 
2704 
3373 
3289 
2669 
2554 
3277 
3299 
2802 
2486 
3218 
3342 
2918 
2415 
3080 
3357 
3076 
2464 
2964 
3351 
3138 
2480 
2812 
3367 
3206 
2518 
2636 
3334 
3230 
2675 
2466 
3232 
3292 
2832 
2408 
3093 
3326 
2934 
2404 
3057 
3342 
3026 
2434 
2913 
3365 
3162 
2512 
2725 
3351 
3216 
2570 
2576 
3284 
3259 
2710 
2520 
3284 
3315 
2835 
2441 
3171 
3428 
3012 
2434 
3059 
3440 
3140 
2511 
2923 
3415 
3232 
2562 
2750 
3363 
3246 
2599 
2563 
3282 
3272 
2726 
2464 
3172 
3264 
2831 
2411 
3033 
3339 
2963 
2377 
2992 
3330 
3026 
2403 
2891 
3565 
3532 
3027 
3210 
3821 
3597 
2752 
2397 
3171 
3316 
2836 
2460 
3225 
3316 
2875 
2381 
3071 
3371 
2975 
2364 
2946 
3357 
3071 
2443 
2780 
3343 
3197 
2556 
2622 
3362 
3314 
2637 
2521 
3293 
3285 
2820 
2456 
3235 
3433 
3027 
2463 
3132 
3437 
3115 
2472 
2989 
3475 
3266 
2619 
2862 
3474 
3349 
2739 
2786 
3519 
3502 
2865 
2681 
3505 
3584 
3108 
2751 
3473 
3703 
3305 
2748 
3369 
3743 
3456 
2810 
3240 
3752 
3515 
2841 
3023 
3565 
3395 
2765 
2712 
3447 
3375 
2775 
2464 
3250 
3302 
2864 
2382 
3080 
3300 
2978 
2402 
2938 
3302 
3033 
2379 
2776 
3310 
3121 
2462 
2652 
3330 
3217 
2610 
2477 
3280 
3232 
2725 
2437 
3184 
3348 
2905 
2359 
3060 
3333 
2973 
2365 
2938 
3304 
3099 
2442 
2745 
3324 
3166 
2531 
2612 
3325 
3208 
2601 
2459 
3219 
3270 
2757 
2410 
3169 
3323 
2899 
2337 
2998 
3296 
3028 
2368 
2873 
3303 
3051 
2460 
2706 
3322 
3180 
2533 
2497 
3253 
3212 
2622 
2444 
3200 
3272 
2771 
2358 
3107 
3311 
2914 
2308 
2984 
3305 
3007 
2316 
2796 
3354 
3140 
2458 
2664 
3299 
3191 
2552 
2532 
3283 
3264 
2695 
2431 
3216 
3304 
2860 
2388 
3100 
3364 
3013 
2428 
3047 
3406 
3106 
2458 
2805 
3314 
3107 
2466 
2642 
3284 
3163 
2599 
2510 
3205 
3219 
2678 
2380 
3108 
3239 
2859 
2422 
3023 
3257 
2974 
2500 
3207 
3758 
3606 
3005 
3235 
3673 
3320 
2482 
2600 
3318 
3236 
2649 
2557 
3290 
3297 
2789 
2490 
3285 
3373 
2962 
2457 
3104 
3391 
3096 
2506 
2972 
3405 
3193 
2536 
2830 
3417 
3271 
2630 
2673 
3385 
3352 
2846 
2694 
3419 
3423 
2992 
2618 
3313 
3515 
3139 
2581 
3235 
3506 
3214 
2607 
3112 
3581 
3347 
2701 
2947 
3618 
3451 
2891 
2886 
3624 
3618 
3036 
2783 
3557 
3622 
3153 
2723 
3434 
3640 
3246 
2630 
3166 
3509 
3252 
2548 
2863 
3377 
3126 
2416 
2547 
3125 
3003 
2349 
2216 
2975 
2902 
2322 
2025 
2784 
2872 
2437 
1955 
2641 
2845 
2565 
1997 
2456 
2839 
2595 
1965 
2366 
2902 
2693 
2030 
2190 
2886 
2802 
2175 
2046 
2771 
2807 
2316 
1988 
2698 
2881 
2483 
1917 
2586 
2924 
2611 
1960 
2482 
2975 
2745 
2064 
2360 
2959 
2837 
2202 
2242 
2986 
2929 
2355 
2181 
2892 
2962 
2469 
2108 
2895 
3024 
2619 
2070 
2741 
3101 
2765 
2162 
2565 
3109 
2881 
2252 
2508 
3139 
2961 
2298 
2365 
3103 
3052 
2491 
2241 
2952 
3123 
2643 
2153 
2917 
3198 
2751 
2175 
2818 
3172 
2878 
2246 
2672 
3171 
2949 
2307 
2504 
3156 
3025 
2426 
2358 
3116 
3088 
2589 
2304 
3064 
3125 
2682 
2222 
2915 
3149 
2799 
2242 
2792 
3125 
2827 
2155 
2512 
3048 
2879 
2232 
2380 
3034 
2968 
2345 
2217 
2997 
3044 
2465 
2132 
2931 
3061 
2591 
2099 
2886 
3322 
3245 
2781 
3296 
3679 
3375 
2552 
2595 
3163 
3057 
2453 
2499 
3217 
3151 
2543 
2392 
3113 
3125 
2670 
2353 
3054 
3194 
2867 
2240 
2976 
3253 
2927 
2347 
2802 
3302 
3088 
2412 
2732 
3379 
3154 
2548 
2569 
3317 
3251 
2654 
2432 
3215 
3352 
2842 
2391 
3136 
3344 
2939 
2397 
2973 
3313 
3079 
2448 
2924 
3453 
3281 
2584 
2803 
3491 
3345 
2761 
2733 
3481 
3484 
2940 
2691 
3452 
3540 
3074 
2607 
3344 
3616 
3227 
2605 
3171 
3537 
3206 
2553 
2856 
3415 
3173 
2463 
2618 
3293 
3122 
2555 
2466 
3177 
3140 
2650 
2386 
3083 
3219 
2770 
2320 
2965 
3249 
2925 
2272 
2826 
3295 
3011 
2336 
2692 
3213 
3078 
2446 
2520 
3180 
3199 
2582 
2413 
3186 
3226 
2649 
2328 
3087 
3233 
2811 
2260 
2914 
3262 
2967 
2306 
2791 
3289 
2991 
2350 
2612 
3213 
3067 
2458 
2502 
3226 
3157 
2549 
2358 
3165 
3181 
2663 
2281 
3016 
3232 
2826 
2235 
2854 
3258 
2935 
2250 
2694 
3234 
2992 
2339 
2555 
3192 
3066 
2440 
2399 
3132 
3124 
2604 
2389 
3073 
3170 
2703 
2284 
2954 
3153 
2819 
2259 
2840 
3182 
2876 
2264 
2724 
3245 
3048 
2393 
2501 
3190 
3088 
2539 
2498 
3201 
3217 
2645 
2353 
3132 
3242 
2815 
2316 
2957 
3199 
2820 
2249 
2801 
3202 
2925 
2252 
2611 
3188 
3051 
2401 
2465 
3149 
3055 
2479 
2343 
3056 
3073 
2542 
2189 
3029 
3329 
3040 
2685 
3487 
3760 
3362 
2644 
2893 
3205 
2983 
2332 
2669 
3253 
3067 
2388 
2459 
3160 
3078 
2513 
2346 
3130 
3166 
2644 
2285 
2998 
3201 
2805 
2274 
2916 
3264 
2907 
2282 
2769 
3266 
3010 
2356 
2624 
3255 
3145 
2524 
2488 
3195 
3210 
2657 
2457 
3194 
3265 
2801 
2425 
3141 
3378 
2987 
2415 
3022 
3397 
3110 
2543 
2933 
3462 
3274 
2647 
2803 
3497 
3414 
2835 
2802 
3561 
3515 
2975 
2677 
3455 
3561 
3113 
2650 
3334 
3530 
3126 
2501 
3078 
3390 
3114 
2472 
2771 
3280 
3104 
2445 
2575 
3199 
3113 
2556 
2422 
3158 
3150 
2670 
2363 
3147 
3237 
2795 
2321 
3011 
3273 
2939 
2316 
2856 
3275 
3035 
2415 
2707 
3281 
3102 
2490 
2568 
3279 
3220 
2651 
2481 
3243 
3226 
2751 
2404 
3135 
3294 
2871 
2345 
2985 
3302 
2983 
2301 
2753 
3272 
3060 
2361 
2617 
3248 
3074 
2437 
2542 
3243 
3111 
2528 
2355 
3132 
3135 
2642 
2202 
2941 
3149 
2750 
2206 
2814 
3125 
2789 
2155 
2582 
3086 
2843 
2217 
2400 
3007 
2938 
2314 
2307 
3055 
3049 
2520 
2199 
2962 
3062 
2609 
2179 
2943 
3190 
2804 
2191 
2822 
3221 
2916 
2278 
2736 
3225 
3072 
2488 
2647 
3281 
3238 
2598 
2512 
3273 
3248 
2741 
2408 
3138 
3266 
2834 
2346 
3034 
3332 
2976 
2352 
2873 
3351 
3090 
2473 
2829 
3331 
3172 
2567 
2753 
3543 
3570 
3152 
3107 
3812 
3709 
3071 
2517 
3155 
3385 
3027 
2538 
3188 
3512 
3189 
2549 
3100 
3592 
3411 
2795 
3148 
3740 
3611 
3046 
3038 
3706 
3680 
3115 
2916 
3631 
3624 
3114 
2736 
3409 
3602 
3195 
2646 
3210 
3585 
3248 
2569 
3038 
3552 
3297 
2654 
2852 
3458 
3310 
2700 
2684 
3336 
3339 
2766 
2539 
3320 
3400 
2923 
2522 
3213 
3499 
3100 
2552 
3152 
3533 
3250 
2614 
3045 
3516 
3253 
2670 
2774 
3399 
3305 
2657 
2493 
3149 
3110 
2482 
2154 
2850 
2932 
2416 
1873 
2486 
2715 
2356 
1717 
2278 
2670 
2479 
1853 
2266 
2872 
2697 
2115 
2274 
3031 
2906 
2307 
2192 
2997 
3028 
2476 
2165 
2925 
3039 
2584 
2085 
2820 
3101 
2774 
2152 
2634 
3118 
2912 
2224 
2515 
3095 
2949 
2329 
2419 
3099 
3045 
2430 
2237 
3010 
3057 
2588 
2165 
2924 
3095 
2605 
2105 
2717 
3105 
2772 
2141 
2572 
3075 
2852 
2162 
2407 
2970 
2853 
2196 
2219 
2932 
2844 
2253 
2020 
2750 
2827 
2327 
1876 
2659 
2855 
2512 
1947 
2577 
2946 
2657 
1994 
2389 
2930 
2691 
2071 
2274 
2923 
2839 
2230 
2180 
2919 
2926 
2329 
2128 
2869 
2981 
2535 
2069 
2749 
3031 
2672 
2094 
2654 
3019 
2721 
2050 
2425 
2953 
2767 
2130 
2246 
2922 
2846 
2303 
2176 
2905 
2949 
2447 
2147 
2860 
3006 
2577 
2116 
2787 
3038 
2730 
2260 
2961 
3512 
3385 
2756 
2965 
3454 
3037 
2216 
2306 
3056 
3003 
2394 
2161 
2843 
2884 
2392 
2020 
2737 
2886 
2518 
1957 
2643 
3040 
2714 
2017 
2546 
3060 
2870 
2165 
2376 
3082 
2939 
2280 
2309 
3021 
3015 
2438 
2219 
3009 
3065 
2593 
2200 
2926 
3096 
2734 
2227 
2852 
3194 
2878 
2269 
2764 
3268 
3046 
2462 
2696 
3313 
3228 
2628 
2592 
3364 
3360 
2817 
2588 
3360 
3466 
3001 
2580 
3239 
3480 
3162 
2590 
3147 
3443 
3151 
2482 
2813 
3380 
3135 
2470 
2557 
3154 
3026 
2405 
2310 
3019 
3017 
2482 
2170 
2919 
3025 
2575 
2077 
2723 
3013 
2686 
2087 
2557 
2989 
2755 
2050 
2374 
2968 
2771 
2125 
2231 
2935 
2810 
2249 
2090 
2807 
2883 
2414 
1992 
2778 
2902 
2483 
1973 
2608 
2919 
2551 
1923 
2475 
2937 
2664 
1965 
2253 
2852 
2665 
2070 
2111 
2835 
2776 
2152 
1952 
2745 
2861 
2371 
1947 
2658 
2863 
2468 
1909 
2483 
2819 
2554 
1957 
2362 
2893 
2647 
1942 
2228 
2830 
2709 
2049 
2036 
2784 
2820 
2264 
1945 
2734 
2827 
2376 
1958 
2628 
2845 
2516 
1940 
2529 
2918 
2637 
1972 
2427 
2968 
2753 
2111 
2263 
2927 
2869 
2272 
2200 
2910 
2960 
2497 
2119 
2861 
3054 
2589 
2056 
2796 
3064 
2717 
2129 
2633 
3063 
2788 
2116 
2427 
2997 
2841 
2163 
2253 
2972 
2923 
2313 
2122 
2874 
2885 
2395 
2040 
2775 
2925 
2485 
1898 
2601 
3032 
2829 
2413 
2972 
3425 
3160 
2354 
2403 
2828 
2741 
2150 
2227 
2888 
2844 
2263 
2068 
2827 
2925 
2454 
1965 
2759 
2947 
2536 
2032 
2658 
2976 
2730 
2077 
2479 
3010 
2771 
2150 
2322 
2993 
2837 
2229 
2242 
2982 
2940 
2409 
2196 
2920 
3070 
2580 
2124 
2838 
3128 
2730 
2134 
2727 
3089 
2810 
2216 
2636 
3156 
2995 
2307 
2490 
3192 
3160 
2564 
2508 
3249 
3288 
2753 
2426 
3212 
3345 
2911 
2434 
3117 
3410 
3045 
2396 
2917 
3347 
3022 
2334 
2646 
3165 
2956 
2231 
2412 
3137 
2982 
2310 
2200 
2926 
3004 
2450 
2078 
2854 
2976 
2573 
2049 
2718 
3027 
2693 
2051 
2582 
2993 
2742 
2121 
2453 
3009 
2837 
2223 
2298 
2991 
2958 
2372 
2155 
2952 
2971 
2459 
2125 
2851 
3014 
2631 
2063 
2713 
3042 
2734 
2115 
2598 
3060 
2852 
2198 
2481 
3064 
2904 
2275 
2259 
2997 
2993 
2440 
2216 
2981 
3042 
2563 
2146 
2861 
3052 
2679 
2115 
2712 
3076 
2793 
2192 
2583 
3068 
2860 
2209 
2399 
3067 
2983 
2368 
2248 
2997 
2992 
2462 
2150 
2898 
3037 
2585 
2075 
2772 
3014 
2626 
2036 
2611 
3072 
2736 
2076 
2452 
2954 
2855 
2210 
2278 
3040 
2876 
2248 
2186 
2905 
2903 
2400 
2053 
2828 
2972 
2575 
2037 
2684 
2973 
2655 
2056 
2575 
3013 
2789 
2121 
2360 
2960 
2810 
2085 
2093 
2849 
2761 
2192 
1947 
2662 
2739 
2234 
1857 
2601 
2786 
2375 
1840 
2527 
2804 
2466 
1836 
2472 
3160 
3118 
2564 
2849 
3369 
3119 
2254 
2095 
2834 
2818 
2328 
2123 
2847 
2889 
2417 
2025 
2755 
2958 
2613 
2032 
2645 
2967 
2725 
2092 
2506 
3092 
2900 
2223 
2406 
3046 
2919 
2349 
2326 
3042 
3034 
2514 
2242 
2997 
3141 
2654 
2214 
2925 
3194 
2810 
2206 
2825 
3252 
3001 
2333 
2688 
3234 
3101 
2429 
2597 
3283 
3185 
2590 
2484 
3257 
3266 
2793 
2486 
3252 
3385 
2978 
2483 
3145 
3427 
3084 
2469 
3054 
3430 
3169 
2467 
2725 
3289 
3107 
2421 
2498 
3102 
2972 
2411 
2262 
2991 
2991 
2486 
2121 
2824 
3005 
2582 
2068 
2703 
2990 
2688 
2104 
2609 
3065 
2831 
2155 
2393 
3049 
2887 
2283 
2330 
3067 
3058 
2466 
2201 
2938 
3054 
2587 
2182 
2920 
3103 
2750 
2162 
2792 
3112 
2834 
2251 
2681 
3160 
2965 
2297 
2540 
3175 
3057 
2428 
2411 
3152 
3178 
2591 
2364 
3101 
3198 
2778 
2342 
2959 
3304 
2918 
2286 
2851 
3276 
3010 
2433 
2840 
3343 
3129 
2518 
2728 
3396 
3284 
2678 
2630 
3324 
3302 
2870 
2525 
3251 
3396 
2953 
2432 
3127 
3409 
3046 
2467 
3014 
3379 
3191 
2567 
2882 
3453 
3219 
2563 
2650 
3340 
3284 
2648 
2530 
3277 
3293 
2855 
2445 
3164 
3308 
2918 
2370 
3013 
3308 
2968 
2377 
2858 
3244 
2946 
2255 
2511 
3114 
2908 
2303 
2359 
3035 
2983 
2371 
2149 
2929 
2958 
2385 
2047 
2776 
2911 
2523 
1922 
2574 
3015 
2857 
2400 
2984 
3466 
3215 
2450 
2537 
2923 
2712 
2140 
2184 
2881 
2878 
2316 
2075 
2827 
2921 
2501 
2036 
2697 
2962 
2634 
2099 
2736 
3132 
2883 
2196 
2603 
3089 
2939 
2304 
2520 
3198 
3061 
2425 
2392 
3153 
3156 
2580 
2300 
3097 
3134 
2711 
2206 
2910 
3228 
2832 
2268 
2875 
3292 
2998 
2420 
2785 
3315 
3155 
2535 
2693 
3373 
3278 
2699 
2653 
3361 
3414 
2944 
2612 
3384 
3519 
3065 
2558 
3247 
3541 
3119 
2558 
3080 
3447 
3141 
2462 
2775 
3342 
3122 
2420 
2447 
3134 
3027 
2401 
2262 
2955 
2963 
2476 
2075 
2839 
3024 
2572 
1989 
2687 
2913 
2666 
2008 
2475 
2930 
2704 
2015 
2282 
2871 
2738 
2098 
2108 
2806 
2775 
2195 
1964 
2736 
2777 
2305 
1937 
2633 
2782 
2434 
1912 
2523 
2840 
2564 
1907 
2340 
2833 
2613 
1912 
2116 
2805 
2677 
2022 
1992 
2750 
2630 
2104 
1896 
2653 
2747 
2254 
1814 
2519 
2754 
2366 
1774 
2385 
2749 
2494 
1897 
2259 
2741 
2577 
1902 
2080 
2750 
2649 
2000 
1958 
2714 
2725 
2184 
1855 
2685 
2743 
2328 
1888 
2549 
2767 
2483 
1873 
2376 
2759 
2588 
1900 
2266 
2809 
2597 
1949 
2082 
2781 
2670 
2112 
1941 
2707 
2712 
2260 
1927 
2605 
2777 
2344 
1839 
2520 
2835 
2548 
1884 
2377 
2851 
2616 
1938 
2247 
2845 
2675 
2057 
2103 
2731 
2671 
2151 
1867 
2592 
2687 
2235 
1835 
2592 
2768 
2354 
1793 
2427 
2809 
2453 
1787 
2232 
2710 
2506 
1906 
2271 
3034 
3090 
2578 
2634 
3335 
3162 
2403 
1936 
2721 
2833 
2383 
1945 
2586 
2796 
2457 
1884 
2468 
2770 
2544 
1923 
2354 
2857 
2647 
2011 
2202 
2827 
2716 
2131 
2063 
2753 
2788 
2279 
1989 
2712 
2817 
2415 
1952 
2656 
2910 
2545 
1951 
2518 
2924 
2622 
1985 
2367 
2925 
2811 
2110 
2250 
2926 
2857 
2301 
2217 
2931 
2890 
2445 
2121 
2905 
3054 
2649 
2130 
2813 
3138 
2833 
2192 
2742 
3183 
2969 
2313 
2644 
3258 
3041 
2331 
2428 
3079 
2954 
2370 
2173 
2824 
2877 
2389 
1983 
2644 
2847 
2427 
1859 
2531 
2867 
2517 
1903 
2351 
2824 
2590 
1925 
2223 
2826 
2684 
2037 
2043 
2768 
2714 
2146 
1942 
2702 
2749 
2316 
1889 
2553 
2778 
2408 
1888 
2473 
2790 
2502 
1860 
2331 
2799 
2561 
1926 
2139 
2794 
2666 
2040 
1973 
2753 
2728 
2142 
1870 
2666 
2768 
2309 
1816 
2510 
2789 
2424 
1830 
2388 
2765 
2452 
1869 
2280 
2790 
2571 
1946 
2086 
2730 
2643 
2049 
1954 
2681 
2642 
2188 
1864 
2605 
2748 
2254 
1769 
2470 
2767 
2413 
1796 
2340 
2713 
2488 
1840 
2195 
2744 
2586 
1920 
2064 
2697 
2612 
2025 
1916 
2640 
2674 
2168 
1885 
2577 
2703 
2232 
1774 
2418 
2750 
2445 
1829 
2309 
2792 
2557 
1909 
2189 
2779 
2643 
2049 
2064 
2754 
2683 
2070 
1832 
2600 
2666 
2164 
1762 
2496 
2674 
2273 
1759 
2338 
2674 
2433 
1752 
2197 
2701 
2488 
1807 
2001 
2713 
2722 
2232 
2392 
3193 
3184 
2510 
2141 
2735 
2620 
2149 
1788 
2487 
2739 
2380 
1761 
2326 
2676 
2405 
1769 
2191 
2706 
2520 
1872 
2075 
2659 
2541 
1987 
1933 
2656 
2617 
2095 
1850 
2546 
2670 
2228 
1777 
2484 
2710 
2359 
1770 
2345 
2758 
2499 
1845 
2153 
2732 
2635 
2000 
2081 
2757 
2703 
2101 
1962 
2733 
2778 
2290 
1998 
2680 
2859 
2494 
2010 
2665 
2904 
2625 
2055 
2599 
3022 
2785 
2123 
2462 
3031 
2863 
2241 
2277 
2915 
2816 
2259 
2107 
2769 
2752 
2225 
1782 
2488 
2667 
2255 
1633 
2306 
2657 
2353 
1670 
2122 
2599 
2413 
1681 
1905 
2576 
2469 
1841 
1828 
2553 
2492 
1917 
1678 
2440 
2521 
2083 
1647 
2400 
2585 
2204 
1664 
2210 
2548 
2331 
1669 
2091 
2618 
2381 
1724 
1929 
2575 
2421 
1796 
1727 
2482 
2529 
1974 
1709 
2434 
2556 
2105 
1603 
2280 
2560 
2205 
1629 
2251 
2604 
2310 
1635 
2030 
2570 
2379 
1715 
1868 
2497 
2368 
1812 
1723 
2442 
2463 
2016 
1623 
2392 
2539 
2093 
1634 
2336 
2565 
2208 
1566 
2124 
2532 
2260 
1644 
1963 
2587 
2400 
1727 
1753 
2494 
2435 
1862 
1690 
2473 
2555 
2018 
1619 
2377 
2564 
2168 
1622 
2253 
2606 
2323 
1664 
2173 
2609 
2363 
1719 
1966 
2582 
2391 
1767 
1762 
2474 
2407 
1872 
1663 
2412 
2469 
1997 
1625 
2293 
2499 
2127 
1579 
2190 
2559 
2236 
1506 
1973 
2598 
2480 
2011 
2391 
3079 
2941 
2254 
2090 
2607 
2429 
1889 
1721 
2465 
2558 
2096 
1595 
2299 
2516 
2195 
1604 
2186 
2534 
2254 
1599 
2018 
2547 
2350 
1694 
1871 
2561 
2494 
1827 
1726 
2525 
2514 
1968 
1658 
2400 
2517 
2128 
1658 
2296 
2550 
2225 
1705 
2250 
2666 
2422 
1714 
2042 
2611 
2498 
1856 
2004 
2656 
2573 
2001 
1874 
2618 
2722 
2237 
1889 
2648 
2817 
2444 
1905 
2552 
2887 
2576 
1990 
2489 
2954 
2729 
2060 
2292 
2844 
2663 
1940 
1964 
2673 
2544 
1988 
1789 
2449 
2523 
2048 
1609 
2321 
2505 
2039 
1528 
2185 
2512 
2156 
1525 
2026 
2499 
2252 
1560 
1859 
2432 
2358 
1699 
1712 
2434 
2383 
1825 
1595 
2358 
2484 
2031 
1535 
2235 
2470 
2095 
1560 
2153 
2518 
2223 
1575 
2005 
2516 
2302 
1647 
1859 
2491 
2357 
1766 
1721 
2502 
2462 
1888 
1595 
2397 
2468 
2026 
1584 
2263 
2501 
2167 
1532 
2151 
2545 
2241 
1594 
1958 
2523 
2377 
1694 
1826 
2465 
2366 
1762 
1654 
2402 
2454 
1969 
1597 
2296 
2408 
2009 
1547 
2169 
2457 
2132 
1513 
2041 
2480 
2221 
1540 
1892 
2492 
2270 
1638 
1681 
2426 
2371 
1751 
1613 
2367 
2379 
1837 
1472 
2248 
2448 
2048 
1470 
2187 
2483 
2152 
1551 
2023 
2510 
2334 
1619 
1793 
2436 
2349 
1662 
1724 
2417 
2345 
1745 
1546 
2312 
2363 
1858 
1452 
2176 
2416 
2018 
1385 
2072 
2381 
2060 
1430 
1850 
2320 
2099 
1520 
1856 
2636 
2698 
2201 
2151 
2845 
2729 
1965 
1484 
2255 
2385 
1900 
1450 
2168 
2348 
1976 
1378 
1967 
2349 
2070 
1391 
1764 
2328 
2151 
1437 
1607 
2276 
2180 
1595 
1524 
2236 
2233 
1715 
1422 
2178 
2273 
1825 
1318 
2047 
2342 
1966 
1361 
1929 
2396 
2062 
1378 
1749 
2341 
2153 
1500 
1651 
2346 
2288 
1689 
1601 
2340 
2353 
1903 
1579 
2306 
2424 
2050 
1582 
2247 
2540 
2208 
1651 
2129 
2592 
2377 
1687 
1983 
2557 
2402 
1779 
1803 
2438 
2365 
1765 
1486 
2209 
2079 
1541 
1113 
1842 
2014 
1613 
1038 
1686 
2024 
1681 
1121 
1584 
2052 
1839 
1137 
1407 
2065 
1946 
1291 
1236 
1974 
1931 
1429 
1179 
1948 
2023 
1555 
1120 
1840 
2065 
1713 
1089 
1706 
2067 
1779 
1115 
1560 
2142 
1953 
1232 
1421 
2283 
2192 
1501 
1447 
2223 
2171 
1568 
1280 
2061 
2163 
1751 
1221 
1900 
2211 
1853 
1177 
1779 
2223 
1941 
1245 
1670 
2277 
2002 
1274 
1462 
2177 
2061 
1469 
1370 
2103 
2126 
1612 
1241 
2012 
2177 
1747 
1204 
1874 
2223 
1864 
1232 
1759 
2272 
2006 
1296 
1660 
2264 
2081 
1442 
1532 
2284 
2227 
1629 
1444 
2274 
2328 
1826 
1422 
2202 
2419 
1984 
1456 
2120 
2457 
2140 
1504 
2023 
2471 
2268 
1607 
1907 
2541 
2354 
1681 
1703 
2403 
2396 
1842 
1578 
2356 
2435 
1935 
1445 
2209 
2427 
2068 
1488 
2091 
2429 
2117 
1478 
1892 
2377 
2208 
1570 
1890 
2761 
2859 
2274 
2183 
2802 
2636 
1863 
1443 
2271 
2419 
1969 
1449 
2085 
2348 
1994 
1351 
1912 
2330 
2038 
1385 
1749 
2305 
2080 
1411 
1552 
2253 
2142 
1516 
1421 
2154 
2210 
1635 
1322 
2060 
2190 
1766 
1229 
1970 
2197 
1874 
1251 
1787 
2266 
1988 
1316 
1665 
2215 
2050 
1405 
1517 
2248 
2246 
1615 
1488 
2311 
2328 
1834 
1442 
2250 
2416 
1986 
1456 
2161 
2513 
2209 
1556 
2081 
2535 
2328 
1592 
1877 
2519 
2324 
1596 
1526 
2177 
2063 
1484 
1212 
1941 
1990 
1477 
1035 
1775 
1986 
1566 
1024 
1669 
2045 
1669 
1030 
1516 
1986 
1730 
1103 
1344 
2001 
1849 
1237 
1214 
1982 
1935 
1342 
1104 
1939 
2003 
1554 
1138 
1827 
1998 
1680 
1079 
1727 
2096 
1823 
1155 
1534 
2122 
2057 
1445 
1611 
2324 
2131 
1459 
1390 
2204 
2207 
1643 
1294 
2054 
2174 
1705 
1270 
1966 
2216 
1831 
1204 
1781 
2217 
1939 
1272 
1632 
2192 
2022 
1345 
1471 
2156 
2047 
1436 
1319 
2059 
2068 
1565 
1190 
1917 
2087 
1657 
1093 
1792 
2125 
1780 
1108 
1624 
2102 
1855 
1156 
1498 
2098 
1888 
1220 
1332 
2044 
1957 
1380 
1230 
1974 
2017 
1529 
1126 
1845 
1974 
1603 
1039 
1657 
2001 
1658 
960 
1474 
1977 
1731 
1024 
1257 
1914 
1798 
1075 
1126 
1906 
1849 
1263 
1061 
1779 
1815 
1405 
1088 
1932 
2307 
2031 
1433 
2057 
2344 
1795 
912 
1354 
1988 
1786 
1128 
1344 
1990 
1827 
1217 
1188 
1950 
1950 
1356 
1071 
1858 
2002 
1489 
1025 
1759 
2003 
1683 
1057 
1674 
2080 
1809 
1155 
1605 
2132 
1960 
1310 
1481 
2156 
2065 
1498 
1380 
2170 
2162 
1672 
1338 
2107 
2269 
1865 
1352 
2051 
2334 
2055 
1466 
1927 
2396 
2192 
1592 
1932 
2540 
2422 
1733 
1834 
2560 
2531 
1941 
1797 
2559 
2574 
2080 
1625 
2261 
2378 
1943 
1387 
2017 
2326 
1946 
1218 
1705 
2218 
1938 
1276 
1531 
2180 
1980 
1313 
1312 
2062 
1996 
1375 
1179 
1984 
2044 
1549 
1113 
1863 
2051 
1613 
1092 
1740 
2128 
1864 
1151 
1606 
2163 
1934 
1225 
1447 
2144 
2025 
1357 
1288 
2110 
2222 
1726 
1387 
2181 
2255 
1790 
1287 
2022 
2267 
1909 
1235 
1848 
2249 
1922 
1260 
1649 
2224 
2019 
1298 
1468 
2181 
2114 
1436 
1313 
2161 
2181 
1616 
1256 
2030 
2250 
1776 
1209 
1926 
2253 
1902 
1203 
1764 
2274 
2007 
1239 
1628 
2286 
2109 
1407 
1460 
2234 
2179 
1515 
1317 
2164 
2155 
1655 
1301 
2123 
2330 
1799 
1248 
2014 
2325 
1965 
1332 
1854 
2405 
2181 
1452 
1756 
2463 
2387 
1604 
1632 
2464 
2420 
1758 
1530 
2453 
2525 
1947 
1473 
2235 
2506 
2023 
1376 
2109 
2449 
2135 
1435 
1934 
2494 
2215 
1461 
1741 
2477 
2340 
1615 
1559 
2359 
2292 
1696 
1493 
2511 
2767 
2397 
2011 
2785 
2936 
2363 
1475 
1991 
2528 
2189 
1383 
1841 
2399 
2188 
1412 
1608 
2388 
2229 
1459 
1332 
2194 
2231 
1604 
1222 
2095 
2241 
1721 
1157 
1937 
2236 
1895 
1166 
1768 
2277 
2004 
1256 
1591 
2236 
2097 
1341 
1453 
2263 
2209 
1498 
1343 
2194 
2279 
1692 
1273 
2140 
2320 
1874 
1320 
2095 
2405 
2041 
1330 
1959 
2511 
2243 
1504 
1838 
2515 
2346 
1567 
1490 
2385 
2289 
1624 
1439 
2302 
2371 
1773 
1303 
2152 
2345 
1787 
1153 
1847 
2211 
1857 
1101 
1614 
2150 
1936 
1141 
1427 
2131 
1949 
1200 
1173 
2070 
2038 
1364 
1121 
1966 
2062 
1542 
1046 
1818 
2034 
1640 
1015 
1698 
2117 
1782 
1044 
1550 
2171 
1919 
1147 
1385 
2102 
2051 
1513 
1434 
2298 
2233 
1603 
1181 
2053 
2266 
1759 
1164 
1972 
2255 
1857 
1164 
1839 
2282 
1969 
1219 
1602 
2310 
2038 
1281 
1460 
2239 
2143 
1459 
1273 
2162 
2158 
1611 
1225 
2101 
2220 
1729 
1161 
1927 
2244 
1895 
1199 
1743 
2286 
1993 
1217 
1581 
2278 
2089 
1313 
1425 
2234 
2169 
1522 
1273 
2115 
2184 
1688 
1252 
2054 
2284 
1804 
1169 
1952 
2319 
1971 
1255 
1793 
2339 
2088 
1327 
1649 
2337 
2185 
1468 
1505 
2395 
2338 
1690 
1425 
2275 
2388 
1835 
1323 
2129 
2348 
1884 
1203 
1912 
2362 
2047 
1279 
1794 
2432 
2177 
1391 
1653 
2466 
2369 
1639 
1563 
2418 
2479 
1773 
1482 
2475 
2743 
2358 
2034 
2928 
3227 
2774 
1959 
2391 
2720 
2453 
1747 
2220 
2806 
2625 
1887 
2009 
2786 
2701 
2006 
1863 
2763 
2798 
2160 
1810 
2656 
2768 
2294 
1717 
2518 
2873 
2467 
1721 
2323 
2856 
2628 
1798 
2083 
2826 
2715 
1965 
2060 
2823 
2737 
2086 
1940 
2812 
2837 
2263 
1813 
2697 
2891 
2356 
1731 
2564 
2946 
2516 
1779 
2422 
2969 
2677 
1923 
2188 
2910 
2804 
1993 
1913 
2727 
2673 
2036 
1833 
2709 
2759 
2191 
1709 
2561 
2773 
2275 
1545 
2206 
2644 
2252 
1498 
1976 
2564 
2275 
1479 
1754 
2472 
2317 
1561 
1563 
2439 
2407 
1749 
1432 
2307 
2433 
1893 
1337 
2165 
2453 
2033 
1363 
2016 
2439 
2121 
1351 
1820 
2467 
2214 
1415 
1693 
2604 
2455 
1753 
1589 
2495 
2485 
1849 
1474 
2284 
2420 
1922 
1315 
2132 
2399 
1966 
1237 
1882 
2345 
2019 
1232 
1620 
2267 
2078 
1325 
1362 
2183 
2111 
1356 
1247 
2155 
2100 
1525 
1084 
1944 
2121 
1651 
1049 
1795 
2142 
1752 
1049 
1608 
2149 
1865 
1126 
1523 
2158 
2018 
1306 
1318 
2198 
2063 
1437 
1263 
2145 
2223 
1673 
1196 
2049 
2244 
1770 
1134 
1875 
2280 
1948 
1211 
1736 
2332 
2074 
1273 
1531 
2273 
2104 
1322 
1304 
2169 
2153 
1443 
1132 
2015 
2147 
1607 
1084 
1901 
2159 
1731 
1107 
1794 
2173 
1826 
1086 
1561 
2221 
1922 
1150 
1402 
2287 
2261 
1705 
1777 
2662 
2535 
1821 
1356 
1994 
2123 
1683 
1137 
1964 
2257 
1833 
1107 
1775 
2225 
1906 
1190 
1626 
2245 
2064 
1319 
1405 
2266 
2215 
1477 
1311 
2226 
2291 
1667 
1231 
2134 
2345 
1900 
1258 
2043 
2419 
2027 
1270 
1907 
2459 
2156 
1407 
1769 
2429 
2291 
1572 
1607 
2468 
2379 
1718 
1549 
2424 
2499 
1937 
1465 
2311 
2589 
2176 
1545 
2341 
2722 
2401 
1625 
2000 
2560 
2325 
1596 
1889 
2605 
2424 
1664 
1656 
2435 
2380 
1690 
1354 
2204 
2304 
1719 
1142 
1926 
2261 
1810 
1111 
1819 
2243 
1910 
1093 
1611 
2220 
1938 
1208 
1407 
2136 
1980 
1290 
1199 
2053 
2042 
1392 
1041 
1961 
2099 
1548 
953 
1789 
2110 
1698 
999 
1604 
2083 
1824 
1061 
1626 
2316 
2069 
1301 
1409 
2235 
2137 
1395 
1226 
2073 
2133 
1545 
1135 
2004 
2217 
1719 
1135 
1946 
2306 
1922 
1200 
1805 
2379 
2097 
1383 
1722 
2372 
2235 
1511 
1575 
2488 
2407 
1735 
1569 
2437 
2514 
1935 
1467 
2332 
2556 
2125 
1557 
2210 
2609 
2238 
1503 
2040 
2593 
2338 
1566 
1833 
2595 
2403 
1662 
1703 
2537 
2493 
1810 
1521 
2373 
2453 
1948 
1394 
2268 
2507 
2091 
1453 
2129 
2590 
2259 
1514 
1955 
2580 
2359 
1606 
1796 
2516 
2388 
1697 
1587 
2411 
2387 
1725 
1370 
2280 
2420 
1864 
1338 
2101 
2421 
1995 
1295 
1949 
2393 
2115 
1377 
1744 
2291 
2125 
1541 
1773 
2685 
2777 
2151 
1926 
2693 
2538 
1721 
1290 
2205 
2381 
1885 
1210 
1956 
2286 
1906 
1187 
1763 
2302 
2018 
1223 
1531 
2215 
2046 
1332 
1367 
2225 
2203 
1511 
1268 
2108 
2216 
1649 
1228 
2030 
2214 
1810 
1159 
1838 
2246 
1906 
1238 
1735 
2280 
2004 
1296 
1568 
2299 
2166 
1481 
1451 
2272 
2297 
1677 
1452 
2342 
2396 
1856 
1414 
2241 
2493 
2098 
1462 
2053 
2351 
2114 
1352 
1795 
2490 
2325 
1567 
1769 
2466 
2346 
1636 
1535 
2322 
2250 
1607 
1274 
2056 
2143 
1657 
1118 
1844 
2119 
1750 
1067 
1675 
2091 
1836 
1164 
1508 
2127 
1956 
1242 
1337 
2049 
1966 
1317 
1184 
2026 
2035 
1442 
1072 
1923 
2132 
1646 
1074 
1852 
2149 
1753 
1107 
1860 
2435 
2131 
1367 
1749 
2343 
2134 
1414 
1493 
2238 
2172 
1564 
1383 
2174 
2197 
1724 
1281 
2045 
2225 
1820 
1245 
1929 
2246 
1929 
1262 
1746 
2223 
2040 
1292 
1543 
2251 
2088 
1370 
1370 
2142 
2087 
1491 
1257 
2066 
2174 
1682 
1176 
1964 
2214 
1804 
1137 
1823 
2251 
1908 
1232 
1659 
2200 
1994 
1292 
1499 
2190 
2064 
1422 
1371 
2142 
2149 
1601 
1275 
2110 
2190 
1695 
1233 
1939 
2219 
1831 
1158 
1778 
2277 
1943 
1236 
1639 
2173 
2029 
1368 
1521 
2249 
2126 
1482 
1373 
2227 
2205 
1634 
1261 
2056 
2189 
1782 
1205 
1929 
2224 
1788 
1159 
1738 
2207 
1962 
1252 
1564 
2203 
2027 
1398 
1468 
2202 
2078 
1423 
1282 
2174 
2361 
2042 
1841 
2655 
2789 
2221 
1486 
1979 
2256 
1938 
1278 
1773 
2261 
2003 
1330 
1561 
2235 
2127 
1450 
1520 
2263 
2157 
1586 
1346 
2167 
2262 
1690 
1259 
2086 
2276 
1887 
1281 
1899 
2299 
2023 
1328 
1784 
2332 
2149 
1428 
1684 
2320 
2198 
1601 
1531 
2303 
2286 
1716 
1426 
2247 
2363 
1911 
1406 
2190 
2455 
2045 
1427 
2076 
2517 
2252 
1565 
1989 
2560 
2352 
1526 
1689 
2392 
2302 
1697 
1572 
2383 
2370 
1817 
1481 
2258 
2340 
1842 
1275 
1943 
2205 
1803 
1131 
1645 
2124 
1848 
1111 
1417 
2008 
1836 
1167 
1219 
1967 
1932 
1325 
1089 
1921 
1985 
1422 
1006 
1812 
2018 
1524 
920 
1653 
1990 
1619 
1001 
1522 
2062 
1840 
1125 
1354 
2080 
2048 
1383 
1398 
2197 
2109 
1516 
1222 
2051 
2155 
1610 
1183 
1892 
2111 
1731 
1058 
1718 
2188 
1803 
1115 
1605 
2185 
1927 
1191 
1431 
2210 
2013 
1325 
1352 
2138 
2074 
1486 
1183 
2055 
2211 
1690 
1139 
1955 
2230 
1777 
1122 
1747 
2269 
1965 
1215 
1627 
2247 
2090 
1365 
1515 
2262 
2149 
1471 
1318 
2152 
2172 
1589 
1172 
2028 
2200 
1727 
1178 
1851 
2245 
1866 
1156 
1764 
2248 
1962 
1268 
1679 
2318 
2098 
1364 
1488 
2270 
2234 
1551 
1268 
2153 
2189 
1615 
1210 
2082 
2318 
1824 
1199 
1970 
2334 
2007 
1303 
1828 
2413 
2181 
1451 
1768 
2437 
2266 
1563 
1734 
2664 
2750 
2259 
2027 
2846 
2817 
2067 
1327 
2185 
2518 
2093 
1460 
2173 
2552 
2202 
1443 
1914 
2546 
2288 
1501 
1738 
2500 
2436 
1655 
1562 
2487 
2448 
1813 
1501 
2359 
2517 
1981 
1413 
2279 
2543 
2102 
1386 
2057 
2565 
2239 
1427 
1886 
2489 
2302 
1557 
1728 
2469 
2375 
1635 
1509 
2364 
2396 
1837 
1460 
2276 
2439 
1946 
1270 
1927 
2142 
1644 
819 
1367 
1867 
1587 
810 
1168 
1840 
1489 
692 
759 
1616 
1545 
867 
622 
1466 
1535 
963 
478 
1348 
1514 
997 
315 
1057 
1507 
1145 
383 
904 
1504 
1239 
509 
783 
1511 
1361 
611 
600 
1511 
1463 
818 
574 
1449 
1543 
977 
465 
1367 
1589 
1143 
475 
1194 
1658 
1359 
651 
1108 
1856 
1646 
940 
1090 
1838 
1744 
1038 
926 
1789 
1763 
1090 
794 
1701 
1808 
1297 
717 
1497 
1824 
1469 
749 
1398 
1887 
1570 
766 
1215 
1896 
1707 
916 
1044 
1857 
1754 
1061 
921 
1782 
1814 
1213 
834 
1674 
1855 
1339 
722 
1544 
1949 
1521 
768 
1390 
1937 
1666 
875 
1203 
1892 
1735 
1005 
1067 
1894 
1792 
1108 
913 
1790 
1856 
1319 
823 
1666 
1882 
1442 
822 
1556 
1972 
1592 
912 
1449 
2004 
1724 
877 
1222 
1942 
1769 
1008 
1032 
1881 
1835 
1122 
866 
1738 
1799 
1286 
790 
1617 
1879 
1428 
764 
1471 
1937 
1561 
736 
1247 
1926 
1802 
1224 
1620 
2529 
2334 
1561 
1378 
2054 
1865 
1234 
943 
1841 
1971 
1347 
829 
1611 
1954 
1569 
829 
1476 
1947 
1662 
931 
1337 
1986 
1728 
1013 
1189 
1992 
1891 
1132 
995 
1953 
2002 
1327 
898 
1804 
1974 
1521 
949 
1716 
2029 
1614 
892 
1539 
2067 
1802 
995 
1374 
2095 
1853 
1127 
1184 
2023 
1958 
1293 
1055 
1986 
2082 
1526 
1064 
1903 
2156 
1735 
1099 
1846 
2247 
1926 
1161 
1667 
2118 
1801 
1038 
1346 
2118 
1912 
1111 
1104 
1862 
1813 
1182 
882 
1726 
1844 
1294 
767 
1581 
1835 
1417 
710 
1404 
1862 
1549 
834 
1313 
1842 
1648 
938 
1187 
1915 
1761 
1067 
1012 
1847 
1854 
1239 
914 
1819 
1953 
1418 
865 
1650 
1972 
1697 
1110 
1708 
2221 
1854 
1078 
1518 
2175 
1971 
1221 
1312 
2162 
2024 
1350 
1210 
2078 
2078 
1398 
1016 
1887 
2105 
1582 
995 
1749 
2086 
1702 
961 
1526 
2054 
1806 
1084 
1438 
2130 
1976 
1240 
1291 
2096 
1995 
1293 
1118 
2011 
2053 
1486 
1033 
1861 
2036 
1594 
975 
1737 
2072 
1740 
1018 
1508 
2027 
1760 
1058 
1373 
2035 
1880 
1171 
1159 
1978 
1945 
1324 
1039 
1904 
2024 
1518 
998 
1851 
2145 
1749 
1058 
1745 
2211 
1917 
1107 
1567 
2212 
2015 
1231 
1433 
2230 
2091 
1372 
1284 
2128 
2113 
1544 
1204 
2030 
2114 
1605 
1088 
1860 
2161 
1768 
1044 
1690 
2224 
1850 
1106 
1499 
2190 
2020 
1260 
1335 
2156 
2205 
1625 
1709 
2709 
2758 
2099 
1619 
2291 
2238 
1772 
1226 
1949 
2270 
1880 
1179 
1742 
2263 
1967 
1230 
1597 
2258 
2065 
1372 
1432 
2224 
2195 
1553 
1301 
2148 
2219 
1668 
1182 
1995 
2255 
1812 
1228 
1924 
2299 
1964 
1234 
1737 
2317 
2066 
1345 
1594 
2297 
2163 
1464 
1419 
2213 
2287 
1660 
1388 
2239 
2346 
1807 
1281 
2083 
2341 
1905 
1242 
1922 
2326 
2025 
1342 
1797 
2380 
2158 
1396 
1524 
2279 
2217 
1624 
1574 
2336 
2262 
1595 
1253 
2063 
2175 
1680 
1095 
1828 
2079 
1703 
1029 
1609 
2036 
1808 
1070 
1418 
2050 
1895 
1233 
1327 
2086 
1983 
1363 
1183 
2018 
2026 
1455 
1076 
1898 
2056 
1642 
1076 
1759 
2121 
1777 
1072 
1584 
2153 
2068 
1386 
1662 
2273 
2113 
1443 
1477 
2257 
2193 
1569 
1355 
2142 
2209 
1683 
1238 
1991 
2180 
1750 
1208 
1863 
2293 
1933 
1226 
1647 
2228 
2010 
1329 
1562 
2256 
2132 
1428 
1387 
2191 
2195 
1593 
1279 
2122 
2228 
1714 
1221 
1974 
2261 
1787 
1214 
1867 
2258 
1926 
1272 
1651 
2265 
2072 
1374 
1561 
2214 
2098 
1472 
1392 
2172 
2151 
1615 
1318 
2122 
2260 
1750 
1202 
1926 
2266 
1927 
1276 
1828 
2294 
2023 
1397 
1680 
2278 
2125 
1518 
1574 
2255 
2155 
1544 
1357 
2127 
2191 
1675 
1287 
2028 
2190 
1771 
1209 
1924 
2235 
1820 
1174 
1681 
2202 
1986 
1284 
1581 
2308 
2275 
1712 
1871 
2746 
2697 
2008 
1640 
2252 
2146 
1705 
1338 
2067 
2307 
1949 
1329 
1913 
2307 
1985 
1333 
1762 
2283 
2050 
1404 
1627 
2345 
2214 
1606 
1537 
2281 
2249 
1709 
1453 
2234 
2284 
1838 
1355 
2062 
2333 
1965 
1435 
1986 
2388 
2122 
1508 
1937 
2467 
2261 
1628 
1768 
2454 
2360 
1746 
1646 
2416 
2465 
1984 
1626 
2345 
2554 
2162 
1672 
2318 
2623 
2360 
1751 
2219 
2703 
2527 
1857 
2093 
2699 
2603 
1953 
1945 
2622 
2554 
1950 
1735 
2427 
2421 
1915 
1483 
2181 
2355 
1975 
1412 
1980 
2318 
2026 
1385 
1829 
2359 
2130 
1472 
1631 
2257 
2146 
1537 
1504 
2209 
2221 
1706 
1446 
2191 
2304 
1766 
1364 
2060 
2271 
1950 
1400 
1986 
2287 
2055 
1423 
1779 
2332 
2133 
1489 
1626 
2276 
2189 
1569 
1483 
2169 
2195 
1741 
1417 
2101 
2234 
1832 
1348 
1966 
2296 
1938 
1328 
1825 
2284 
2051 
1388 
1649 
2195 
2036 
1403 
1499 
2153 
2054 
1522 
1414 
2087 
2062 
1555 
1244 
1951 
2084 
1698 
1214 
1836 
2161 
1901 
1280 
1677 
2128 
1905 
1272 
1531 
2139 
1972 
1325 
1432 
2099 
2047 
1521 
1305 
2024 
2066 
1603 
1281 
1955 
2125 
1798 
1256 
1733 
2062 
1775 
1180 
1590 
2058 
1832 
1210 
1444 
2035 
1931 
1349 
1312 
1985 
1992 
1450 
1212 
1872 
1909 
1553 
1205 
1970 
2302 
2157 
1691 
2246 
2510 
2138 
1330 
1500 
2022 
1911 
1269 
1371 
1961 
1838 
1265 
1187 
1811 
1833 
1359 
995 
1686 
1791 
1412 
958 
1587 
1896 
1588 
1052 
1486 
1864 
1653 
1092 
1364 
1907 
1765 
1200 
1267 
1916 
1829 
1342 
1179 
1925 
1965 
1571 
1236 
1905 
2116 
1744 
1248 
1836 
2210 
1849 
1269 
1699 
2129 
1884 
1204 
1453 
2054 
1959 
1420 
1434 
2091 
2048 
1584 
1422 
2171 
2235 
1838 
1432 
2162 
2347 
2020 
1459 
1980 
2282 
1973 
1286 
1620 
2081 
1881 
1218 
1289 
1746 
1555 
987 
870 
1554 
1522 
1057 
733 
1384 
1523 
1148 
760 
1313 
1632 
1431 
840 
1350 
1826 
1682 
1093 
1440 
1954 
1749 
1143 
1262 
1819 
1729 
1144 
1028 
1719 
1718 
1261 
951 
1687 
1801 
1493 
1023 
1605 
1923 
1646 
1088 
1548 
1974 
1742 
1173 
1549 
2189 
1985 
1382 
1392 
2044 
2015 
1490 
1248 
1905 
2008 
1531 
1129 
1796 
2015 
1681 
1138 
1755 
2095 
1838 
1224 
1601 
2115 
1888 
1240 
1442 
2058 
1957 
1376 
1323 
1993 
1967 
1421 
1166 
1852 
1970 
1585 
1138 
1743 
2033 
1675 
1107 
1679 
2033 
1732 
1114 
1415 
1901 
1714 
1074 
1168 
1824 
1707 
1120 
1016 
1710 
1772 
1293 
957 
1691 
1839 
1374 
923 
1624 
1873 
1482 
912 
1420 
1864 
1618 
1029 
1337 
1934 
1793 
1228 
1310 
2010 
1943 
1417 
1267 
1978 
2071 
1698 
1490 
2337 
2649 
2282 
1611 
2046 
2183 
1648 
999 
1541 
2027 
1728 
1152 
1349 
1929 
1807 
1229 
1185 
1853 
1857 
1350 
1084 
1782 
1864 
1469 
1047 
1735 
1912 
1623 
1077 
1625 
1997 
1764 
1153 
1500 
1995 
1841 
1247 
1444 
2075 
1965 
1388 
1264 
2024 
2057 
1554 
1216 
1974 
2130 
1682 
1202 
1898 
2157 
1764 
1244 
1743 
2201 
1981 
1348 
1683 
2244 
2077 
1444 
1601 
2189 
2153 
1653 
1497 
2242 
2254 
1776 
1426 
2095 
2219 
1833 
1275 
1893 
2164 
1784 
1152 
1612 
2041 
1665 
920 
1203 
1776 
1612 
1032 
1073 
1787 
1764 
1188 
947 
1740 
1812 
1332 
911 
1619 
1793 
1411 
901 
1500 
1796 
1556 
937 
1373 
1861 
1668 
1065 
1234 
1850 
1736 
1120 
1091 
1824 
1844 
1368 
1025 
1773 
1875 
1388 
967 
1677 
2065 
1809 
1195 
1729 
2096 
1879 
1247 
1514 
2056 
1882 
1157 
1307 
1975 
1890 
1277 
1191 
1926 
1947 
1439 
1042 
1802 
1909 
1479 
1058 
1660 
1955 
1702 
1096 
1543 
1937 
1760 
1148 
1421 
1998 
1825 
1256 
1289 
1939 
1899 
1373 
1164 
1908 
2047 
1520 
1091 
1795 
2001 
1594 
1060 
1666 
1970 
1724 
1111 
1546 
2052 
1853 
1207 
1414 
2066 
1945 
1365 
1332 
1973 
2038 
1498 
1220 
1976 
2070 
1651 
1168 
1820 
2023 
1671 
1080 
1591 
1971 
1767 
1107 
1469 
2018 
1766 
1132 
1216 
1853 
1824 
1251 
1087 
1814 
1838 
1416 
1197 
2164 
2472 
2127 
1621 
2210 
2391 
1832 
1068 
1560 
2082 
1815 
1117 
1371 
1990 
1814 
1192 
1242 
1923 
1886 
1328 
1117 
1857 
1964 
1464 
1028 
1712 
1956 
1610 
1049 
1661 
2054 
1743 
1084 
1499 
1996 
1834 
1239 
1441 
2070 
1958 
1318 
1253 
2005 
1983 
1433 
1171 
1941 
2047 
1579 
1130 
1853 
2140 
1779 
1191 
1786 
2225 
1945 
1315 
1714 
2339 
2052 
1404 
1612 
2286 
2252 
1631 
1485 
2266 
2316 
1742 
1417 
2184 
2300 
1824 
1292 
1986 
2210 
1802 
1165 
1657 
2109 
1820 
1093 
1418 
1940 
1806 
1164 
1232 
1943 
1858 
1259 
1069 
1858 
1841 
1381 
1007 
1757 
1918 
1520 
963 
1622 
1955 
1628 
936 
1436 
1938 
1690 
1021 
1285 
1896 
1782 
1130 
1126 
1891 
1852 
1254 
1017 
1800 
1896 
1413 
967 
1680 
1922 
1532 
894 
1504 
1908 
1648 
943 
1366 
1914 
1713 
992 
1161 
1925 
1808 
1129 
1051 
1810 
1785 
1284 
998 
1726 
1800 
1376 
907 
1563 
1828 
1505 
876 
1412 
1855 
1595 
932 
1248 
1830 
1743 
1041 
1072 
1848 
1773 
1143 
966 
1776 
1786 
1259 
869 
1654 
1848 
1380 
824 
1504 
1851 
1614 
898 
1381 
1952 
1718 
1006 
1261 
1893 
1781 
1104 
1045 
1778 
1693 
1155 
891 
1696 
1778 
1293 
836 
1624 
1830 
1458 
875 
1503 
1899 
1578 
900 
1359 
1896 
1657 
1076 
1359 
2154 
2215 
1682 
1590 
2362 
2259 
1491 
924 
1750 
1904 
1472 
998 
1721 
2014 
1630 
946 
1533 
1966 
1683 
985 
1390 
2024 
1817 
1127 
1221 
1971 
1880 
1280 
1054 
1905 
1960 
1458 
1005 
1811 
2001 
1583 
995 
1691 
2055 
1723 
1034 
1532 
2037 
1814 
1113 
1394 
2016 
1895 
1196 
1247 
2040 
2021 
1425 
1223 
2061 
2089 
1598 
1177 
1970 
2241 
1887 
1259 
1865 
2287 
2042 
1303 
1774 
2387 
2169 
1387 
1618 
2330 
2202 
1467 
1364 
2124 
2099 
1498 
1106 
1863 
1982 
1480 
901 
1654 
1920 
1509 
811 
1434 
1892 
1611 
842 
1207 
1769 
1597 
894 
1048 
1785 
1702 
1040 
906 
1693 
1767 
1216 
836 
1627 
1846 
1381 
772 
1535 
1868 
1509 
834 
1328 
1879 
1634 
903 
1194 
1877 
1689 
955 
1036 
1857 
1762 
1152 
939 
1788 
1843 
1307 
825 
1656 
1854 
1414 
795 
1471 
1922 
1584 
830 
1364 
1922 
1683 
916 
1130 
1887 
1776 
1029 
991 
1806 
1795 
1201 
865 
1732 
1831 
1365 
805 
1577 
1870 
1475 
780 
1413 
1896 
1645 
899 
1238 
1906 
1674 
997 
1068 
1817 
1719 
1109 
956 
1778 
1779 
1244 
819 
1628 
1833 
1367 
716 
1518 
1882 
1494 
815 
1378 
1902 
1599 
823 
1172 
1904 
1685 
997 
991 
1729 
1713 
1027 
766 
1665 
1716 
1100 
660 
1562 
1756 
1284 
659 
1341 
1752 
1395 
665 
1140 
1736 
1515 
729 
965 
1751 
1717 
1210 
1356 
2247 
2239 
1534 
1039 
1715 
1693 
1181 
685 
1485 
1801 
1388 
631 
1260 
1774 
1439 
662 
1124 
1710 
1531 
832 
952 
1745 
1614 
970 
844 
1719 
1758 
1155 
715 
1567 
1802 
1326 
681 
1448 
1856 
1462 
727 
1333 
1854 
1560 
857 
1216 
1890 
1743 
1031 
1043 
1893 
1807 
1179 
955 
1834 
1915 
1387 
850 
1764 
2090 
1616 
940 
1648 
2072 
1778 
1094 
1557 
2156 
1967 
1224 
1408 
2114 
1993 
1315 
1228 
2029 
1992 
1364 
976 
1828 
1898 
1361 
751 
1578 
1803 
1404 
708 
1312 
1788 
1450 
665 
1089 
1798 
1571 
813 
941 
1688 
1596 
950 
795 
1632 
1680 
1100 
665 
1518 
1686 
1243 
640 
1389 
1731 
1379 
659 
1171 
1758 
1471 
742 
1059 
1764 
1581 
835 
874 
1694 
1642 
999 
765 
1639 
1680 
1137 
646 
1461 
1717 
1265 
677 
1337 
1758 
1456 
699 
1142 
1731 
1516 
760 
1024 
1765 
1614 
909 
836 
1639 
1677 
1004 
726 
1553 
1671 
1173 
623 
1437 
1754 
1328 
638 
1292 
1719 
1438 
714 
1080 
1777 
1542 
781 
945 
1741 
1579 
925 
798 
1686 
1690 
1120 
674 
1522 
1711 
1192 
583 
1413 
1814 
1440 
684 
1260 
1765 
1522 
794 
1103 
1812 
1648 
922 
951 
1768 
1705 
1099 
842 
1717 
1798 
1177 
700 
1520 
1795 
1337 
660 
1363 
1794 
1462 
720 
1209 
1798 
1540 
831 
1052 
1780 
1640 
958 
851 
1675 
1741 
1196 
1058 
2093 
2368 
1943 
1350 
2041 
2181 
1507 
781 
1519 
2030 
1718 
922 
1307 
1983 
1763 
1023 
1139 
1980 
1894 
1155 
1016 
1930 
1998 
1374 
959 
1803 
1995 
1546 
878 
1665 
2070 
1732 
1005 
1578 
2147 
1869 
1108 
1459 
2157 
1963 
1241 
1237 
2034 
2022 
1397 
1164 
2005 
2054 
1512 
1040 
1847 
2154 
1729 
1064 
1735 
2167 
1859 
1073 
1592 
2212 
2014 
1291 
1437 
2216 
2138 
1433 
1357 
2204 
2209 
1602 
1252 
2064 
2169 
1626 
1058 
1850 
2130 
1632 
918 
1514 
2007 
1638 
873 
1227 
1942 
1730 
981 
1058 
1840 
1751 
1045 
899 
1742 
1794 
1213 
743 
1605 
1845 
1375 
734 
1456 
1811 
1474 
730 
1322 
1868 
1617 
822 
1150 
1880 
1672 
962 
1001 
1800 
1801 
1083 
816 
1672 
1770 
1253 
702 
1546 
1820 
1380 
727 
1409 
1802 
1484 
714 
1195 
1763 
1581 
832 
1022 
1830 
1697 
919 
852 
1727 
1669 
1016 
720 
1629 
1759 
1261 
659 
1496 
1778 
1348 
645 
1293 
1763 
1501 
751 
1143 
1758 
1553 
859 
935 
1694 
1595 
988 
809 
1683 
1700 
1087 
662 
1525 
1755 
1245 
660 
1430 
1789 
1425 
682 
1269 
1772 
1476 
747 
1067 
1761 
1628 
960 
927 
1745 
1709 
1101 
816 
1682 
1754 
1201 
673 
1505 
1750 
1296 
621 
1330 
1736 
1375 
656 
1120 
1726 
1496 
778 
954 
1689 
1563 
870 
756 
1561 
1595 
1117 
902 
1878 
2231 
1750 
1154 
1834 
1984 
1312 
551 
1320 
1827 
1515 
743 
1108 
1734 
1539 
785 
881 
1704 
1620 
919 
807 
1667 
1670 
1080 
714 
1588 
1762 
1294 
649 
1369 
1774 
1454 
697 
1252 
1843 
1505 
796 
1127 
1825 
1681 
940 
939 
1809 
1792 
1112 
826 
1779 
1788 
1331 
823 
1652 
1914 
1454 
844 
1556 
1981 
1639 
900 
1456 
2074 
1872 
1127 
1330 
2072 
1996 
1280 
1199 
2101 
2070 
1474 
1135 
1960 
2023 
1543 
982 
1789 
1943 
1533 
804 
1405 
1871 
1561 
817 
1185 
1772 
1557 
837 
913 
1716 
1600 
905 
756 
1654 
1714 
1099 
663 
1543 
1723 
1254 
674 
1432 
1764 
1371 
655 
1207 
1771 
1511 
752 
1041 
1735 
1608 
879 
912 
1729 
1662 
1023 
788 
1663 
1759 
1199 
689 
1516 
1761 
1277 
650 
1381 
1772 
1425 
694 
1128 
1765 
1555 
767 
958 
1694 
1566 
879 
810 
1683 
1638 
1055 
743 
1573 
1699 
1196 
627 
1441 
1735 
1312 
607 
1246 
1763 
1408 
674 
1081 
1741 
1530 
779 
906 
1663 
1607 
964 
800 
1603 
1601 
1044 
649 
1496 
1724 
1241 
624 
1377 
1747 
1344 
615 
1202 
1735 
1437 
689 
997 
1693 
1568 
854 
844 
1685 
1664 
1062 
765 
1651 
1707 
1159 
696 
1498 
1750 
1292 
621 
1302 
1711 
1334 
610 
1089 
1698 
1466 
662 
922 
1701 
1559 
794 
728 
1590 
1595 
975 
639 
1469 
1660 
1205 
764 
1721 
2209 
1900 
1142 
1686 
1974 
1473 
640 
1126 
1799 
1565 
799 
874 
1658 
1605 
951 
785 
1621 
1622 
1049 
643 
1481 
1688 
1214 
618 
1341 
1697 
1333 
611 
1165 
1641 
1501 
751 
1017 
1739 
1588 
855 
878 
1716 
1663 
1031 
810 
1622 
1746 
1205 
686 
1522 
1791 
1351 
707 
1435 
1860 
1532 
766 
1277 
1951 
1705 
964 
1239 
1958 
1864 
1143 
1115 
1989 
1971 
1355 
1019 
1906 
2050 
1557 
971 
1751 
2071 
1640 
918 
1550 
1987 
1589 
768 
1160 
1765 
1583 
817 
929 
1683 
1566 
913 
701 
1548 
1623 
1045 
600 
1453 
1690 
1180 
541 
1310 
1655 
1291 
553 
1089 
1728 
1435 
646 
943 
1608 
1462 
769 
824 
1604 
1573 
924 
653 
1537 
1638 
1087 
590 
1350 
1619 
1194 
604 
1243 
1632 
1330 
599 
1086 
1667 
1471 
700 
890 
1623 
1476 
769 
717 
1565 
1546 
943 
607 
1449 
1595 
1064 
539 
1296 
1625 
1239 
547 
1153 
1650 
1348 
590 
989 
1658 
1422 
696 
783 
1550 
1507 
825 
621 
1528 
1555 
933 
497 
1441 
1631 
1145 
500 
1213 
1635 
1275 
506 
1079 
1704 
1436 
583 
888 
1614 
1480 
692 
689 
1573 
1526 
924 
632 
1473 
1550 
1028 
543 
1353 
1640 
1219 
574 
1268 
1673 
1321 
658 
1151 
1713 
1483 
731 
870 
1632 
1484 
778 
659 
1478 
1527 
863 
536 
1452 
1592 
1035 
453 
1257 
1580 
1171 
490 
1097 
1562 
1257 
583 
1102 
1868 
1817 
1220 
1356 
2122 
2002 
1069 
656 
1541 
1608 
990 
600 
1456 
1627 
1174 
513 
1245 
1615 
1282 
559 
1120 
1671 
1369 
579 
958 
1630 
1446 
738 
756 
1575 
1560 
913 
711 
1529 
1607 
993 
555 
1468 
1664 
1258 
621 
1277 
1738 
1364 
653 
1161 
1775 
1515 
777 
957 
1737 
1620 
924 
850 
1725 
1743 
1119 
813 
1744 
1867 
1368 
821 
1603 
1926 
1546 
931 
1589 
2069 
1772 
1061 
1434 
2050 
1822 
1069 
1154 
1904 
1811 
1058 
832 
1655 
1685 
1064 
613 
1488 
1649 
1140 
477 
1224 
1616 
1220 
460 
1054 
1620 
1367 
554 
897 
1578 
1380 
677 
675 
1502 
1468 
779 
517 
1469 
1549 
991 
500 
1302 
1553 
1141 
434 
1191 
1601 
1265 
497 
1045 
1602 
1369 
606 
795 
1559 
1417 
725 
648 
1522 
1506 
869 
530 
1430 
1543 
1008 
474 
1306 
1539 
1185 
453 
1088 
1537 
1283 
532 
935 
1605 
1386 
624 
760 
1571 
1423 
739 
607 
1474 
1488 
897 
469 
1341 
1538 
1007 
444 
1206 
1568 
1181 
436 
1008 
1598 
1296 
549 
854 
1542 
1413 
692 
672 
1503 
1390 
759 
546 
1435 
1513 
915 
426 
1302 
1521 
1096 
444 
1132 
1576 
1257 
481 
1007 
1630 
1381 
643 
896 
1610 
1490 
789 
730 
1570 
1530 
909 
558 
1392 
1484 
1006 
455 
1197 
1559 
1147 
427 
1061 
1554 
1236 
503 
911 
1539 
1348 
565 
680 
1481 
1456 
917 
899 
1927 
2099 
1478 
968 
1708 
1674 
1018 
489 
1285 
1626 
1260 
539 
1106 
1566 
1309 
527 
876 
1604 
1365 
662 
715 
1531 
1505 
810 
543 
1480 
1550 
978 
523 
1380 
1560 
1186 
555 
1251 
1675 
1300 
567 
1095 
1665 
1402 
621 
908 
1663 
1518 
803 
828 
1670 
1607 
972 
619 
1500 
1753 
1238 
727 
1566 
1838 
1444 
748 
1424 
1942 
1626 
851 
1292 
1938 
1731 
1004 
1184 
1976 
1869 
1176 
1034 
1870 
1822 
1272 
816 
1660 
1826 
1284 
650 
1383 
1717 
1311 
586 
1158 
1649 
1355 
565 
914 
1616 
1460 
730 
731 
1520 
1488 
836 
609 
1496 
1541 
934 
492 
1383 
1643 
1134 
538 
1246 
1582 
1247 
549 
1084 
1645 
1360 
624 
850 
1583 
1458 
775 
742 
1528 
1527 
931 
596 
1473 
1577 
1059 
513 
1328 
1592 
1160 
504 
1148 
1601 
1357 
556 
937 
1631 
1430 
640 
800 
1541 
1430 
796 
665 
1504 
1550 
943 
537 
1388 
1523 
1074 
482 
1253 
1584 
1186 
493 
1049 
1579 
1334 
563 
906 
1559 
1383 
649 
745 
1591 
1485 
792 
579 
1470 
1526 
986 
511 
1334 
1554 
1156 
501 
1203 
1656 
1337 
519 
1060 
1649 
1415 
692 
882 
1566 
1427 
749 
659 
1459 
1461 
831 
553 
1417 
1508 
976 
457 
1294 
1528 
1156 
431 
1091 
1548 
1238 
448 
909 
1582 
1529 
904 
1220 
2066 
1916 
1124 
883 
1514 
1446 
854 
514 
1432 
1575 
1063 
453 
1223 
1527 
1178 
436 
1061 
1580 
1241 
518 
909 
1571 
1393 
662 
669 
1543 
1447 
838 
548 
1464 
1515 
1007 
543 
1367 
1606 
1079 
464 
1190 
1622 
1310 
528 
1071 
1683 
1420 
666 
895 
1652 
1560 
833 
753 
1623 
1635 
1023 
733 
1598 
1732 
1287 
791 
1579 
1841 
1455 
813 
1481 
1892 
1612 
880 
1351 
1956 
1757 
1023 
1115 
1865 
1741 
1004 
779 
1623 
1725 
1067 
605 
1411 
1564 
1092 
464 
1181 
1543 
1177 
432 
1033 
1556 
1294 
500 
859 
1526 
1331 
588 
676 
1486 
1390 
756 
539 
1386 
1450 
870 
447 
1271 
1489 
1048 
378 
1140 
1541 
1147 
413 
962 
1521 
1283 
508 
806 
1562 
1364 
624 
610 
1394 
1412 
786 
452 
1360 
1450 
906 
390 
1172 
1461 
1052 
345 
1009 
1472 
1192 
438 
885 
1510 
1264 
520 
688 
1448 
1356 
625 
528 
1384 
1407 
820 
408 
1249 
1408 
955 
382 
1182 
1448 
1082 
371 
945 
1535 
1246 
444 
803 
1480 
1244 
544 
676 
1441 
1331 
721 
515 
1385 
1396 
885 
410 
1272 
1505 
1009 
368 
1145 
1548 
1205 
452 
965 
1580 
1351 
498 
789 
1658 
1396 
673 
657 
1472 
1440 
790 
470 
1343 
1464 
918 
377 
1138 
1485 
1062 
404 
1035 
1464 
1141 
427 
830 
1392 
1283 
574 
806 
1726 
1892 
1316 
1148 
1906 
1789 
937 
434 
1336 
1523 
1027 
441 
1194 
1500 
1109 
362 
969 
1462 
1222 
480 
866 
1518 
1294 
558 
665 
1456 
1436 
759 
550 
1422 
1454 
873 
423 
1292 
1541 
1038 
427 
1173 
1564 
1151 
442 
1001 
1578 
1362 
557 
879 
1633 
1455 
727 
744 
1588 
1529 
931 
678 
1559 
1674 
1145 
629 
1445 
1733 
1297 
690 
1419 
1844 
1476 
769 
1265 
1901 
1654 
948 
1133 
1848 
1751 
1045 
873 
1675 
1639 
1033 
618 
1458 
1598 
1077 
468 
1208 
1523 
1114 
413 
1005 
1517 
1293 
477 
800 
1438 
1223 
553 
642 
1446 
1333 
657 
496 
1371 
1409 
823 
408 
1262 
1490 
1034 
403 
1123 
1479 
1129 
424 
932 
1491 
1265 
525 
754 
1501 
1315 
577 
615 
1462 
1429 
753 
495 
1406 
1448 
889 
384 
1245 
1525 
1055 
383 
1099 
1525 
1189 
445 
879 
1478 
1208 
434 
716 
1442 
1270 
581 
525 
1411 
1381 
755 
405 
1233 
1418 
914 
329 
1137 
1463 
995 
315 
954 
1406 
1123 
384 
824 
1417 
1187 
439 
580 
1338 
1269 
615 
460 
1266 
1334 
733 
288 
1124 
1339 
900 
280 
1025 
1352 
974 
299 
929 
1437 
1200 
418 
727 
1396 
1241 
557 
605 
1469 
1325 
611 
425 
1347 
1337 
833 
325 
1111 
1365 
946 
259 
988 
1426 
1026 
336 
834 
1431 
1187 
422 
662 
1424 
1363 
797 
928 
1950 
1998 
1339 
942 
1633 
1514 
958 
519 
1348 
1692 
1313 
641 
1290 
1842 
1587 
893 
1433 
2136 
1940 
1210 
1381 
2127 
2037 
1337 
1141 
1963 
1942 
1331 
908 
1758 
1866 
1350 
776 
1527 
1819 
1425 
674 
1251 
1776 
1467 
704 
998 
1705 
1552 
860 
896 
1644 
1615 
907 
680 
1566 
1620 
1054 
562 
1471 
1726 
1258 
596 
1311 
1747 
1405 
669 
1222 
1736 
1468 
740 
978 
1665 
1515 
748 
650 
1459 
1332 
630 
287 
1137 
1187 
676 
224 
1097 
1381 
967 
300 
1012 
1489 
1198 
383 
839 
1476 
1238 
526 
658 
1433 
1320 
572 
420 
1240 
1270 
611 
293 
1151 
1336 
838 
210 
994 
1321 
867 
110 
638 
1217 
972 
188 
595 
1350 
1205 
494 
534 
1382 
1332 
680 
483 
1363 
1469 
879 
439 
1306 
1564 
1157 
513 
1228 
1711 
1335 
599 
1144 
1725 
1475 
752 
1027 
1739 
1589 
919 
920 
1770 
1780 
1078 
746 
1653 
1789 
1234 
671 
1529 
1741 
1267 
590 
1261 
1677 
1344 
596 
1024 
1567 
1345 
628 
786 
1510 
1380 
712 
625 
1422 
1432 
852 
447 
1312 
1477 
989 
380 
1141 
1491 
1132 
437 
1038 
1457 
1138 
397 
756 
1388 
1143 
323 
412 
1175 
1017 
277 
-115 
529 
462 
-54 
-418 
601 
997 
663 
55 
865 
1261 
949 
359 
1034 
1767 
1755 
1257 
1576 
2179 
1923 
949 
784 
1623 
1645 
985 
652 
1480 
1524 
951 
445 
1244 
1442 
953 
195 
836 
1301 
994 
295 
807 
1482 
1289 
515 
719 
1486 
1314 
650 
557 
1442 
1444 
861 
511 
1353 
1521 
1010 
400 
1182 
1592 
1162 
494 
1181 
1654 
1373 
648 
1060 
1801 
1624 
845 
948 
1806 
1698 
1071 
955 
1804 
1803 
1245 
815 
1670 
1870 
1418 
764 
1514 
1930 
1499 
751 
1294 
1808 
1505 
645 
860 
1441 
1100 
155 
-21 
741 
760 
171 
66 
1073 
1215 
701 
210 
1070 
1335 
935 
264 
921 
1377 
1106 
356 
786 
1440 
1222 
514 
723 
1507 
1471 
826 
691 
1547 
1640 
1020 
703 
1567 
1642 
1103 
566 
1354 
1615 
1161 
432 
1060 
1500 
1126 
294 
606 
1192 
1007 
304 
554 
1382 
1223 
608 
446 
1288 
1378 
772 
402 
1234 
1359 
898 
362 
1105 
1462 
1050 
317 
917 
1431 
1166 
387 
738 
1401 
1249 
506 
559 
1326 
1278 
650 
393 
1243 
1306 
752 
236 
1088 
1279 
816 
132 
841 
1225 
854 
78 
526 
953 
471 
-410 
-177 
656 
668 
147 
239 
1186 
1193 
638 
463 
1412 
1617 
1197 
753 
1597 
1855 
1448 
744 
1341 
1792 
1441 
693 
1094 
1671 
1385 
630 
815 
1557 
1403 
674 
553 
1366 
1377 
825 
454 
1258 
1356 
855 
357 
1220 
1661 
1458 
819 
1253 
1599 
1041 
-191 
-134 
653 
563 
-44 
215 
1116 
1134 
571 
295 
1172 
1268 
762 
309 
1144 
1387 
874 
274 
1051 
1474 
1118 
370 
918 
1525 
1240 
492 
789 
1527 
1338 
626 
640 
1493 
1466 
784 
501 
1362 
1408 
896 
422 
1214 
1492 
1094 
423 
1138 
1565 
1230 
529 
961 
1631 
1367 
654 
889 
1646 
1549 
839 
741 
1627 
1618 
980 
654 
1443 
1603 
1179 
675 
1576 
1925 
1599 
931 
1579 
2068 
1734 
918 
1245 
1891 
1660 
905 
989 
1670 
1524 
686 
471 
1347 
1371 
745 
394 
1208 
1362 
900 
290 
1011 
1352 
1032 
300 
829 
1391 
1113 
342 
592 
1255 
1106 
408 
392 
1189 
1140 
425 
208 
1095 
1144 
572 
70 
794 
1010 
532 
-263 
202 
440 
4 
-685 
-30 
788 
735 
52 
457 
1317 
1167 
519 
493 
1338 
1324 
699 
398 
1255 
1415 
871 
283 
1116 
1415 
975 
284 
961 
1433 
1119 
350 
787 
1471 
1236 
474 
656 
1464 
1400 
689 
564 
1399 
1443 
897 
482 
1350 
1523 
1061 
452 
1267 
1596 
1260 
644 
1260 
1808 
1517 
720 
1059 
1749 
1495 
768 
784 
1506 
1324 
549 
336 
1237 
1338 
861 
397 
1254 
1412 
960 
343 
1053 
1447 
1071 
329 
862 
1441 
1193 
394 
630 
1405 
1253 
506 
466 
1310 
1251 
591 
289 
1282 
1450 
1043 
717 
1646 
1917 
1395 
561 
1049 
1223 
889 
203 
628 
1157 
781 
-177 
-102 
576 
478 
-160 
-41 
1033 
1091 
481 
172 
1110 
1293 
792 
234 
1064 
1384 
984 
297 
889 
1431 
1118 
394 
796 
1440 
1202 
505 
621 
1454 
1319 
657 
447 
1346 
1430 
829 
406 
1296 
1523 
1017 
421 
1171 
1576 
1175 
458 
1056 
1617 
1398 
587 
976 
1690 
1541 
809 
833 
1712 
1659 
1026 
810 
1640 
1626 
1075 
565 
1417 
1746 
1383 
714 
1403 
1813 
1441 
678 
960 
1416 
1197 
446 
709 
1461 
1220 
551 
526 
1342 
1272 
608 
295 
1157 
1316 
816 
188 
975 
1322 
878 
184 
853 
1297 
949 
142 
665 
1293 
1022 
302 
453 
1240 
1104 
388 
238 
1104 
1133 
527 
95 
933 
1078 
541 
-78 
745 
1161 
673 
-209 
184 
547 
305 
-396 
38 
905 
796 
93 
240 
1067 
993 
360 
159 
1040 
1100 
525 
145 
986 
1200 
772 
118 
864 
1281 
905 
155 
727 
1400 
1122 
266 
557 
1293 
1177 
467 
458 
1341 
1307 
639 
361 
1270 
1353 
823 
321 
1154 
1407 
959 
272 
930 
1443 
1114 
371 
866 
1528 
1285 
564 
695 
1464 
1409 
686 
533 
1378 
1362 
740 
422 
1307 
1420 
823 
290 
1153 
1430 
1010 
276 
932 
1449 
1153 
352 
763 
1506 
1199 
449 
636 
1527 
1544 
1087 
1067 
1925 
1855 
1213 
583 
1154 
1334 
960 
411 
1147 
1484 
1088 
335 
935 
1463 
1152 
395 
750 
1424 
1231 
485 
578 
1458 
1379 
698 
445 
1319 
1465 
902 
399 
1269 
1502 
1047 
414 
1143 
1536 
1248 
532 
999 
1572 
1362 
601 
883 
1660 
1549 
849 
823 
1707 
1697 
1118 
800 
1707 
1840 
1314 
818 
1615 
1915 
1511 
835 
1540 
2019 
1688 
911 
1405 
1976 
1761 
1005 
1180 
1979 
1853 
1076 
947 
1768 
1733 
1022 
634 
1467 
1540 
828 
249 
1005 
1266 
882 
153 
764 
1261 
980 
197 
558 
1247 
1036 
306 
387 
1198 
1088 
430 
252 
1148 
1148 
569 
99 
1008 
1157 
652 
134 
908 
1232 
888 
111 
660 
1226 
985 
241 
530 
1247 
1066 
323 
333 
1194 
1138 
425 
178 
1003 
1292 
770 
244 
1061 
1244 
756 
80 
720 
1016 
553 
-324 
14 
618 
482 
-154 
184 
1045 
992 
352 
329 
1168 
1208 
582 
300 
1227 
1313 
810 
312 
1148 
1394 
1012 
369 
1005 
1482 
1187 
415 
903 
1521 
1294 
655 
714 
1589 
1566 
808 
662 
1564 
1593 
963 
639 
1448 
1539 
1045 
461 
1158 
1487 
1076 
393 
1000 
1515 
1203 
485 
790 
1517 
1325 
621 
705 
1567 
1518 
856 
567 
1396 
1546 
1065 
739 
1702 
2071 
1592 
817 
1375 
1532 
954 
193 
690 
1261 
911 
-48 
116 
893 
796 
97 
147 
1046 
1064 
488 
284 
1177 
1303 
834 
384 
1205 
1530 
1177 
540 
1194 
1652 
1273 
501 
1009 
1563 
1299 
553 
682 
1289 
1059 
323 
229 
1193 
1302 
707 
399 
1269 
1429 
981 
464 
1282 
1598 
1169 
463 
1130 
1629 
1344 
567 
1073 
1722 
1482 
774 
952 
1732 
1600 
913 
753 
1645 
1699 
1087 
684 
1570 
1684 
1115 
343 
1014 
1321 
944 
211 
692 
1263 
953 
211 
608 
1226 
1020 
204 
224 
1045 
915 
203 
-193 
532 
565 
-27 
-423 
540 
856 
482 
-123 
543 
1030 
708 
-12 
492 
1104 
886 
116 
360 
1157 
1019 
264 
275 
1110 
995 
390 
150 
1027 
1190 
840 
295 
1123 
1403 
941 
219 
937 
1408 
1053 
333 
720 
1342 
1124 
295 
415 
1136 
1008 
397 
391 
1283 
1319 
740 
394 
1304 
1424 
948 
356 
1206 
1538 
1165 
437 
1037 
1566 
1249 
429 
814 
1514 
1301 
550 
648 
1412 
1330 
617 
502 
1347 
1355 
753 
333 
1229 
1377 
898 
262 
984 
1405 
1023 
327 
881 
1388 
1116 
346 
632 
1310 
1168 
426 
304 
1064 
956 
213 
-192 
621 
735 
280 
-109 
746 
1119 
739 
151 
853 
1318 
1036 
289 
796 
1374 
1092 
359 
675 
1516 
1485 
951 
1053 
1900 
1855 
1092 
600 
1247 
1427 
913 
380 
1167 
1360 
982 
281 
937 
1356 
1047 
299 
765 
1399 
1185 
383 
532 
1344 
1209 
518 
372 
1283 
1291 
642 
257 
1056 
1169 
649 
164 
1036 
1464 
1126 
358 
1070 
1618 
1305 
563 
974 
1631 
1452 
732 
817 
1607 
1569 
934 
722 
1609 
1626 
1052 
625 
1459 
1676 
1214 
633 
1399 
1776 
1383 
621 
1182 
1721 
1517 
758 
1038 
1620 
1283 
560 
562 
1355 
1257 
543 
228 
1056 
1112 
442 
-199 
552 
613 
7 
-655 
90 
607 
364 
-250 
311 
930 
736 
-16 
312 
1091 
1027 
336 
377 
1233 
1181 
607 
300 
1150 
1223 
751 
140 
967 
1271 
838 
182 
854 
1301 
965 
185 
709 
1357 
1114 
407 
741 
1542 
1399 
677 
507 
1378 
1373 
756 
356 
1193 
1402 
881 
263 
1022 
1379 
989 
220 
821 
1335 
996 
265 
630 
1229 
1009 
268 
314 
1079 
868 
73 
-81 
811 
904 
450 
51 
959 
1176 
743 
129 
894 
1255 
920 
201 
794 
1332 
1050 
291 
564 
1376 
1170 
459 
529 
1278 
1271 
642 
386 
1275 
1300 
787 
322 
1106 
1395 
965 
327 
1068 
1438 
1114 
407 
930 
1507 
1186 
391 
640 
1363 
1163 
383 
283 
1201 
1217 
641 
446 
1308 
1444 
943 
396 
1246 
1541 
1120 
425 
1107 
1547 
1200 
482 
1013 
1787 
1737 
1159 
1430 
2043 
1835 
1013 
660 
1411 
1446 
877 
484 
1337 
1474 
934 
307 
1107 
1387 
1039 
282 
897 
1378 
1101 
376 
748 
1382 
1205 
419 
466 
1290 
1201 
518 
340 
1135 
1125 
490 
-28 
778 
991 
628 
86 
886 
1346 
1018 
298 
878 
1480 
1256 
496 
827 
1538 
1375 
685 
715 
1513 
1511 
892 
634 
1556 
1619 
1072 
598 
1451 
1707 
1246 
384 
1117 
1535 
1204 
491 
1034 
1635 
1359 
577 
817 
1495 
1341 
520 
480 
1315 
1225 
568 
267 
1116 
1229 
710 
156 
964 
1258 
849 
81 
672 
1123 
762 
110 
577 
1225 
1079 
321 
490 
1293 
1186 
501 
389 
1230 
1274 
685 
277 
1198 
1361 
825 
236 
1037 
1302 
960 
263 
1042 
1596 
1304 
554 
864 
1478 
1257 
553 
653 
1408 
1346 
608 
450 
1321 
1307 
711 
275 
1129 
1303 
779 
141 
876 
1228 
842 
30 
523 
893 
468 
-340 
-6 
703 
622 
-6 
61 
962 
904 
297 
164 
1044 
1074 
572 
125 
980 
1195 
770 
133 
891 
1277 
916 
185 
758 
1288 
1076 
339 
573 
1339 
1201 
530 
495 
1357 
1358 
780 
507 
1375 
1559 
1010 
453 
1236 
1495 
1092 
372 
1026 
1479 
1175 
429 
840 
1449 
1220 
474 
653 
1418 
1252 
559 
436 
1214 
1263 
761 
502 
1514 
1835 
1413 
820 
1446 
1642 
1004 
162 
803 
1406 
1088 
343 
736 
1363 
1152 
376 
495 
1283 
1198 
537 
355 
1217 
1247 
638 
226 
1067 
1305 
880 
239 
951 
1318 
974 
264 
819 
1383 
1110 
323 
670 
1396 
1202 
426 
452 
1227 
1191 
626 
479 
1411 
1509 
1002 
477 
1326 
1621 
1189 
543 
1292 
1695 
1365 
623 
1132 
1724 
1502 
736 
995 
1736 
1487 
652 
627 
1474 
1478 
810 
501 
1423 
1487 
865 
309 
1087 
1329 
877 
117 
759 
1147 
759 
-26 
445 
1076 
806 
-30 
159 
879 
742 
27 
-121 
659 
591 
-120 
-462 
487 
650 
198 
-265 
615 
957 
590 
-118 
556 
1102 
785 
50 
471 
1102 
923 
184 
321 
1231 
1249 
582 
422 
1248 
1237 
658 
264 
1131 
1309 
826 
222 
993 
1309 
896 
218 
833 
1343 
1029 
254 
556 
1255 
1101 
352 
439 
1282 
1202 
468 
296 
1195 
1206 
631 
214 
1063 
1240 
835 
139 
844 
1226 
870 
131 
711 
1290 
899 
63 
410 
1130 
1024 
425 
496 
1341 
1371 
724 
448 
1360 
1470 
905 
400 
1178 
1454 
1044 
352 
1058 
1504 
1122 
354 
813 
1462 
1228 
423 
637 
1414 
1297 
589 
474 
1344 
1315 
728 
405 
1289 
1439 
911 
334 
1096 
1334 
867 
158 
765 
1243 
893 
96 
497 
1048 
759 
-1 
103 
991 
930 
255 
152 
1059 
1079 
480 
126 
1056 
1351 
1059 
634 
1520 
1839 
1399 
614 
977 
1312 
1082 
334 
647 
1290 
1147 
339 
352 
1260 
1153 
481 
294 
1122 
1199 
627 
178 
997 
1233 
778 
113 
868 
1262 
829 
157 
715 
1264 
988 
244 
484 
1215 
1045 
340 
370 
1185 
1155 
514 
221 
1169 
1240 
715 
284 
1184 
1493 
1033 
370 
1078 
1520 
1194 
441 
933 
1564 
1359 
602 
794 
1516 
1404 
505 
431 
1347 
1285 
716 
392 
1257 
1401 
845 
290 
1050 
1295 
807 
88 
690 
1098 
742 
-117 
365 
937 
627 
-134 
17 
689 
567 
-134 
-317 
559 
570 
-33 
-350 
513 
681 
188 
-439 
374 
760 
378 
-337 
272 
797 
513 
-273 
112 
810 
629 
-101 
-6 
829 
786 
107 
-18 
1063 
1141 
511 
84 
959 
1210 
731 
135 
841 
1198 
814 
106 
648 
1195 
936 
119 
447 
1177 
1026 
244 
262 
1113 
1088 
466 
195 
1042 
1099 
600 
104 
974 
1276 
797 
141 
859 
1330 
965 
190 
691 
1294 
1067 
334 
555 
1306 
1155 
440 
387 
1257 
1290 
656 
306 
1202 
1297 
705 
220 
1048 
1292 
870 
211 
860 
1372 
1025 
230 
672 
1336 
1094 
319 
500 
1295 
1168 
470 
376 
1270 
1301 
668 
290 
1154 
1288 
782 
278 
1113 
1415 
977 
268 
862 
1243 
852 
39 
443 
1077 
869 
83 
129 
904 
796 
44 
-128 
668 
657 
28 
-414 
423 
540 
38 
-436 
442 
895 
680 
53 
584 
1024 
591 
-366 
-153 
573 
410 
-296 
-217 
575 
462 
-233 
-460 
395 
369 
-252 
-763 
53 
211 
-341 
-1059 
-334 
159 
-174 
-880 
-302 
300 
65 
-670 
-394 
361 
261 
-408 
-367 
487 
490 
-177 
-552 
345 
445 
-137 
-678 
162 
384 
-104 
-784 
-129 
289 
-156 
-989 
-578 
-94 
-368 
-1119 
-924 
-154 
-212 
-868 
-963 
-65 
-17 
-642 
-1150 
-211 
-55 
-514 
-1007 
-151 
149 
-241 
-888 
-203 
284 
-1 
-750 
-389 
261 
107 
-675 
-534 
212 
106 
-525 
-654 
247 
253 
-323 
-685 
201 
372 
-20 
-597 
184 
554 
274 
-393 
170 
783 
496 
-240 
169 
850 
689 
22 
117 
1006 
944 
273 
132 
1037 
1062 
543 
307 
1238 
1410 
941 
343 
1056 
1464 
1045 
283 
800 
1445 
1116 
312 
614 
1342 
1142 
386 
448 
1229 
1186 
483 
205 
1115 
1163 
572 
59 
858 
1119 
726 
39 
714 
1129 
734 
-23 
468 
1104 
864 
67 
294 
1056 
901 
171 
144 
987 
901 
290 
30 
863 
982 
435 
-92 
659 
942 
560 
-157 
506 
915 
569 
-110 
348 
931 
729 
-83 
91 
877 
748 
52 
-32 
789 
809 
115 
-279 
551 
731 
263 
-330 
419 
791 
406 
-363 
263 
738 
457 
-293 
101 
746 
552 
-216 
-116 
756 
769 
219 
278 
1261 
1272 
651 
138 
803 
777 
320 
-193 
590 
903 
564 
-170 
402 
921 
654 
-100 
289 
938 
808 
149 
141 
942 
926 
229 
67 
941 
1039 
489 
30 
837 
1073 
667 
51 
769 
1180 
873 
101 
626 
1248 
981 
225 
536 
1277 
1152 
405 
369 
1241 
1227 
619 
333 
1199 
1352 
788 
319 
1168 
1434 
1027 
397 
1085 
1510 
1228 
512 
1013 
1610 
1437 
621 
817 
1639 
1527 
793 
631 
1482 
1381 
571 
172 
1029 
1162 
617 
23 
826 
1159 
708 
-23 
651 
1128 
795 
35 
436 
1065 
857 
75 
196 
983 
899 
203 
61 
925 
930 
345 
-32 
832 
967 
510 
-25 
724 
1003 
627 
-83 
550 
1053 
804 
68 
395 
1092 
897 
306 
503 
1267 
1134 
476 
280 
1175 
1228 
638 
181 
998 
1185 
720 
114 
844 
1169 
795 
23 
600 
1159 
883 
137 
422 
1100 
914 
193 
208 
1064 
1053 
375 
75 
994 
1100 
535 
72 
906 
1142 
705 
48 
711 
1134 
773 
67 
579 
1147 
858 
117 
359 
1113 
932 
177 
193 
1067 
1013 
385 
87 
982 
1107 
566 
86 
920 
1178 
780 
91 
772 
1253 
960 
217 
677 
1224 
1010 
228 
450 
1189 
1026 
303 
192 
976 
1010 
355 
21 
916 
1087 
569 
-22 
822 
1083 
693 
8 
677 
1168 
862 
64 
503 
1118 
928 
260 
579 
1474 
1622 
1029 
841 
1608 
1500 
657 
160 
1027 
1209 
719 
46 
843 
1198 
758 
127 
800 
1290 
986 
247 
640 
1292 
1103 
354 
500 
1278 
1218 
474 
273 
1168 
1238 
571 
114 
1040 
1259 
741 
183 
952 
1334 
1022 
235 
874 
1448 
1147 
349 
654 
1328 
1187 
422 
433 
1233 
1222 
606 
393 
1285 
1401 
897 
449 
1339 
1581 
1157 
530 
1278 
1675 
1242 
488 
1024 
1588 
1299 
549 
785 
1464 
1342 
579 
507 
1330 
1299 
673 
345 
1157 
1083 
535 
8 
781 
1059 
623 
-117 
549 
1027 
672 
-78 
407 
991 
742 
-69 
156 
960 
844 
93 
5 
871 
879 
244 
-111 
737 
847 
342 
-223 
550 
816 
458 
-249 
401 
887 
583 
-171 
289 
954 
782 
42 
394 
1159 
1029 
268 
155 
1015 
972 
310 
-46 
843 
965 
434 
-138 
585 
928 
526 
-210 
433 
937 
670 
-95 
293 
990 
808 
90 
194 
1015 
926 
209 
73 
963 
999 
500 
-4 
867 
1073 
621 
-32 
740 
1083 
721 
-15 
569 
1133 
826 
15 
351 
1082 
888 
168 
251 
1062 
1079 
356 
142 
1052 
1144 
542 
110 
1010 
1175 
724 
124 
801 
1233 
975 
218 
798 
1331 
1094 
325 
600 
1288 
1143 
386 
450 
1276 
1178 
557 
279 
1143 
1203 
699 
206 
990 
1230 
797 
114 
855 
1257 
878 
158 
528 
963 
786 
106 
498 
1444 
1437 
754 
630 
1396 
1176 
316 
-65 
885 
1022 
525 
-61 
753 
1048 
643 
-52 
615 
1106 
811 
26 
412 
1072 
859 
161 
337 
1134 
1045 
280 
180 
1068 
1089 
506 
134 
1000 
1130 
656 
133 
974 
1285 
879 
181 
803 
1299 
991 
218 
636 
1386 
1218 
472 
644 
1408 
1306 
651 
517 
1443 
1480 
880 
484 
1342 
1578 
1108 
484 
1287 
1646 
1269 
564 
1178 
1685 
1422 
662 
1007 
1734 
1455 
695 
747 
1545 
1450 
754 
510 
1363 
1337 
740 
320 
1151 
1365 
864 
212 
946 
1353 
1047 
297 
867 
1419 
1101 
313 
649 
1421 
1218 
464 
509 
1315 
1306 
627 
366 
1248 
1372 
797 
310 
1111 
1360 
1005 
307 
1014 
1471 
1158 
388 
871 
1457 
1272 
698 
875 
1572 
1457 
713 
643 
1487 
1455 
849 
473 
1270 
1439 
947 
355 
1109 
1427 
982 
296 
954 
1378 
1071 
273 
689 
1276 
1022 
227 
388 
1138 
1006 
251 
150 
1034 
1054 
427 
57 
965 
1154 
614 
144 
988 
1310 
1033 
376 
914 
1380 
1086 
269 
628 
1240 
1088 
396 
523 
1348 
1284 
586 
458 
1350 
1391 
835 
416 
1275 
1451 
896 
252 
1145 
1469 
1044 
294 
885 
1394 
1116 
361 
682 
1380 
1220 
490 
549 
1347 
1287 
588 
376 
1269 
1383 
983 
691 
1754 
2060 
1538 
763 
1404 
1583 
1042 
361 
968 
1559 
1319 
518 
824 
1497 
1326 
597 
591 
1396 
1356 
713 
419 
1253 
1350 
807 
335 
1127 
1366 
958 
306 
1008 
1420 
1074 
329 
879 
1421 
1160 
458 
677 
1436 
1287 
551 
550 
1410 
1372 
775 
472 
1371 
1485 
942 
453 
1305 
1521 
1120 
490 
1174 
1641 
1338 
572 
1060 
1651 
1402 
713 
903 
1695 
1598 
885 
835 
1637 
1650 
1036 
668 
1507 
1604 
1069 
507 
1327 
1582 
1091 
293 
934 
1403 
1037 
252 
649 
1220 
973 
183 
341 
1123 
1019 
362 
215 
1064 
1081 
471 
152 
962 
1113 
596 
52 
881 
1187 
809 
96 
660 
1157 
905 
128 
520 
1139 
947 
215 
335 
1139 
1024 
341 
150 
1020 
1021 
452 
26 
852 
1033 
567 
-80 
731 
1093 
716 
-18 
550 
1077 
827 
29 
403 
1092 
884 
202 
250 
1060 
988 
329 
116 
950 
1041 
513 
53 
930 
1135 
647 
38 
779 
1133 
765 
11 
632 
1197 
892 
121 
442 
1070 
891 
174 
184 
1004 
988 
342 
120 
959 
1064 
512 
4 
823 
1071 
609 
-52 
734 
1161 
792 
31 
511 
1116 
958 
138 
349 
1050 
936 
233 
193 
1030 
1016 
378 
70 
977 
1037 
511 
28 
786 
1095 
706 
23 
660 
1122 
852 
138 
492 
1101 
897 
221 
547 
1477 
1591 
953 
807 
1594 
1456 
599 
131 
1071 
1198 
693 
123 
918 
1218 
786 
129 
782 
1177 
931 
133 
503 
1193 
992 
196 
341 
1161 
1064 
356 
271 
1080 
1102 
513 
133 
1005 
1166 
695 
94 
934 
1270 
870 
191 
829 
1259 
972 
240 
595 
1274 
1083 
372 
486 
1313 
1227 
549 
370 
1280 
1352 
795 
371 
1229 
1469 
1010 
386 
1154 
1537 
1222 
471 
1016 
1589 
1309 
596 
892 
1538 
1333 
534 
626 
1456 
1337 
615 
367 
1172 
1228 
673 
155 
968 
1185 
674 
69 
820 
1189 
804 
37 
534 
1154 
923 
98 
387 
1123 
964 
240 
292 
1129 
1019 
319 
159 
1056 
1114 
554 
54 
879 
1120 
662 
21 
755 
1196 
816 
47 
594 
1159 
856 
118 
373 
1137 
974 
258 
247 
1040 
1017 
405 
105 
946 
1089 
521 
-22 
781 
1120 
681 
-17 
686 
1083 
765 
4 
499 
1148 
871 
73 
296 
1080 
993 
273 
152 
993 
1029 
391 
49 
941 
1114 
575 
-37 
857 
1163 
696 
-21 
661 
1138 
799 
39 
495 
1107 
883 
168 
310 
1058 
952 
283 
185 
1002 
1021 
439 
55 
936 
1147 
646 
-23 
854 
1187 
753 
103 
678 
1145 
849 
43 
404 
1038 
824 
76 
186 
942 
885 
249 
36 
935 
918 
324 
2 
938 
1051 
506 
-71 
693 
1025 
669 
61 
813 
1537 
1402 
662 
976 
1595 
1151 
181 
226 
1143 
1101 
409 
174 
1077 
1128 
531 
87 
915 
1114 
643 
1 
752 
1165 
798 
40 
613 
1197 
900 
128 
460 
1179 
958 
269 
300 
1159 
1175 
477 
206 
1070 
1211 
687 
149 
970 
1270 
825 
151 
875 
1305 
942 
214 
718 
1289 
1079 
340 
609 
1351 
1227 
524 
526 
1376 
1382 
771 
477 
1394 
1523 
971 
485 
1300 
1601 
1121 
465 
1169 
1610 
1223 
453 
887 
1474 
1193 
419 
520 
1289 
1190 
478 
346 
1196 
1174 
539 
168 
1049 
1154 
631 
110 
928 
1165 
751 
42 
712 
1161 
890 
115 
462 
1188 
1003 
197 
412 
1143 
1014 
361 
235 
1127 
1136 
510 
50 
966 
1167 
622 
68 
829 
1122 
741 
-10 
669 
1203 
882 
135 
505 
1128 
974 
254 
381 
1158 
1081 
404 
182 
1019 
1128 
522 
119 
957 
1173 
643 
25 
839 
1177 
827 
89 
705 
1202 
833 
162 
556 
1234 
1089 
343 
337 
1178 
1136 
390 
199 
1096 
1156 
549 
113 
983 
1228 
750 
112 
846 
1232 
842 
102 
673 
1274 
1036 
301 
567 
1271 
1134 
376 
335 
1223 
1174 
464 
228 
1109 
1153 
577 
105 
963 
1182 
716 
82 
796 
1207 
906 
119 
610 
1198 
979 
226 
538 
1175 
1035 
333 
331 
1268 
1366 
919 
786 
1648 
1653 
983 
305 
902 
1168 
817 
161 
901 
1369 
960 
196 
679 
1284 
1059 
275 
481 
1276 
1167 
452 
341 
1229 
1204 
558 
274 
1141 
1282 
749 
196 
997 
1277 
924 
218 
889 
1386 
995 
275 
732 
1350 
1121 
365 
554 
1347 
1271 
573 
419 
1312 
1379 
711 
357 
1230 
1377 
903 
337 
1153 
1457 
1058 
401 
1051 
1534 
1225 
483 
908 
1559 
1313 
598 
764 
1557 
1513 
753 
562 
1349 
1383 
781 
311 
1121 
1264 
726 
91 
852 
1229 
784 
20 
610 
1098 
833 
93 
465 
1090 
939 
195 
287 
1080 
1004 
342 
110 
1000 
1062 
468 
24 
921 
1133 
613 
20 
796 
1132 
739 
66 
647 
1137 
901 
144 
454 
1172 
1040 
278 
332 
1083 
1014 
428 
204 
1068 
1106 
563 
87 
950 
1161 
666 
81 
792 
1140 
786 
74 
648 
1186 
942 
165 
410 
1106 
971 
274 
238 
1084 
1018 
344 
61 
971 
1036 
487 
53 
868 
1080 
672 
-39 
615 
1097 
778 
24 
517 
1153 
877 
114 
397 
1109 
942 
265 
264 
1092 
1077 
436 
150 
1020 
1138 
600 
6 
897 
1210 
776 
33 
726 
1152 
787 
63 
550 
1099 
920 
165 
335 
1087 
956 
265 
190 
1077 
1041 
373 
6 
935 
1174 
788 
428 
1396 
1709 
1237 
403 
902 
1151 
768 
100 
575 
1179 
913 
172 
370 
1125 
1032 
301 
201 
1048 
1022 
372 
61 
1007 
1140 
633 
12 
776 
1133 
796 
76 
666 
1191 
882 
125 
533 
1215 
1031 
297 
420 
1193 
1120 
425 
241 
1145 
1179 
583 
240 
1118 
1244 
718 
211 
989 
1360 
988 
286 
880 
1402 
1158 
441 
861 
1529 
1432 
688 
747 
1652 
1521 
858 
638 
1513 
1541 
959 
493 
1332 
1484 
972 
330 
1052 
1359 
967 
243 
770 
1244 
930 
175 
551 
1242 
1082 
323 
413 
1231 
1115 
427 
194 
1073 
1140 
572 
127 
981 
1185 
727 
118 
840 
1180 
826 
101 
651 
1254 
991 
153 
531 
1251 
1042 
279 
288 
1162 
1143 
483 
230 
1077 
1151 
555 
121 
959 
1188 
732 
70 
774 
1202 
820 
58 
576 
1194 
980 
129 
343 
1150 
1009 
307 
338 
1101 
1038 
388 
120 
1051 
1122 
536 
62 
893 
1164 
705 
21 
734 
1174 
828 
62 
563 
1161 
910 
185 
392 
1122 
1000 
301 
233 
1119 
1083 
427 
114 
1015 
1111 
608 
62 
881 
1196 
778 
101 
787 
1260 
892 
161 
642 
1291 
990 
221 
428 
1139 
1002 
327 
192 
1040 
1050 
398 
110 
969 
1086 
552 
-19 
800 
1138 
731 
58 
652 
1038 
735 
47 
583 
1356 
1316 
678 
881 
1595 
1414 
553 
238 
1069 
1138 
575 
178 
1014 
1147 
648 
53 
829 
1206 
801 
87 
740 
1176 
913 
135 
515 
1167 
970 
268 
411 
1133 
1029 
370 
264 
1149 
1163 
557 
148 
1056 
1241 
766 
129 
927 
1279 
902 
166 
755 
1318 
1081 
302 
709 
1364 
1151 
409 
529 
1334 
1283 
578 
413 
1331 
1376 
790 
373 
1248 
1420 
971 
359 
1135 
1490 
1125 
420 
997 
1516 
1248 
410 
731 
1410 
1221 
398 
470 
1231 
1124 
397 
159 
1041 
1090 
537 
92 
926 
1089 
621 
7 
711 
1121 
747 
-19 
543 
1121 
863 
96 
388 
1111 
902 
191 
247 
1078 
1005 
377 
102 
1001 
1067 
515 
59 
912 
1124 
663 
24 
763 
1148 
758 
16 
569 
1107 
854 
82 
424 
1114 
944 
207 
236 
1058 
1011 
354 
112 
995 
1049 
497 
58 
880 
1106 
636 
-14 
717 
1122 
760 
-66 
484 
1090 
776 
37 
320 
1027 
905 
220 
176 
968 
989 
347 
-11 
919 
1007 
446 
-52 
789 
1094 
656 
-7 
665 
1105 
801 
31 
565 
1179 
916 
187 
366 
1109 
987 
326 
252 
1101 
1090 
448 
113 
1019 
1154 
626 
115 
911 
1156 
704 
53 
733 
1167 
846 
41 
552 
1145 
907 
203 
455 
1136 
949 
257 
205 
1072 
1050 
380 
37 
879 
1071 
662 
302 
1324 
1649 
1190 
481 
997 
1284 
805 
80 
571 
1194 
966 
238 
383 
1141 
1007 
305 
223 
1026 
1067 
455 
63 
944 
1150 
620 
70 
933 
1172 
694 
59 
748 
1256 
898 
146 
600 
1235 
1018 
302 
477 
1264 
1121 
480 
356 
1215 
1245 
611 
300 
1195 
1342 
817 
299 
1083 
1432 
1054 
377 
1017 
1486 
1219 
467 
983 
1627 
1378 
674 
820 
1627 
1542 
851 
731 
1582 
1573 
925 
551 
1445 
1575 
1009 
427 
1111 
1355 
908 
171 
765 
1265 
903 
202 
613 
1239 
1070 
374 
547 
1349 
1316 
663 
417 
1256 
1268 
658 
171 
967 
1139 
670 
103 
847 
1182 
748 
26 
672 
1204 
894 
128 
532 
1182 
966 
200 
298 
1119 
1035 
361 
132 
1042 
1111 
494 
34 
926 
1098 
634 
24 
768 
1126 
712 
-31 
569 
1062 
771 
12 
368 
1061 
875 
94 
137 
931 
786 
34 
-139 
696 
720 
160 
-238 
657 
866 
423 
-206 
540 
949 
533 
-167 
451 
1028 
742 
-13 
398 
1100 
860 
161 
278 
1076 
958 
327 
106 
1001 
1035 
446 
38 
888 
1074 
644 
34 
737 
1124 
742 
8 
562 
1087 
823 
110 
404 
1123 
924 
151 
209 
1051 
956 
295 
101 
1015 
1119 
485 
69 
946 
1081 
613 
38 
812 
1178 
725 
-69 
566 
1239 
1049 
439 
954 
1695 
1467 
626 
495 
1145 
1020 
366 
174 
1114 
1120 
543 
71 
952 
1141 
657 
26 
744 
1131 
801 
44 
627 
1174 
966 
221 
489 
1232 
1096 
378 
407 
1232 
1145 
403 
163 
1016 
1065 
553 
110 
920 
1139 
725 
63 
823 
1270 
892 
138 
692 
1241 
1009 
227 
516 
1259 
1041 
396 
367 
1164 
1074 
400 
135 
1018 
1154 
715 
274 
1100 
1400 
993 
322 
1079 
1533 
1181 
409 
955 
1487 
1214 
418 
652 
1359 
1158 
380 
369 
1174 
1120 
482 
186 
1015 
1128 
633 
150 
1003 
1276 
826 
182 
907 
1291 
927 
193 
684 
1161 
841 
72 
293 
1030 
914 
230 
205 
1056 
1040 
360 
93 
998 
1063 
501 
-17 
831 
1089 
651 
-44 
642 
1059 
655 
-140 
322 
949 
680 
-48 
225 
988 
856 
173 
138 
1011 
1001 
429 
134 
1025 
1111 
574 
96 
922 
1182 
778 
112 
829 
1282 
937 
160 
650 
1278 
1020 
209 
482 
1198 
1019 
271 
220 
1066 
959 
343 
37 
848 
902 
311 
-205 
598 
852 
392 
-170 
503 
992 
709 
-39 
480 
1072 
807 
90 
349 
1141 
1018 
319 
275 
1124 
1067 
444 
187 
1091 
1251 
750 
200 
1087 
1320 
893 
213 
880 
1320 
926 
189 
612 
1158 
924 
205 
569 
1417 
1450 
793 
717 
1460 
1302 
498 
-13 
878 
1055 
533 
-5 
778 
1044 
604 
-170 
453 
880 
503 
-265 
231 
880 
646 
-22 
132 
888 
816 
118 
76 
967 
982 
395 
63 
959 
1132 
598 
72 
973 
1226 
777 
127 
808 
1249 
945 
227 
685 
1297 
1031 
278 
540 
1344 
1212 
520 
500 
1416 
1456 
909 
646 
1475 
1569 
1103 
518 
1235 
1511 
1062 
381 
984 
1429 
1154 
408 
866 
1494 
1231 
484 
638 
1367 
1209 
423 
341 
1180 
1106 
438 
20 
950 
1095 
543 
0 
707 
1032 
627 
-105 
546 
1013 
679 
-95 
298 
940 
708 
-147 
-31 
786 
682 
72 
13 
921 
957 
387 
46 
957 
1079 
619 
34 
833 
1123 
733 
66 
701 
1125 
798 
38 
464 
1107 
852 
109 
261 
1055 
900 
204 
137 
1005 
1027 
367 
-19 
920 
1122 
642 
60 
925 
1218 
776 
78 
742 
1278 
893 
105 
570 
1218 
952 
192 
350 
1181 
1085 
373 
248 
1112 
1101 
484 
17 
876 
1061 
491 
-111 
593 
871 
425 
-361 
320 
834 
588 
-144 
309 
1013 
847 
138 
301 
1108 
1022 
328 
220 
1098 
1119 
572 
143 
1031 
1193 
691 
122 
927 
1250 
817 
131 
774 
1289 
969 
181 
545 
1216 
966 
198 
259 
983 
858 
157 
48 
932 
973 
401 
-11 
789 
1043 
710 
247 
1238 
1711 
1286 
526 
1096 
1418 
869 
37 
421 
1085 
854 
34 
132 
832 
657 
-103 
-285 
622 
737 
192 
-106 
769 
981 
541 
12 
836 
1140 
750 
63 
699 
1230 
975 
256 
654 
1299 
1120 
383 
475 
1274 
1174 
483 
362 
1264 
1269 
609 
209 
1104 
1281 
762 
137 
905 
1246 
739 
-6 
710 
1234 
1009 
275 
701 
1343 
1179 
457 
574 
1397 
1365 
624 
489 
1300 
1281 
643 
147 
925 
1037 
567 
7 
767 
1094 
674 
-6 
645 
1147 
874 
88 
477 
1149 
939 
233 
416 
1193 
1130 
404 
254 
1137 
1190 
564 
169 
1064 
1169 
617 
-45 
730 
1084 
605 
-65 
601 
1131 
835 
57 
506 
1212 
943 
192 
264 
1087 
968 
285 
150 
1005 
1015 
423 
-8 
855 
989 
518 
-143 
617 
893 
586 
-176 
370 
836 
538 
-189 
134 
838 
739 
101 
230 
1071 
973 
339 
170 
1058 
1131 
567 
168 
1041 
1262 
794 
180 
1019 
1337 
904 
172 
725 
1275 
967 
151 
505 
1179 
932 
101 
208 
980 
862 
168 
-11 
872 
944 
321 
-115 
862 
1004 
464 
-94 
613 
971 
586 
-208 
335 
865 
614 
-113 
286 
986 
820 
63 
178 
1008 
950 
315 
168 
1055 
1146 
553 
120 
1021 
1195 
715 
119 
911 
1276 
845 
146 
708 
1264 
928 
102 
420 
1084 
832 
8 
62 
957 
1001 
489 
502 
1494 
1536 
896 
360 
983 
1016 
541 
-74 
707 
1080 
633 
-105 
426 
991 
719 
-90 
215 
916 
752 
37 
140 
977 
903 
228 
46 
965 
1039 
531 
91 
979 
1158 
737 
141 
906 
1289 
928 
255 
818 
1370 
1123 
348 
685 
1415 
1185 
450 
488 
1281 
1165 
482 
231 
1111 
1193 
633 
220 
1043 
1236 
803 
228 
962 
1361 
987 
255 
836 
1418 
1152 
370 
695 
1434 
1220 
501 
526 
1283 
1238 
509 
258 
1138 
1161 
612 
152 
993 
1199 
728 
42 
861 
1284 
975 
242 
807 
1426 
1203 
430 
747 
1438 
1238 
475 
448 
1242 
1082 
395 
126 
1057 
1120 
504 
68 
952 
1140 
635 
-10 
793 
1173 
805 
17 
541 
1113 
829 
77 
370 
1081 
893 
134 
99 
896 
730 
-53 
-364 
533 
697 
227 
-171 
692 
968 
575 
-28 
723 
1093 
803 
110 
669 
1207 
973 
221 
472 
1177 
1031 
359 
318 
1192 
1083 
356 
49 
880 
999 
448 
-17 
826 
1104 
677 
28 
789 
1170 
846 
82 
620 
1186 
932 
197 
477 
1148 
1074 
285 
295 
1114 
1096 
418 
160 
1049 
1147 
617 
85 
835 
1066 
624 
-90 
528 
960 
612 
-129 
457 
1097 
864 
139 
463 
1218 
1089 
398 
441 
1294 
1329 
633 
356 
1247 
1320 
754 
222 
1014 
1165 
705 
145 
989 
1506 
1311 
607 
1059 
1548 
1167 
164 
286 
1081 
965 
348 
271 
1065 
975 
288 
-58 
708 
737 
212 
-227 
705 
937 
536 
-36 
730 
1224 
930 
195 
749 
1365 
1096 
330 
552 
1391 
1234 
427 
446 
1251 
1206 
526 
223 
1101 
1077 
526 
2 
865 
1120 
681 
24 
709 
1185 
804 
110 
615 
1275 
1000 
276 
436 
1228 
1090 
420 
423 
1359 
1433 
878 
602 
1547 
1658 
1195 
615 
1463 
1721 
1275 
520 
1124 
1567 
1224 
418 
841 
1412 
1130 
385 
549 
1296 
1119 
399 
292 
1123 
1094 
382 
99 
979 
1057 
483 
-60 
762 
1058 
587 
-57 
593 
1174 
902 
117 
684 
1311 
1085 
365 
470 
1324 
1147 
411 
349 
1226 
1199 
560 
171 
964 
1047 
465 
-60 
726 
1005 
597 
-59 
600 
1111 
778 
35 
472 
1127 
919 
194 
415 
1129 
896 
295 
247 
1065 
995 
305 
-131 
704 
709 
106 
-479 
325 
667 
337 
-338 
415 
943 
646 
-51 
456 
1062 
904 
152 
418 
1276 
1177 
497 
465 
1307 
1241 
631 
238 
1084 
1290 
774 
203 
1026 
1197 
879 
232 
863 
1308 
1049 
306 
760 
1398 
1229 
454 
590 
1330 
1200 
478 
287 
1112 
1080 
401 
-15 
776 
843 
269 
-386 
520 
934 
578 
-50 
676 
1181 
884 
177 
654 
1355 
1249 
508 
702 
1621 
1709 
1133 
1069 
1889 
1802 
1043 
434 
1129 
1318 
833 
233 
996 
1251 
832 
104 
686 
1182 
887 
88 
438 
1089 
853 
131 
290 
1131 
1032 
280 
89 
929 
924 
245 
-230 
600 
729 
228 
-255 
609 
931 
558 
-59 
596 
1127 
861 
184 
605 
1325 
1115 
401 
562 
1466 
1429 
745 
629 
1559 
1583 
955 
557 
1434 
1595 
1063 
441 
1193 
1474 
1026 
273 
860 
1407 
1143 
391 
822 
1441 
1195 
464 
556 
1268 
1209 
454 
234 
1000 
1016 
415 
-119 
703 
854 
343 
-233 
553 
954 
578 
-62 
565 
1130 
869 
125 
454 
1150 
1016 
349 
482 
1308 
1264 
652 
440 
1298 
1339 
736 
309 
1124 
1298 
796 
156 
858 
1191 
767 
-39 
515 
1091 
770 
-55 
287 
975 
813 
39 
43 
904 
853 
128 
-100 
769 
784 
208 
-278 
499 
726 
272 
-302 
520 
909 
599 
-93 
516 
1162 
969 
288 
590 
1341 
1234 
487 
618 
1404 
1335 
629 
372 
1253 
1338 
728 
238 
1109 
1306 
812 
194 
922 
1232 
907 
142 
691 
1212 
876 
116 
402 
1083 
903 
166 
184 
1013 
878 
195 
-70 
731 
748 
175 
-289 
627 
970 
553 
3 
785 
1184 
876 
201 
755 
1306 
1008 
238 
492 
1195 
1012 
254 
267 
1071 
1030 
304 
91 
980 
1059 
476 
17 
850 
1088 
645 
-36 
673 
1085 
805 
234 
949 
1716 
1484 
623 
788 
1321 
975 
181 
295 
1182 
1132 
454 
168 
1098 
1133 
624 
150 
1022 
1248 
803 
159 
847 
1180 
863 
167 
668 
1203 
968 
158 
433 
1243 
1148 
397 
390 
1221 
1202 
575 
317 
1202 
1354 
824 
297 
1123 
1410 
1006 
308 
952 
1405 
1109 
346 
807 
1465 
1241 
428 
700 
1478 
1393 
681 
641 
1517 
1458 
815 
522 
1460 
1573 
1008 
478 
1297 
1554 
1127 
343 
982 
1401 
1033 
251 
691 
1257 
983 
184 
447 
1196 
1034 
328 
261 
1110 
1075 
449 
124 
996 
1123 
584 
-11 
833 
1057 
703 
99 
743 
1224 
886 
84 
519 
1115 
861 
123 
309 
1130 
1010 
321 
255 
1114 
1107 
516 
162 
1016 
1206 
707 
163 
1010 
1277 
825 
153 
808 
1214 
906 
100 
524 
1174 
920 
107 
187 
975 
794 
9 
-141 
654 
634 
88 
-162 
790 
1022 
536 
30 
909 
1236 
908 
247 
934 
1420 
1129 
327 
807 
1444 
1178 
362 
525 
1281 
1118 
357 
239 
1055 
1071 
468 
105 
949 
1111 
664 
119 
940 
1226 
821 
168 
818 
1292 
932 
172 
565 
1251 
1010 
235 
319 
1076 
1016 
290 
58 
851 
825 
242 
-151 
766 
1071 
599 
70 
863 
1231 
933 
252 
945 
1492 
1208 
420 
757 
1420 
1194 
395 
454 
1255 
1109 
367 
170 
1041 
1067 
515 
133 
1092 
1423 
1116 
650 
1428 
1722 
1264 
329 
712 
1247 
1013 
262 
522 
1220 
1030 
234 
230 
950 
770 
37 
-154 
800 
935 
521 
86 
952 
1187 
779 
275 
1066 
1467 
1146 
466 
1008 
1519 
1219 
435 
742 
1441 
1265 
476 
476 
1238 
1142 
456 
297 
1191 
1240 
715 
247 
1100 
1311 
835 
233 
1002 
1387 
1020 
274 
802 
1412 
1193 
423 
677 
1313 
1089 
386 
361 
1278 
1282 
746 
545 
1427 
1538 
977 
511 
1414 
1641 
1139 
550 
1255 
1661 
1270 
510 
973 
1332 
1021 
235 
435 
1164 
995 
225 
199 
1006 
965 
379 
99 
937 
1027 
534 
51 
909 
1101 
649 
-13 
675 
1062 
691 
-67 
427 
960 
662 
-183 
-43 
710 
617 
-23 
-58 
855 
971 
385 
80 
1057 
1272 
798 
282 
1150 
1428 
1079 
524 
1160 
1595 
1190 
389 
788 
1355 
1085 
301 
388 
1119 
1009 
341 
240 
1154 
1163 
564 
196 
1015 
1211 
680 
87 
938 
1273 
850 
135 
701 
1112 
822 
49 
313 
919 
660 
-63 
200 
1084 
1049 
452 
404 
1325 
1331 
720 
387 
1255 
1330 
816 
279 
1119 
1374 
906 
220 
853 
1331 
983 
113 
473 
1184 
1004 
252 
290 
1106 
1012 
318 
209 
1107 
1034 
419 
0 
857 
1052 
586 
66 
865 
1298 
967 
268 
911 
1471 
1247 
643 
1110 
1902 
1778 
1059 
1017 
1678 
1347 
448 
300 
1248 
1254 
698 
282 
1098 
1272 
797 
154 
927 
1280 
901 
161 
730 
1341 
1096 
306 
630 
1269 
1098 
401 
501 
1319 
1273 
612 
392 
1269 
1365 
813 
367 
1199 
1387 
927 
305 
983 
1406 
1060 
358 
903 
1426 
1191 
436 
701 
1437 
1271 
518 
571 
1371 
1312 
641 
371 
1288 
1379 
841 
394 
1217 
1539 
1102 
499 
1243 
1692 
1344 
613 
1169 
1714 
1476 
684 
825 
1533 
1290 
387 
329 
1142 
1117 
427 
38 
926 
1042 
507 
-21 
790 
1029 
620 
-107 
566 
1045 
691 
-73 
358 
992 
735 
-42 
159 
875 
751 
108 
