57002 
57036 
57087 
57127 
57175 
57224 
57287 
57317 
57345 
57368 
57435 
57506 
57516 
57549 
57632 
57737 
57813 
57871 
57893 
57980 
58093 
58197 
58294 
58403 
58469 
58508 
58528 
58552 
58631 
58793 
58937 
59006 
59051 
59107 
59177 
59215 
59329 
59436 
59525 
59596 
59605 
59604 
59689 
59804 
59897 
59964 
59955 
60020 
60107 
60157 
60183 
60212 
60295 
60391 
60425 
60468 
60535 
60586 
60615 
60648 
60718 
60727 
60667 
60643 
60660 
60686 
60776 
60846 
60826 
60823 
60842 
60879 
60883 
60930 
60970 
61019 
60990 
60938 
60914 
60855 
60786 
60738 
60736 
60769 
60722 
60686 
60583 
60447 
60298 
60169 
59956 
59729 
59527 
59266 
58985 
58708 
58427 
58191 
57933 
57651 
57367 
57106 
56822 
56518 
56234 
55992 
55762 
55528 
55283 
55034 
54742 
54473 
54271 
54052 
53869 
53759 
53672 
53520 
53348 
53232 
53198 
53128 
52988 
52939 
52943 
52902 
52888 
52885 
52839 
52800 
52790 
52825 
52912 
52959 
53032 
53085 
53184 
53283 
53345 
53421 
53520 
53627 
53679 
53767 
53894 
54064 
54249 
54352 
54444 
54590 
54742 
54918 
55097 
55210 
55320 
55445 
55589 
55756 
55921 
55988 
56052 
56158 
56319 
56456 
56562 
56679 
56773 
56843 
56988 
57085 
57181 
57262 
57371 
57459 
57535 
57656 
57753 
57757 
57729 
57747 
57758 
57815 
57897 
57949 
57940 
57978 
58018 
58040 
58080 
58137 
58202 
58232 
58285 
58319 
58376 
58466 
58492 
58569 
58637 
58705 
58776 
58818 
58866 
58948 
59024 
59098 
59156 
59218 
59270 
59377 
59462 
59525 
59595 
59661 
59719 
59779 
59812 
59858 
59939 
60001 
60005 
60045 
60093 
60163 
60196 
60212 
60272 
60351 
60420 
60447 
60493 
60553 
60561 
60601 
60659 
60768 
60801 
60796 
60755 
60754 
60763 
60724 
60723 
60755 
60756 
60719 
60758 
60756 
60797 
60855 
60879 
60862 
60829 
60797 
60857 
60883 
60855 
60799 
60731 
60664 
60615 
60577 
60550 
60475 
60367 
60198 
59954 
59748 
59508 
59296 
59075 
58792 
58498 
58227 
57971 
57709 
57427 
57161 
56898 
56633 
56320 
56034 
55796 
55556 
55332 
55124 
54947 
54711 
54577 
54419 
54269 
54102 
53924 
53764 
53678 
53582 
53521 
53495 
53485 
53416 
53334 
53285 
53246 
53218 
53239 
53287 
53288 
53293 
53298 
53324 
53336 
53340 
53334 
53313 
53303 
53279 
53343 
53393 
53416 
53442 
53459 
53483 
53519 
53618 
53719 
53807 
53879 
53972 
54070 
54159 
54231 
54271 
54333 
54374 
54406 
54481 
54535 
54609 
54686 
54757 
54820 
54845 
54943 
54999 
55026 
55084 
55132 
55203 
55251 
55248 
55289 
55309 
55377 
55484 
55474 
55477 
55491 
55518 
55576 
55616 
55686 
55740 
55830 
55926 
55973 
56032 
56056 
56053 
56090 
56163 
56218 
56289 
56355 
56433 
56527 
56620 
56677 
56712 
56758 
56810 
56907 
57030 
57146 
57238 
57306 
57406 
57462 
57522 
57594 
57643 
57672 
57769 
57886 
58042 
58116 
58159 
58212 
58259 
58309 
58428 
58515 
58618 
58706 
58788 
58827 
58829 
58866 
58919 
58990 
59054 
59089 
59125 
59155 
59209 
59265 
59294 
59370 
59425 
59408 
59439 
59524 
59608 
59635 
59630 
59575 
59500 
59462 
59388 
59251 
59090 
58934 
58740 
58524 
58277 
58050 
57840 
57597 
57326 
57079 
56829 
56542 
56265 
56014 
55728 
55443 
55218 
55017 
54792 
54556 
54329 
54186 
54102 
54006 
53829 
53668 
53580 
53489 
53406 
53322 
53298 
53278 
53212 
53151 
53129 
53134 
53231 
53296 
53307 
53323 
53310 
53408 
53549 
53636 
53642 
53701 
53738 
53866 
54016 
54166 
54284 
54400 
54534 
54699 
54895 
55068 
55223 
55369 
55467 
55591 
55716 
55864 
55993 
56132 
56245 
56350 
56465 
56668 
56812 
56890 
56989 
57090 
57182 
57251 
57341 
57415 
57490 
57596 
57692 
57747 
57813 
57885 
57954 
57978 
57998 
58042 
58084 
58136 
58222 
58256 
58277 
58325 
58366 
58451 
58536 
58627 
58714 
58741 
58768 
58793 
58878 
58939 
58955 
59005 
59034 
59104 
59169 
59231 
59283 
59355 
59428 
59469 
59496 
59530 
59571 
59605 
59650 
59750 
59845 
59893 
59898 
59984 
60030 
60088 
60176 
60196 
60201 
60258 
60287 
60330 
60393 
60469 
60503 
60502 
60510 
60544 
60606 
60650 
60699 
60727 
60763 
60801 
60851 
60890 
60873 
60825 
60828 
60837 
60790 
60780 
60806 
60850 
60841 
60825 
60823 
60831 
60858 
60842 
60767 
60687 
60608 
60475 
60344 
60148 
59900 
59716 
59508 
59265 
59046 
58838 
58573 
58330 
58118 
57844 
57592 
57310 
57019 
56735 
56532 
56328 
56056 
55784 
55525 
55304 
55086 
54922 
54758 
54627 
54506 
54450 
54396 
54351 
54252 
54143 
54065 
54007 
53991 
54054 
54100 
54137 
54149 
54150 
54179 
54205 
54255 
54278 
54329 
54403 
54441 
54529 
54618 
54699 
54825 
54936 
55021 
55099 
55192 
55356 
55501 
55665 
55790 
55915 
56035 
56180 
56336 
56473 
56579 
56660 
56764 
56877 
56968 
57077 
57191 
57313 
57433 
57494 
57599 
57695 
57793 
57907 
57969 
58039 
58149 
58224 
58278 
58319 
58321 
58361 
58484 
58583 
58633 
58635 
58630 
58653 
58713 
58769 
58798 
58872 
58907 
58881 
58914 
59021 
59112 
59121 
59061 
59138 
59237 
59318 
59347 
59362 
59400 
59458 
59512 
59553 
59601 
59658 
59747 
59823 
59861 
59918 
59942 
59946 
59997 
60069 
60104 
60129 
60148 
60171 
60203 
60244 
60293 
60317 
60319 
60359 
60399 
60423 
60508 
60514 
60511 
60541 
60573 
60610 
60655 
60682 
60716 
60748 
60750 
60746 
60809 
60797 
60744 
60744 
60779 
60832 
60833 
60851 
60856 
60833 
60798 
60783 
60797 
60858 
60905 
60901 
60896 
60910 
60965 
60988 
60985 
60970 
60963 
60997 
60980 
60955 
60925 
60834 
60676 
60513 
60380 
60183 
59957 
59707 
59516 
59281 
58981 
58714 
58449 
58179 
57907 
57668 
57431 
57167 
56963 
56776 
56532 
56291 
56098 
55946 
55793 
55669 
55518 
55360 
55230 
55143 
55035 
54922 
54870 
54822 
54774 
54742 
54714 
54675 
54678 
54667 
54661 
54697 
54747 
54823 
54878 
54925 
54931 
55002 
55096 
55179 
55266 
55365 
55467 
55554 
55633 
55722 
55872 
56022 
56113 
56183 
56284 
56411 
56503 
56620 
56712 
56819 
56962 
57097 
57149 
57192 
57265 
57324 
57407 
57461 
57517 
57591 
57607 
57652 
57684 
57715 
57777 
57807 
57832 
57849 
57851 
57834 
57869 
57943 
57950 
57945 
57946 
58012 
58026 
58016 
58040 
58021 
58051 
58113 
58117 
58128 
58137 
58114 
58104 
58104 
58194 
58207 
58252 
58298 
58342 
58361 
58373 
58452 
58512 
58584 
58619 
58691 
58766 
58822 
58855 
58901 
58934 
58990 
59096 
59200 
59280 
59335 
59396 
59458 
59510 
59556 
59567 
59636 
59705 
59746 
59811 
59851 
59829 
59837 
59907 
59995 
60056 
60103 
60145 
60188 
60219 
60298 
60342 
60379 
60434 
60474 
60493 
60509 
60518 
60566 
60648 
60699 
60725 
60828 
60914 
60974 
61032 
61042 
61062 
61051 
61010 
61046 
61069 
61071 
61115 
61127 
61180 
61171 
61127 
61110 
61036 
60960 
60912 
60845 
60708 
60560 
60401 
60157 
59893 
59626 
59329 
59119 
58883 
58594 
58366 
58145 
57914 
57727 
57507 
57298 
57074 
56830 
56614 
56446 
56320 
56180 
56026 
55920 
55830 
55697 
55568 
55472 
55371 
55308 
55218 
55131 
55059 
55068 
55090 
55051 
55017 
54988 
54987 
55011 
55001 
54974 
54954 
55002 
55034 
55095 
55123 
55149 
55209 
55267 
55300 
55313 
55345 
55389 
55531 
55568 
55575 
55629 
55685 
55776 
55863 
55891 
55924 
56013 
56078 
56084 
56155 
56201 
56261 
56325 
56427 
56530 
56567 
56627 
56714 
56826 
56946 
57010 
57060 
57158 
57249 
57310 
57376 
57386 
57440 
57549 
57632 
57704 
57764 
57784 
57873 
57991 
58122 
58184 
58227 
58274 
58332 
58405 
58494 
58578 
58677 
58783 
58889 
58951 
59034 
59080 
59089 
59073 
59073 
59112 
59169 
59247 
59282 
59389 
59480 
59524 
59603 
59663 
59704 
59738 
59756 
59826 
59922 
60001 
60036 
60072 
60095 
60106 
60158 
60273 
60316 
60335 
60362 
60334 
60381 
60435 
60423 
60411 
60453 
60485 
60479 
60478 
60512 
60509 
60486 
60527 
60621 
60667 
60721 
60749 
60745 
60782 
60769 
60687 
60661 
60725 
60744 
60713 
60746 
60786 
60791 
60814 
60816 
60785 
60787 
60804 
60825 
60819 
60825 
60816 
60772 
60727 
60654 
60533 
60421 
60312 
60201 
60091 
59930 
59699 
59461 
59269 
59141 
58983 
58829 
58681 
58524 
58349 
58181 
58017 
57870 
57718 
57578 
57449 
57297 
57156 
57047 
56957 
56817 
56703 
56619 
56582 
56556 
56463 
56308 
56176 
56130 
56116 
56104 
56102 
56102 
56058 
56052 
56038 
56064 
56079 
56076 
56059 
56092 
56099 
56117 
56152 
56164 
56174 
56217 
56233 
56273 
56355 
56435 
56470 
56495 
56534 
56605 
56677 
56741 
56795 
56853 
56883 
56920 
56997 
57066 
57126 
57190 
57239 
57301 
57400 
57544 
57619 
57698 
57768 
57813 
57842 
57901 
57984 
58047 
58107 
58166 
58225 
58288 
58386 
58459 
58524 
58590 
58656 
58748 
58837 
58880 
58945 
59008 
59045 
59097 
59135 
59177 
59250 
59312 
59388 
59420 
59514 
59613 
59693 
59732 
59773 
59815 
59865 
59925 
59978 
60008 
60026 
60079 
60125 
60113 
60112 
60195 
60265 
60283 
60328 
60380 
60351 
60339 
60350 
60354 
60375 
60449 
60498 
60521 
60504 
60477 
60478 
60482 
60482 
60511 
60495 
60468 
60506 
60559 
60569 
60584 
60588 
60586 
60613 
60652 
60634 
60617 
60642 
60674 
60709 
60748 
60767 
60766 
60837 
60882 
60920 
60991 
61036 
61036 
61001 
61052 
61103 
61107 
61144 
61195 
61251 
61273 
61292 
61343 
61402 
61433 
61468 
61488 
61501 
61513 
61508 
61580 
61665 
61657 
61652 
61659 
61624 
61605 
61651 
61657 
61622 
61654 
61662 
61684 
61737 
61762 
61767 
61731 
61721 
61708 
61685 
61663 
61679 
61687 
61664 
61653 
61590 
61514 
61485 
61450 
61486 
61564 
61556 
61526 
61492 
61452 
61404 
61415 
61384 
61355 
61322 
61321 
61345 
61342 
61364 
61390 
61404 
61416 
61419 
61394 
61345 
61336 
61383 
61421 
61420 
61453 
61487 
61565 
61627 
61591 
61545 
61535 
61596 
61595 
61533 
61518 
61558 
61604 
61619 
61646 
61629 
61613 
61601 
61595 
61610 
61622 
61625 
61646 
61673 
61692 
61709 
61712 
61718 
61708 
61724 
61744 
61765 
61779 
61815 
61789 
61773 
61767 
61821 
61854 
61877 
61886 
61903 
61928 
61934 
61912 
61936 
61996 
61949 
61912 
61893 
61920 
61946 
61954 
61930 
61927 
61964 
62009 
61962 
61961 
61967 
61992 
62011 
62021 
62094 
62109 
62101 
62062 
62019 
62007 
62000 
62009 
62028 
62056 
62075 
62088 
62108 
62135 
62120 
62137 
62137 
62132 
62137 
62124 
62103 
62134 
62171 
62183 
62204 
62191 
62187 
62222 
62240 
62261 
62229 
62204 
62202 
62149 
62144 
62164 
62155 
62131 
62165 
62165 
62178 
62198 
62193 
62159 
62118 
62119 
62132 
62153 
62176 
62203 
62170 
62168 
62185 
62176 
62165 
62177 
62166 
62174 
62220 
62210 
62168 
62163 
62172 
62187 
62234 
62261 
62239 
62213 
62222 
62220 
62184 
62124 
62108 
62154 
62155 
62197 
62196 
62183 
62142 
62125 
62172 
62163 
62142 
62105 
62069 
62041 
62046 
62029 
62005 
61998 
62021 
62063 
62084 
62074 
62032 
62024 
62048 
62027 
61998 
61905 
61897 
61903 
61884 
61903 
61900 
61851 
61810 
61814 
61822 
61823 
61833 
61826 
61788 
61782 
61827 
61847 
61822 
61832 
61810 
61804 
61713 
61725 
61772 
61787 
61782 
61742 
61727 
61771 
61767 
61738 
61700 
61679 
61687 
61723 
61733 
61701 
61653 
61606 
61605 
61669 
61703 
61682 
61691 
61685 
61643 
61632 
61609 
61603 
61595 
61557 
61507 
61486 
61499 
61505 
61478 
61443 
61445 
61441 
61387 
61341 
61297 
61313 
61328 
61343 
61338 
61336 
61279 
61222 
61184 
61156 
61126 
61106 
61063 
61056 
61049 
61046 
61007 
60965 
60951 
60893 
60848 
60838 
60822 
60798 
60808 
60814 
60834 
60819 
60785 
60747 
60740 
60780 
60776 
60794 
60768 
60779 
60803 
60823 
60830 
60802 
60754 
60771 
60782 
60800 
60834 
60803 
60728 
60686 
60677 
60702 
60737 
60734 
60735 
60713 
60666 
60694 
60716 
60695 
60627 
60621 
60627 
60618 
60635 
60613 
60538 
60512 
60520 
60481 
60432 
60472 
60497 
60540 
60534 
60495 
60509 
60499 
60490 
60491 
60510 
60529 
60502 
60471 
60493 
60513 
60489 
60437 
60405 
60356 
60372 
60428 
60489 
60480 
60439 
60465 
60497 
60558 
60545 
60502 
60458 
60468 
60507 
60494 
60528 
60496 
60454 
60467 
60518 
60497 
60477 
60465 
60400 
60334 
60299 
60282 
60257 
60251 
60260 
60241 
60207 
60171 
60193 
60207 
60179 
60180 
60203 
60159 
60119 
60141 
60203 
60217 
60261 
60301 
60295 
60285 
60281 
60269 
60276 
60261 
60247 
60253 
60271 
60273 
60225 
60267 
60335 
60316 
60288 
60328 
60326 
60289 
60300 
60420 
60464 
60454 
60407 
60394 
60429 
60455 
60463 
60470 
60446 
60404 
60402 
60413 
60449 
60455 
60486 
60478 
60457 
60453 
60461 
60436 
60409 
60449 
60478 
60451 
60457 
60473 
60476 
60466 
60513 
60527 
60538 
60565 
60548 
60565 
60613 
60658 
60618 
60614 
60652 
60671 
60688 
60755 
60809 
60842 
60845 
60836 
60879 
60888 
60884 
60883 
60882 
60865 
60888 
60899 
60908 
60947 
60959 
60950 
60921 
60913 
60906 
60878 
60902 
60973 
61007 
61016 
60998 
61036 
61056 
61047 
61055 
61105 
61117 
61122 
61098 
61093 
61092 
61115 
61137 
61136 
61161 
61154 
61202 
61243 
61253 
61244 
61248 
61247 
61273 
61274 
61285 
61342 
61418 
61420 
61413 
61396 
61393 
61396 
61425 
61462 
61492 
61509 
61545 
61595 
61648 
61671 
61664 
61667 
61649 
61632 
61623 
61643 
61631 
61604 
61626 
61663 
61705 
61722 
61737 
61743 
61736 
61718 
61767 
61765 
61800 
61822 
61813 
61793 
61804 
61825 
61842 
61818 
61808 
61805 
61773 
61753 
61758 
61718 
61660 
61645 
61681 
61676 
61618 
61602 
61612 
61602 
61579 
61576 
61520 
61450 
61456 
61485 
61486 
61464 
61397 
61370 
61374 
61341 
61295 
61289 
61251 
61239 
61261 
61217 
61209 
61252 
61260 
61238 
61188 
61162 
61148 
61163 
61184 
61191 
61171 
61105 
61094 
61124 
61104 
61082 
61068 
61050 
61015 
60995 
60970 
60926 
60895 
60945 
60967 
60933 
60917 
60946 
60976 
61034 
61061 
61053 
61049 
61025 
61015 
61006 
60999 
61010 
61020 
61032 
61031 
60987 
60964 
60989 
61002 
60952 
60891 
60885 
60927 
60948 
60973 
61039 
61097 
61132 
61138 
61142 
61145 
61094 
61034 
60991 
60972 
60992 
61034 
61079 
61071 
61045 
61042 
61042 
61036 
61046 
61084 
61119 
61142 
61108 
61071 
61058 
61082 
61102 
61132 
61172 
61186 
61217 
61240 
61264 
61243 
61204 
61166 
61206 
61252 
61216 
61195 
61179 
61160 
61162 
61151 
61139 
61127 
61116 
61151 
61186 
61159 
61147 
61118 
61127 
61147 
61146 
61167 
61218 
61247 
61237 
61174 
61138 
61153 
61177 
61196 
61169 
61179 
61187 
61190 
61245 
61266 
61291 
61274 
61202 
61181 
61194 
61222 
61278 
61310 
61300 
61307 
61327 
61348 
61379 
61390 
61426 
61416 
61407 
61374 
61377 
61390 
61402 
61423 
61439 
61471 
61457 
61413 
61368 
61323 
61270 
61241 
61236 
61183 
61157 
61100 
61066 
61048 
61036 
60957 
60910 
60829 
60698 
60592 
60564 
60527 
60468 
60404 
60311 
60259 
60230 
60139 
60036 
59951 
59945 
59949 
59937 
59894 
59863 
59847 
59815 
59770 
59744 
59751 
59685 
59640 
59663 
59674 
59639 
59654 
59653 
59587 
59548 
59545 
59530 
59536 
59605 
59654 
59702 
59773 
59809 
59831 
59849 
59857 
59886 
59895 
59940 
60011 
60044 
60037 
60064 
60070 
60081 
60121 
60197 
60239 
60266 
60271 
60287 
60313 
60400 
60422 
60400 
60404 
60424 
60412 
60411 
60466 
60540 
60570 
60593 
60643 
60634 
60584 
60610 
60653 
60741 
60741 
60731 
60791 
60827 
60810 
60852 
60914 
60998 
61029 
61016 
61045 
61092 
61120 
61134 
61152 
61197 
61259 
61310 
61303 
61298 
61317 
61333 
61323 
61335 
61388 
61420 
61426 
61462 
61482 
61511 
61564 
61597 
61567 
61560 
61592 
61605 
61587 
61570 
61561 
61615 
61686 
61694 
61644 
61666 
61704 
61725 
61710 
61700 
61723 
61726 
61741 
61727 
61706 
61689 
61696 
61710 
61682 
61632 
61636 
61678 
61720 
61719 
61696 
61669 
61648 
61677 
61726 
61705 
61741 
61789 
61808 
61816 
61828 
61860 
61878 
61866 
61837 
61814 
61830 
61823 
61805 
61759 
61765 
61761 
61771 
61722 
61686 
61664 
61605 
61565 
61492 
61428 
61382 
61352 
61361 
61280 
61217 
61178 
61091 
61041 
61056 
61054 
61002 
60945 
60926 
60893 
60893 
60876 
60851 
60855 
60852 
60822 
60782 
60763 
60780 
60814 
60857 
60874 
60881 
60868 
60892 
60880 
60896 
60964 
61015 
61019 
61040 
61055 
61068 
61097 
61124 
61117 
61153 
61199 
61218 
61269 
61351 
61447 
61488 
61499 
61539 
61587 
61585 
61576 
61597 
61613 
61646 
61709 
61783 
61824 
61803 
61782 
61804 
61800 
61800 
61841 
61893 
61935 
61963 
61945 
61874 
61906 
61917 
61903 
61900 
61881 
61870 
61883 
61885 
61930 
61957 
61943 
61892 
61872 
61946 
61956 
61979 
62004 
62044 
62032 
61975 
61949 
61930 
61970 
61984 
61961 
62002 
62037 
62071 
62083 
62053 
62025 
62072 
62134 
62166 
62219 
62226 
62214 
62168 
62096 
62111 
62181 
62230 
62254 
62243 
62265 
62252 
62206 
62165 
62155 
62156 
62146 
62157 
62203 
62224 
62219 
62239 
62285 
62289 
62280 
62302 
62326 
62277 
62248 
62251 
62305 
62311 
62300 
62290 
62268 
62239 
62256 
62278 
62283 
62261 
62276 
62265 
62226 
62247 
62276 
62300 
62351 
62374 
62395 
62421 
62456 
62473 
62442 
62446 
62487 
62494 
62528 
62570 
62579 
62537 
62492 
62475 
62438 
62454 
62507 
62492 
62437 
62404 
62372 
62341 
62341 
62353 
62317 
62320 
62327 
62310 
62218 
62107 
62089 
62074 
62043 
61968 
61893 
61889 
61891 
61887 
61867 
61882 
61882 
61858 
61820 
61789 
61767 
61776 
61788 
61789 
61746 
61758 
61697 
61608 
61574 
61522 
61456 
61476 
61474 
61446 
61424 
61406 
61386 
61390 
61378 
61373 
61357 
61338 
61350 
61344 
61295 
61254 
61218 
61165 
61185 
61147 
61081 
61095 
61114 
61141 
61132 
61073 
61031 
61028 
61070 
61088 
61057 
61027 
61025 
61053 
61081 
61052 
61038 
61076 
61072 
61037 
61035 
61054 
61043 
61024 
60979 
60954 
60957 
60974 
60982 
60977 
60969 
60952 
60996 
61033 
61023 
61046 
61068 
61070 
61042 
61037 
61021 
61063 
61135 
61115 
61125 
61174 
61214 
61192 
61222 
61207 
61174 
61209 
61232 
61246 
61231 
61249 
61242 
61255 
61364 
61409 
61352 
61333 
61362 
61386 
61387 
61424 
61411 
61391 
61406 
61368 
61353 
61360 
61375 
61348 
61361 
61399 
61365 
61332 
61363 
61417 
61440 
61456 
61467 
61436 
61381 
61375 
61397 
61420 
61444 
61469 
61421 
61341 
61332 
61362 
61387 
61336 
61294 
61301 
61301 
61309 
61338 
61314 
61312 
61377 
61437 
61476 
61491 
61486 
61447 
61420 
61423 
61413 
61417 
61402 
61412 
61415 
61428 
61427 
61422 
61372 
61372 
61374 
61375 
61364 
61296 
61324 
61326 
61328 
61299 
61209 
61132 
61089 
61079 
61053 
61024 
60961 
60961 
60939 
60969 
60979 
60943 
60950 
60961 
60929 
60882 
60844 
60838 
60819 
60812 
60836 
60852 
60820 
60784 
60760 
60735 
60723 
60719 
60717 
60733 
60767 
60705 
60672 
60671 
60682 
60704 
60723 
60678 
60652 
60664 
60690 
60670 
60672 
60723 
60756 
60688 
60650 
60660 
60689 
60672 
60651 
60648 
60628 
60616 
60566 
60551 
60542 
60524 
60552 
60587 
60596 
60616 
60629 
60661 
60701 
60699 
60697 
60692 
60667 
60637 
60606 
60607 
60611 
60603 
60600 
60569 
60574 
60605 
60629 
60664 
60691 
60671 
60618 
60593 
60602 
60644 
60670 
60651 
60669 
60681 
60699 
60680 
60663 
60725 
60803 
60792 
60778 
60770 
60762 
60778 
60772 
60699 
60668 
60688 
60671 
60635 
60659 
60654 
60633 
60632 
60647 
60661 
60676 
60680 
60691 
60761 
60773 
60749 
60697 
60645 
60636 
60655 
60685 
60707 
60759 
60791 
60802 
60772 
60709 
60677 
60696 
60708 
60696 
60639 
60607 
60632 
60666 
60634 
60638 
60686 
60674 
60667 
60674 
60675 
60630 
60640 
60648 
60642 
60625 
60610 
60572 
60595 
60612 
60558 
60495 
60510 
60504 
60455 
60424 
60440 
60444 
60435 
60417 
60380 
60330 
60269 
60228 
60231 
60225 
60254 
60253 
60161 
60085 
60011 
59976 
59982 
59993 
59990 
59949 
59939 
59935 
59964 
59942 
59889 
59875 
59861 
59865 
59873 
59913 
59961 
59991 
59972 
59948 
59931 
59917 
59917 
59933 
59951 
59945 
59909 
59895 
59917 
59892 
59862 
59828 
59837 
59858 
59865 
59853 
59859 
59895 
59893 
59907 
59908 
59912 
59907 
59886 
59874 
59888 
59897 
59915 
59862 
59885 
59913 
59909 
59922 
59942 
59968 
60001 
59982 
59976 
59997 
59984 
59959 
59930 
59908 
59936 
59939 
59954 
59980 
60019 
60050 
60068 
60083 
60087 
60086 
60010 
59982 
60027 
60114 
60163 
60204 
60204 
60249 
60264 
60266 
60245 
60233 
60246 
60282 
60293 
60263 
60231 
60234 
60242 
60276 
60288 
60230 
60209 
60171 
60161 
60161 
60169 
60190 
60229 
60235 
60238 
60241 
60259 
60327 
60370 
60370 
60377 
60402 
60396 
60353 
60296 
60303 
60311 
60314 
60303 
60315 
60275 
60212 
60194 
60206 
60246 
60295 
60289 
60278 
60297 
60321 
60372 
60437 
60489 
60533 
60537 
60491 
60463 
60443 
60435 
60448 
60525 
60498 
60475 
60478 
60484 
60513 
60452 
60384 
60311 
60261 
60219 
60171 
60119 
60071 
60063 
60034 
59993 
59944 
59904 
59878 
59839 
59785 
59744 
59731 
59698 
59687 
59620 
59588 
59553 
59556 
59496 
59422 
59392 
59378 
59330 
59304 
59336 
59358 
59386 
59413 
59438 
59426 
59386 
59359 
59356 
59368 
59390 
59402 
59379 
59358 
59343 
59304 
59287 
59292 
59308 
59336 
59348 
59362 
59403 
59413 
59377 
59330 
59329 
59332 
59342 
59305 
59294 
59294 
59318 
59347 
59363 
59409 
59432 
59410 
59356 
59332 
59337 
59351 
59343 
59364 
59430 
59508 
59523 
59485 
59501 
59482 
59511 
59571 
59576 
59546 
59507 
59533 
59539 
59582 
59623 
59616 
59615 
59637 
59672 
59727 
59750 
59715 
59726 
59703 
59656 
59691 
59743 
59759 
59756 
59704 
59722 
59750 
59779 
59783 
59839 
59865 
59857 
59851 
59883 
59896 
59907 
59909 
59932 
59974 
60006 
60001 
59963 
59980 
59995 
60039 
60071 
60051 
60058 
60071 
60086 
60086 
60080 
60124 
60167 
60160 
60183 
60191 
60205 
60244 
60288 
60269 
60275 
60290 
60356 
60402 
60380 
60367 
60365 
60370 
60409 
60433 
60425 
60456 
60449 
60445 
60448 
60484 
60547 
60580 
60592 
60577 
60585 
60623 
60638 
60665 
60733 
60764 
60733 
60741 
60828 
60886 
60926 
60913 
60813 
60728 
60684 
60646 
60653 
60638 
60601 
60584 
60564 
60495 
60471 
60502 
60524 
60527 
60532 
60560 
60576 
60511 
60495 
60493 
60446 
60419 
60423 
60411 
60346 
60310 
60300 
60269 
60266 
60246 
60226 
60251 
60247 
60250 
60239 
60234 
60215 
60184 
60156 
60209 
60213 
60194 
60173 
60178 
60198 
60176 
60149 
60202 
60255 
60267 
60226 
60221 
60232 
60250 
60247 
60277 
60307 
60303 
60310 
60338 
60344 
60342 
60315 
60261 
60255 
60302 
60310 
60329 
60338 
60337 
60320 
60275 
60303 
60344 
60369 
60415 
60444 
60444 
60424 
60465 
60514 
60498 
60447 
60469 
60539 
60586 
60626 
60625 
60595 
60569 
60551 
60561 
60590 
60616 
60617 
60610 
60573 
60554 
60655 
60692 
60698 
60732 
60738 
60737 
60739 
60750 
60757 
60740 
60721 
60728 
60734 
60762 
60776 
60791 
60784 
60781 
60794 
60844 
60836 
60817 
60781 
60770 
60816 
60831 
60842 
60831 
60841 
60847 
60843 
60851 
60824 
60823 
60833 
60841 
60834 
60856 
60864 
60836 
60816 
60823 
60883 
60930 
60933 
60958 
60985 
61003 
60999 
60993 
60991 
61002 
60989 
61011 
61045 
61083 
61135 
61139 
61117 
61103 
61126 
61163 
61130 
61178 
61193 
61208 
61224 
61148 
61103 
61118 
61137 
61106 
61040 
61012 
61006 
60988 
60976 
60976 
60960 
60940 
60909 
60881 
60853 
60814 
60794 
60771 
60707 
60647 
60597 
60579 
60578 
60548 
60526 
60486 
60462 
60404 
60393 
60404 
60393 
60358 
60339 
60299 
60301 
60328 
60298 
60293 
60322 
60333 
60356 
60337 
60293 
60295 
60269 
60250 
60288 
60266 
60249 
60174 
60156 
60166 
60159 
60136 
60158 
60195 
60226 
60242 
60230 
60218 
60197 
60165 
60170 
60173 
60195 
60223 
60237 
60267 
60275 
60224 
60250 
60275 
60287 
60279 
60341 
60354 
60348 
60354 
60355 
60335 
60365 
60382 
60339 
60350 
60429 
60470 
60484 
60560 
60629 
60602 
60553 
60570 
60599 
60597 
60612 
60657 
60680 
60674 
60673 
60727 
60808 
60772 
60756 
60778 
60754 
60748 
60758 
60797 
60870 
60897 
60910 
60919 
60919 
60938 
60972 
61021 
61043 
61016 
61055 
61118 
61160 
61143 
61144 
61152 
61202 
61219 
61189 
61227 
61255 
61251 
61191 
61181 
61234 
61303 
61315 
61288 
61283 
61295 
61314 
61370 
61402 
61414 
61467 
61453 
61444 
61508 
61599 
61632 
61601 
61558 
61525 
61511 
61449 
61431 
61470 
61496 
61564 
61622 
61670 
61722 
61729 
61719 
61727 
61745 
61769 
61790 
61760 
61764 
61815 
61827 
61777 
61682 
61606 
61540 
61522 
61563 
61513 
61407 
61336 
61297 
61225 
61154 
61084 
60985 
60901 
60831 
60764 
60679 
60603 
60569 
60560 
60511 
60453 
60453 
60408 
60318 
60264 
60251 
60219 
60174 
60091 
60031 
59981 
59944 
59917 
59891 
59884 
59891 
59893 
59869 
59861 
59848 
59803 
59805 
59882 
59908 
59837 
59821 
59863 
59849 
59807 
59794 
59782 
59799 
59860 
59875 
59900 
59950 
59975 
60011 
60060 
60077 
60076 
60114 
60109 
60082 
60093 
60099 
60092 
60170 
60227 
60226 
60225 
60253 
60233 
60221 
60209 
60246 
60344 
60415 
60389 
60329 
60310 
60339 
60405 
60462 
60531 
60554 
60591 
60629 
60625 
60615 
60620 
60655 
60683 
60661 
60723 
60830 
60921 
60915 
60899 
60896 
60903 
60968 
61025 
61052 
61087 
61126 
61160 
61225 
61260 
61220 
61230 
61241 
61226 
61259 
61290 
61327 
61364 
61358 
61402 
61435 
61459 
61516 
61499 
61518 
61535 
61549 
61572 
61600 
61588 
61616 
61664 
61739 
61753 
61760 
61770 
61755 
61739 
61748 
61798 
61868 
61931 
61943 
61935 
61912 
61901 
61922 
61905 
61871 
61903 
61994 
62000 
62002 
62020 
62027 
62043 
62080 
62169 
62226 
62222 
62217 
62219 
62208 
62218 
62209 
62226 
62251 
62332 
62354 
62352 
62314 
62341 
62360 
62341 
62310 
62256 
62232 
62181 
62174 
62137 
62001 
61922 
61890 
61790 
61724 
61677 
61580 
61488 
61462 
61429 
61367 
61274 
61215 
61157 
61081 
61007 
60916 
60880 
60828 
60736 
60708 
60677 
60642 
60575 
60499 
60455 
60405 
60402 
60351 
60335 
60299 
60246 
60241 
60250 
60223 
60214 
60193 
60168 
60145 
60133 
60162 
60194 
60226 
60232 
60209 
60207 
60219 
60191 
60208 
60291 
60340 
60299 
60286 
60312 
60312 
60303 
60346 
60361 
60344 
60320 
60412 
60479 
60437 
60442 
60496 
60474 
60433 
60452 
60553 
60678 
60749 
60743 
60731 
60713 
60751 
60787 
60839 
60892 
60919 
60976 
61013 
61008 
60979 
60964 
60966 
60990 
61059 
61103 
61127 
61169 
61202 
61242 
61282 
61259 
61312 
61409 
61476 
61520 
61539 
61571 
61607 
61638 
61706 
61734 
61741 
61747 
61762 
61785 
61806 
61871 
61964 
62000 
61989 
62001 
62034 
62081 
62117 
62111 
62142 
62173 
62169 
62138 
62141 
62190 
62196 
62208 
62245 
62263 
62315 
62326 
62302 
62321 
62333 
62327 
62309 
62355 
62418 
62428 
62416 
62444 
62485 
62501 
62544 
62512 
62501 
62551 
62549 
62535 
62568 
62595 
62629 
62212 
62179 
62195 
62172 
62128 
62039 
61968 
61925 
61923 
61889 
61852 
61852 
61871 
61809 
61729 
61720 
61727 
61710 
61670 
61664 
61690 
61763 
61875 
61886 
61855 
61873 
61899 
61921 
61925 
61934 
61968 
62008 
62031 
62087 
62111 
62099 
62131 
62202 
62274 
62270 
62259 
62244 
62258 
62337 
62390 
62414 
62442 
62407 
62356 
62346 
62352 
62332 
62337 
62374 
62395 
62413 
62469 
62492 
62555 
62628 
62634 
62572 
62537 
62575 
62610 
62637 
62656 
62636 
62645 
62697 
62726 
62776 
62847 
62909 
62935 
62978 
62997 
63042 
63108 
63146 
63179 
63218 
63262 
63278 
63266 
63245 
63253 
63234 
63230 
63305 
63406 
63404 
63424 
63454 
63428 
63442 
63474 
63498 
63511 
63507 
63570 
63631 
63668 
63641 
63624 
63680 
63748 
63808 
63868 
63902 
63926 
63909 
63873 
63857 
63855 
63898 
63939 
63965 
64005 
61587 
61595 
61636 
61665 
61702 
61737 
61796 
61790 
61805 
61845 
61840 
61851 
61880 
61905 
61942 
61959 
62023 
62073 
62080 
62113 
62162 
62228 
62297 
62312 
62280 
62273 
62355 
62482 
62531 
62558 
62591 
62589 
62591 
62643 
62656 
62702 
62758 
62809 
62913 
63022 
63116 
63093 
63074 
63102 
63113 
63127 
63120 
63145 
63167 
63212 
63269 
63315 
63331 
63321 
63320 
63297 
63297 
63336 
63370 
63462 
63504 
63531 
63642 
63711 
63736 
63730 
63799 
63921 
63959 
63945 
63928 
63938 
63910 
63900 
63868 
63839 
63849 
63864 
63862 
63844 
63819 
63782 
63757 
63763 
63765 
63768 
63826 
63945 
63973 
64012 
64033 
64058 
64052 
64082 
64105 
64118 
64166 
64193 
64173 
64187 
64193 
64199 
64216 
64210 
64200 
64201 
64217 
64221 
64192 
64196 
64229 
64273 
64229 
64173 
64116 
64047 
64041 
64053 
64086 
63653 
63704 
63804 
63881 
63845 
63847 
63883 
63910 
63973 
64075 
64144 
64113 
64113 
64149 
64169 
64223 
64252 
64286 
64337 
64421 
64494 
64530 
64555 
64572 
64601 
64612 
64605 
64635 
64672 
64724 
64696 
64691 
64742 
64785 
64804 
64818 
64848 
64856 
64893 
64891 
64873 
64936 
64942 
64915 
64892 
64877 
64901 
64949 
65000 
65040 
64979 
64947 
64973 
65006 
65021 
65031 
65036 
65050 
65051 
65020 
65038 
65037 
65052 
65074 
65096 
65144 
65154 
65192 
65207 
65199 
65180 
65164 
65099 
65081 
65142 
65157 
65116 
65117 
65058 
65017 
64992 
64918 
64877 
64876 
64881 
64883 
64878 
64897 
64927 
64952 
64987 
64982 
64961 
64936 
64944 
64952 
64945 
64912 
64867 
64818 
64700 
64579 
64480 
64320 
64141 
63965 
63798 
63589 
63350 
63118 
62891 
62683 
62542 
62372 
62194 
62027 
61860 
61695 
61537 
61391 
61204 
61082 
60946 
60825 
60736 
60633 
60554 
60484 
60405 
60331 
60247 
60208 
60186 
60156 
60156 
60116 
60074 
60003 
59964 
60007 
60030 
59992 
60043 
60111 
60131 
60163 
60159 
60222 
60267 
60287 
60335 
60411 
60491 
60570 
60638 
60727 
60824 
60882 
60934 
60991 
61044 
61067 
61122 
61208 
61289 
61372 
61466 
61572 
61683 
61794 
61855 
61961 
62024 
62095 
62202 
62287 
62291 
62338 
62407 
62480 
62580 
62630 
62679 
62727 
62774 
62834 
62868 
62890 
62946 
62983 
63000 
63056 
63099 
63112 
63119 
63138 
63163 
63188 
63255 
63335 
63377 
63413 
63436 
63456 
63485 
63533 
63589 
63638 
63671 
63698 
63752 
63810 
63863 
63907 
63966 
63997 
64005 
64044 
64049 
64020 
64009 
64018 
64043 
64084 
64069 
64061 
64062 
64164 
64260 
64304 
64315 
64315 
64368 
64382 
64329 
64344 
64401 
64404 
64443 
64435 
64443 
64449 
64427 
64420 
64473 
64540 
64581 
64623 
64654 
64658 
64713 
64699 
64666 
64676 
64733 
64799 
64818 
64769 
64726 
64733 
64797 
64819 
64800 
64806 
64909 
64945 
64936 
64968 
64993 
64980 
64987 
65014 
64977 
64967 
64990 
65015 
65015 
65018 
65046 
65016 
65041 
65068 
65069 
65058 
65068 
65084 
65054 
65006 
65008 
64964 
64975 
64985 
65010 
64990 
64931 
64876 
64857 
64888 
64917 
64906 
64935 
64918 
64874 
64829 
64817 
64757 
64670 
64559 
64386 
64225 
64039 
63859 
63714 
63560 
63392 
63223 
63053 
62890 
62690 
62471 
62279 
62095 
61951 
61803 
61649 
61515 
61423 
61320 
61192 
61100 
61050 
61013 
60954 
60874 
60813 
60749 
60662 
60625 
60569 
60538 
60530 
60517 
60494 
60454 
60408 
60451 
60495 
60479 
60489 
60540 
60588 
60620 
60659 
60689 
60757 
60814 
60870 
60933 
61022 
61134 
61192 
61240 
61301 
61426 
61500 
61576 
61633 
61637 
61661 
61695 
61773 
61887 
61953 
62002 
62040 
62068 
62109 
62172 
62240 
62331 
62419 
62480 
62506 
62515 
62514 
62560 
62602 
62640 
62658 
62712 
62772 
62780 
62807 
62876 
62906 
62914 
62960 
62975 
62948 
62953 
63005 
63057 
63120 
63131 
63180 
63224 
63266 
63303 
63341 
63362 
63408 
63451 
63499 
63547 
63564 
63562 
63563 
63631 
63676 
63730 
63743 
63770 
63818 
63825 
63851 
63893 
63900 
63925 
63942 
63946 
63973 
63953 
63982 
64016 
64025 
64068 
64086 
64098 
64131 
64171 
64177 
64195 
64242 
64267 
64261 
64243 
64221 
64230 
64235 
64304 
64380 
64393 
64408 
64438 
64479 
64525 
64560 
64573 
64583 
64576 
64617 
64650 
64655 
64697 
64722 
64742 
64721 
64700 
64728 
64729 
64736 
64736 
64733 
64749 
64757 
64714 
64704 
64677 
64648 
64637 
64673 
64705 
64684 
64703 
64698 
64665 
64649 
64677 
64698 
64645 
64579 
64517 
64464 
64355 
64184 
64027 
63881 
63709 
63523 
63315 
63092 
62860 
62643 
62459 
62314 
62207 
62072 
61927 
61786 
61642 
61515 
61396 
61272 
61186 
61114 
61009 
60936 
60892 
60892 
60866 
60827 
60782 
60736 
60693 
60699 
60654 
60591 
60544 
60562 
60595 
60599 
60596 
60568 
60590 
60605 
60666 
60694 
60717 
60782 
60855 
60939 
61025 
61088 
61138 
61266 
61367 
61369 
61412 
61488 
61532 
61550 
61637 
61737 
61824 
61914 
62013 
62167 
62264 
62354 
62391 
62417 
62497 
62583 
62653 
62722 
62762 
62774 
62804 
62829 
62889 
62933 
62998 
63046 
63098 
63127 
63111 
63167 
63201 
63240 
63286 
63325 
63342 
63353 
63385 
63409 
63384 
63402 
63417 
63438 
63489 
63529 
63609 
63646 
63705 
63766 
63799 
63771 
63779 
63848 
63894 
63946 
63994 
64019 
64017 
64009 
64005 
64038 
64106 
64139 
64133 
64159 
64209 
64273 
64329 
64401 
64457 
64450 
64436 
64427 
64440 
64418 
64413 
64447 
64527 
64606 
64660 
64662 
64646 
64675 
64692 
64675 
64693 
64729 
64770 
64829 
64850 
64859 
64862 
64831 
64856 
64890 
64863 
64884 
64905 
64878 
64879 
64910 
64938 
64917 
64921 
64943 
64932 
64919 
64930 
64928 
64941 
64946 
64940 
64886 
64870 
64913 
64906 
64917 
64919 
64905 
64985 
65059 
65051 
65036 
65021 
65035 
65025 
65006 
64998 
64987 
65014 
65040 
65008 
64967 
64959 
64940 
64888 
64828 
64758 
64642 
64476 
64306 
64168 
63977 
63788 
63578 
63386 
63257 
63129 
62925 
62639 
62406 
62216 
61983 
61784 
61674 
61592 
61453 
61327 
61199 
61083 
60994 
60887 
60792 
60722 
60601 
60511 
60463 
60402 
60401 
60409 
60343 
60329 
60288 
60269 
60287 
60333 
60314 
60291 
60325 
60336 
60342 
60391 
60416 
60467 
60504 
60580 
60618 
60674 
60810 
60869 
60894 
60955 
61032 
61112 
61235 
61301 
61382 
61458 
61489 
61507 
61522 
61567 
61620 
61752 
61831 
61876 
61915 
61983 
62074 
62094 
62177 
62230 
62279 
62331 
62351 
62398 
62438 
62494 
62561 
62609 
62639 
62662 
62692 
62769 
62861 
62888 
62897 
62937 
62993 
63021 
63026 
63097 
63149 
63166 
63177 
63176 
63184 
63198 
63183 
63202 
63262 
63280 
63294 
63336 
63415 
63440 
63432 
63456 
63524 
63592 
63675 
63707 
63752 
63835 
63884 
63907 
63933 
63958 
63985 
64009 
64018 
64051 
64133 
64177 
64178 
64165 
64117 
64157 
64146 
64119 
64141 
64201 
64280 
64339 
64380 
64406 
64385 
64384 
64361 
64343 
64322 
64291 
64247 
64259 
64278 
64285 
64269 
64253 
64266 
64281 
64293 
64307 
64297 
64332 
64369 
64370 
64340 
64338 
64376 
64366 
64379 
64380 
64400 
64459 
64439 
64415 
64449 
64450 
64456 
64448 
64443 
64456 
64458 
64471 
64468 
64502 
64507 
64518 
64519 
64519 
64529 
64557 
64596 
64627 
64593 
64560 
64564 
64579 
64551 
64462 
64389 
64370 
64298 
64186 
64042 
63848 
63639 
63453 
63289 
63147 
62985 
62823 
62687 
62527 
62324 
62125 
61974 
61827 
61676 
61507 
61386 
61307 
61168 
61017 
60953 
60900 
60823 
60719 
60600 
60537 
60509 
60444 
60372 
60386 
60447 
60485 
60502 
60473 
60469 
60429 
60418 
60430 
60478 
60588 
60599 
60606 
60656 
60665 
60690 
60739 
60825 
60875 
60953 
61073 
61186 
61239 
61290 
61305 
61409 
61502 
61513 
61533 
61628 
61766 
61902 
62003 
62034 
62065 
62118 
62193 
62286 
62301 
62315 
62363 
62419 
62464 
62507 
62554 
62626 
62681 
62732 
62804 
62874 
62944 
62987 
63018 
63089 
63182 
63224 
63230 
63215 
63255 
63293 
63349 
63368 
63432 
63471 
63481 
63494 
63584 
63672 
63684 
63675 
63691 
63720 
63745 
63793 
63817 
63875 
63932 
64026 
64140 
64212 
64230 
64282 
64322 
64353 
64392 
64473 
64524 
64554 
64617 
64711 
64766 
64809 
64803 
64764 
64755 
64791 
64843 
64844 
64836 
64854 
64848 
64890 
64887 
64899 
64924 
64945 
64932 
64924 
64928 
64880 
64877 
64916 
64951 
64968 
64991 
64987 
65004 
65049 
65116 
65145 
65136 
65124 
65147 
65124 
65110 
65122 
65137 
65131 
65109 
65100 
65164 
65200 
65216 
65248 
65267 
65309 
65264 
65212 
65213 
65175 
65143 
65125 
65083 
65021 
64895 
64765 
64602 
64456 
64307 
64115 
63973 
63862 
63790 
63652 
63500 
63373 
63221 
63065 
62916 
62778 
62635 
62553 
62545 
62522 
62433 
62368 
62294 
62253 
62202 
62158 
62114 
62106 
62138 
62170 
62133 
62082 
62076 
62041 
62054 
62106 
62174 
62218 
62188 
62130 
62165 
62198 
62228 
62278 
62356 
62468 
62550 
62618 
62606 
62613 
62696 
62774 
62895 
63020 
63073 
63102 
63106 
63186 
63254 
63306 
63367 
63445 
63515 
63517 
63525 
63599 
63689 
63749 
63787 
63857 
63948 
63996 
64076 
64155 
64182 
64225 
64229 
64265 
64282 
64293 
64297 
64305 
64355 
64360 
64345 
64329 
64355 
64392 
64439 
64467 
64446 
64463 
64528 
64571 
64589 
64587 
64526 
64513 
64542 
64572 
64601 
64625 
64665 
64721 
64755 
64767 
64716 
64706 
64714 
64752 
64808 
64845 
64888 
64897 
64867 
64895 
64907 
64928 
64971 
65029 
65049 
65082 
65145 
65180 
65178 
65226 
65229 
65180 
65184 
65233 
65238 
65272 
65324 
65334 
65303 
65288 
65287 
65313 
65359 
65364 
65442 
65510 
65481 
65477 
65513 
65526 
65531 
65568 
65552 
65563 
65550 
65527 
65545 
65574 
65569 
65624 
65640 
65566 
65534 
65484 
65458 
65472 
65497 
65499 
65509 
65523 
65526 
65537 
65559 
65541 
65469 
65397 
65333 
65284 
65271 
65210 
65054 
64890 
64767 
64603 
64424 
64305 
64201 
64090 
63915 
63724 
63540 
63424 
63269 
63096 
62968 
62818 
62663 
62502 
62341 
62196 
62098 
62047 
61948 
61848 
61766 
61647 
61564 
61499 
61457 
61400 
61331 
61272 
61241 
61271 
61271 
61234 
61203 
61216 
61223 
61207 
61191 
61164 
61197 
61213 
61188 
61207 
61275 
61359 
61436 
61551 
61611 
61696 
61746 
61801 
61852 
61929 
61966 
61983 
62035 
62112 
62151 
62203 
62273 
62327 
62370 
62381 
62389 
62403 
62397 
62425 
62514 
62532 
62568 
62593 
62618 
62690 
62733 
62734 
62728 
62727 
62725 
62792 
62833 
62837 
62874 
62869 
62850 
62825 
62837 
62899 
62915 
62949 
63052 
63096 
63129 
63138 
63163 
63224 
63292 
63355 
63386 
63440 
63463 
63495 
63601 
63782 
63870 
63933 
64019 
64098 
64183 
64298 
64451 
64581 
64708 
64867 
64990 
65143 
65288 
65426 
65542 
65666 
65857 
66021 
66114 
66258 
66401 
66592 
66735 
66852 
66929 
67016 
67183 
67321 
67412 
67536 
67624 
67718 
67851 
67954 
68010 
68112 
68184 
68235 
68328 
68443 
68571 
68722 
68795 
68886 
68979 
69077 
69145 
69242 
69409 
69459 
69510 
69590 
69643 
69705 
69754 
69808 
69867 
69913 
70002 
70112 
70169 
70188 
70249 
70276 
70317 
70395 
70466 
70480 
70511 
70592 
70645 
70655 
70686 
70677 
70714 
70729 
70697 
70700 
70726 
70739 
70762 
70751 
70675 
70594 
70561 
70498 
70352 
70229 
70098 
69941 
69799 
69661 
69517 
69350 
69164 
68998 
68793 
68582 
68359 
68194 
68079 
67955 
67797 
67620 
67492 
67354 
67166 
67015 
66860 
66729 
66600 
66478 
66371 
66278 
66191 
66109 
66012 
65912 
65867 
65817 
65720 
65674 
65666 
65621 
65626 
65643 
65628 
65568 
65550 
65598 
65640 
65673 
65671 
65613 
65588 
65609 
65632 
65642 
65663 
65722 
65788 
65833 
65899 
65924 
65957 
65957 
65997 
66068 
66140 
66193 
66197 
66199 
66220 
66229 
66239 
66231 
66206 
66221 
66226 
66226 
66236 
66295 
66294 
66294 
66290 
66259 
66264 
66255 
66227 
66215 
66188 
66158 
66155 
66156 
66121 
66044 
65968 
65940 
65888 
65851 
65855 
65866 
65824 
65790 
65784 
65827 
65868 
65896 
65886 
65875 
65822 
65787 
65754 
65758 
65780 
65747 
65739 
65771 
65821 
65845 
65841 
65848 
65829 
65832 
65829 
65769 
65697 
65642 
65620 
65647 
65678 
65688 
65653 
65659 
65673 
65690 
65686 
65629 
65630 
65736 
65796 
65820 
65801 
65792 
65859 
65879 
65901 
65948 
65962 
65965 
65988 
65992 
66011 
66021 
66052 
66025 
66019 
66016 
66036 
66026 
66010 
66023 
65952 
65901 
65873 
65856 
65821 
65830 
65851 
65861 
65871 
65857 
65858 
65853 
65827 
65788 
65779 
65764 
65794 
65801 
65755 
65739 
65665 
65580 
65510 
65451 
65426 
65396 
65336 
65348 
65345 
65267 
65226 
65153 
65038 
64968 
64950 
64887 
64758 
64629 
64505 
64382 
64258 
64106 
63887 
63659 
63455 
63260 
63055 
62850 
62629 
62404 
62196 
62003 
61748 
61503 
61225 
60954 
60732 
60517 
60292 
60123 
59958 
59744 
59532 
59309 
59144 
58971 
58792 
58617 
58435 
58283 
58208 
58111 
58007 
57909 
57828 
57743 
57666 
57608 
57506 
57416 
57356 
57346 
57294 
57212 
57171 
57184 
57189 
57201 
57208 
57223 
57230 
57288 
57331 
57394 
57439 
57466 
57468 
57481 
57532 
57590 
57648 
57699 
57700 
57713 
57740 
57746 
57761 
57838 
57902 
57940 
57938 
57950 
57943 
57972 
57996 
57950 
57958 
57972 
57982 
57962 
57997 
58068 
58092 
58129 
58150 
58175 
58221 
58246 
58215 
58217 
58264 
58278 
58313 
58331 
58281 
58257 
58267 
58282 
58270 
58295 
58313 
58317 
58346 
58371 
58383 
58402 
58431 
58492 
58563 
58548 
58536 
58529 
58575 
58600 
58676 
58740 
58761 
58765 
58713 
58719 
58826 
58901 
58920 
58986 
59019 
59043 
59083 
59084 
59123 
59133 
59160 
59208 
59272 
59262 
59264 
59266 
59282 
59365 
59451 
59470 
59436 
59459 
59467 
59475 
59466 
59445 
59451 
59450 
59458 
59515 
59499 
59473 
59492 
59495 
59513 
59567 
59574 
59605 
59603 
59585 
59623 
59654 
59690 
59720 
59761 
59807 
59836 
59803 
59777 
59778 
59734 
59712 
59711 
59709 
59718 
59755 
59761 
59742 
59699 
59622 
59515 
59435 
59314 
59181 
59090 
58985 
58890 
58743 
58553 
58353 
58159 
57985 
57820 
57653 
57490 
57308 
57109 
56935 
56786 
56649 
56500 
56337 
56178 
56018 
55856 
55726 
55619 
55499 
55417 
55346 
55298 
55240 
55191 
55147 
55093 
55051 
55036 
55007 
55052 
55118 
55150 
55137 
55123 
55145 
55173 
55193 
55221 
55245 
55279 
55334 
55395 
55479 
55536 
55577 
55639 
55655 
55675 
55722 
55785 
55857 
55982 
56117 
56167 
56221 
56271 
56317 
56368 
56427 
56477 
56524 
56578 
56631 
56700 
56773 
56905 
57009 
57068 
57162 
57284 
57393 
57432 
57473 
57497 
57561 
57675 
57706 
57752 
57785 
57786 
57799 
57835 
57907 
57986 
58050 
58102 
58131 
58121 
58151 
58170 
58161 
58206 
58315 
58343 
58305 
58333 
58327 
58332 
58366 
58452 
58481 
58511 
58537 
58543 
58539 
58540 
58610 
58643 
58631 
58657 
58717 
58775 
58818 
58811 
58823 
58828 
58830 
58894 
59016 
59089 
59097 
59042 
59057 
59100 
59133 
59154 
59226 
59295 
59327 
59325 
59350 
59378 
59395 
59439 
59475 
59517 
59534 
59536 
59537 
59574 
59604 
59643 
59752 
59771 
59826 
59862 
59821 
59850 
59890 
59880 
59886 
59919 
59936 
59963 
60014 
60016 
60026 
60050 
60046 
60067 
60098 
60059 
60057 
60078 
60095 
60114 
60100 
60065 
60040 
60040 
60078 
60085 
60059 
60064 
60129 
60133 
60087 
60095 
60098 
60067 
60040 
59986 
59875 
59760 
59687 
59567 
59393 
59226 
59108 
58997 
58794 
58583 
58383 
58261 
58100 
57954 
57824 
57622 
57390 
57198 
57002 
56771 
56633 
56542 
56417 
56274 
56115 
55992 
55858 
55753 
55692 
55651 
55543 
55445 
55369 
55278 
55205 
55128 
55116 
55158 
55216 
55200 
55172 
55175 
55178 
55248 
55354 
55382 
55374 
55369 
55406 
55487 
55522 
55541 
55613 
55663 
55755 
55809 
55840 
55890 
55955 
56097 
56209 
56249 
56267 
56318 
56438 
56540 
56675 
56752 
56769 
56814 
56906 
57008 
57083 
57216 
57386 
57520 
57608 
57658 
57726 
57787 
57835 
57930 
57998 
58061 
58110 
58155 
58194 
58226 
58254 
58288 
58349 
58432 
58468 
58492 
58528 
58599 
58680 
58730 
58800 
58862 
58847 
58823 
58834 
58887 
58919 
58971 
59042 
59080 
59035 
59032 
59059 
59114 
59150 
59157 
59207 
59344 
59416 
59438 
59491 
59568 
59618 
59662 
59718 
59788 
59813 
59834 
59824 
59820 
59874 
59919 
59948 
59935 
59934 
59951 
59995 
59982 
59995 
60036 
60070 
60061 
60067 
60042 
60051 
60066 
60077 
60126 
60140 
60128 
60165 
60189 
60186 
60164 
60089 
60027 
60021 
59999 
60004 
60034 
60069 
60070 
60053 
60044 
60024 
59988 
59959 
59981 
59961 
59956 
59980 
59970 
59962 
59985 
60001 
59977 
60032 
60057 
60034 
59965 
59894 
59868 
59883 
59884 
59879 
59878 
59872 
59845 
59824 
59806 
59795 
59749 
59688 
59642 
59604 
59587 
59567 
59497 
59403 
59254 
59103 
58997 
58890 
58777 
58604 
58415 
58252 
58120 
57997 
57865 
57686 
57510 
57383 
57210 
57010 
56840 
56694 
56572 
56485 
56390 
56280 
56170 
56096 
55994 
55925 
55898 
55852 
55741 
55632 
55592 
55509 
55423 
55390 
55363 
55323 
55303 
55298 
55306 
55325 
55378 
55402 
55418 
55466 
55495 
55511 
55515 
55532 
55640 
55707 
55756 
55834 
55879 
55867 
55946 
55990 
56011 
56085 
56154 
56223 
56313 
56382 
56452 
56559 
56647 
56690 
56780 
56888 
56969 
57054 
57190 
57222 
57253 
57280 
57299 
57366 
57407 
57431 
57444 
57457 
57486 
57503 
57533 
57567 
57609 
57673 
57760 
57825 
57824 
57812 
57802 
57776 
57837 
57916 
57983 
58044 
58122 
58133 
58184 
58255 
58278 
58327 
58352 
58361 
58382 
58462 
58495 
58485 
58527 
58542 
58535 
58553 
58599 
58632 
58670 
58753 
58789 
58809 
58751 
58794 
58835 
58901 
58928 
58922 
58946 
58931 
58940 
58913 
58945 
58984 
59044 
59049 
59063 
59137 
59243 
59331 
59339 
59339 
59366 
59336 
59307 
59316 
59369 
59405 
59427 
59417 
59414 
59434 
59448 
59478 
59470 
59455 
59471 
59479 
59513 
59547 
59552 
59518 
59467 
59462 
59486 
59470 
59412 
59423 
59435 
59437 
59477 
59490 
59476 
59450 
59434 
59442 
59459 
59385 
59293 
59238 
59253 
59240 
59215 
59153 
59069 
58921 
58765 
58653 
58520 
58422 
58303 
58155 
58002 
57876 
57731 
57603 
57496 
57402 
57311 
57104 
56954 
56831 
56710 
56602 
56529 
56408 
56300 
56202 
56074 
55950 
55902 
55854 
55821 
55804 
55787 
55711 
55655 
55623 
55620 
55632 
55612 
55607 
55602 
55588 
55535 
55538 
55602 
55656 
55693 
55724 
55759 
55762 
55776 
55757 
55763 
55801 
55805 
55854 
55966 
56058 
56108 
56156 
56183 
56227 
56331 
56401 
56484 
56540 
56598 
56638 
56666 
56702 
56756 
56807 
56862 
56891 
56948 
56971 
57020 
57045 
57053 
57056 
57067 
57037 
57060 
57069 
57048 
57051 
57044 
57070 
57151 
57151 
57079 
57076 
57119 
57096 
57105 
57122 
57103 
57086 
57106 
57108 
57143 
57144 
57135 
57119 
57114 
57160 
57186 
57119 
57098 
57120 
57117 
57134 
57161 
57179 
57205 
57267 
57319 
57406 
57487 
57458 
57473 
57508 
57585 
57641 
57644 
57628 
57650 
57663 
57684 
57726 
57759 
57781 
57789 
57836 
57864 
57875 
57912 
57974 
57975 
58014 
58010 
58032 
58047 
58008 
57991 
58023 
58083 
58124 
58167 
58216 
58261 
58281 
58261 
58236 
58300 
58346 
58363 
58374 
58370 
58357 
58385 
58404 
58381 
58368 
58402 
58444 
58467 
58520 
58518 
58510 
58523 
58565 
58579 
58600 
58607 
58597 
58618 
58630 
58602 
58576 
58571 
58519 
58447 
58463 
58438 
58361 
58286 
58260 
58167 
58014 
57897 
57789 
57635 
57508 
57396 
57266 
57129 
56935 
56772 
56633 
56505 
56364 
56224 
56084 
55952 
55839 
55708 
55601 
55503 
55376 
55245 
55157 
55123 
55059 
55021 
54947 
54903 
54883 
54850 
54813 
54829 
54842 
54846 
54827 
54829 
54838 
54808 
54841 
54896 
54890 
54934 
54983 
55003 
55077 
55124 
55141 
55160 
55217 
55271 
55313 
55419 
55524 
55592 
55610 
55662 
55736 
55799 
55839 
55896 
56004 
56054 
56138 
56217 
56288 
56385 
56481 
56608 
56653 
56678 
56718 
56769 
56782 
56788 
56794 
56841 
56913 
56927 
56963 
57021 
57031 
57033 
57038 
57050 
57100 
57151 
57146 
57172 
57177 
57194 
57244 
57281 
57305 
57327 
57321 
57347 
57375 
57372 
57367 
57357 
57400 
57519 
57563 
57565 
57589 
57616 
57631 
57670 
57718 
57743 
57755 
57772 
57778 
57772 
57776 
57825 
57900 
57941 
57948 
57946 
57929 
57970 
58047 
58048 
58054 
58113 
58174 
58174 
58187 
58187 
58193 
58171 
58177 
58238 
58309 
58378 
58342 
58319 
58343 
58358 
58338 
58292 
58289 
58325 
58386 
58408 
58356 
58316 
58335 
58402 
58401 
58388 
58401 
58475 
58524 
58490 
58425 
58407 
58386 
58410 
58465 
58475 
58541 
58552 
58518 
58486 
58511 
58491 
58426 
58388 
58399 
58393 
58391 
58382 
58418 
58435 
58396 
58341 
58345 
58338 
58325 
58258 
58130 
58006 
57892 
57782 
57648 
57492 
57328 
57178 
57061 
56912 
56764 
56571 
56437 
56295 
56150 
56013 
55826 
55645 
55550 
55435 
55323 
55200 
55041 
54909 
54782 
54660 
54576 
54507 
54522 
54523 
54184 
54175 
54229 
54261 
54292 
54294 
54302 
54364 
54364 
54331 
54402 
54452 
54503 
54554 
54578 
54625 
54732 
54800 
54865 
54966 
54979 
55013 
55129 
55286 
55360 
55416 
55524 
55655 
55799 
55940 
56040 
56087 
56160 
56236 
56299 
56380 
56420 
56503 
56604 
56666 
56699 
56691 
56706 
56768 
56828 
56855 
56837 
56852 
56867 
56882 
56902 
56893 
56916 
56906 
56905 
56959 
56980 
56985 
57002 
57086 
57088 
57043 
56998 
56986 
57017 
57033 
57016 
57037 
57040 
57104 
57177 
57263 
57274 
57302 
57334 
57342 
57356 
57369 
57406 
57434 
57489 
57535 
57568 
57574 
57597 
57640 
57628 
57680 
57715 
57740 
57805 
57866 
57883 
57911 
57940 
57970 
58021 
57990 
58025 
58063 
58078 
58080 
58127 
58170 
58220 
58303 
58323 
58323 
58282 
58273 
58327 
58315 
58278 
58252 
58287 
58296 
58340 
58389 
58429 
58434 
56050 
55925 
55796 
55657 
55505 
55394 
55323 
55203 
55107 
55056 
54957 
54862 
54749 
54625 
54551 
54560 
54536 
54476 
54448 
54451 
54463 
54476 
54478 
54476 
54496 
54522 
54538 
54564 
54599 
54668 
54698 
54758 
54829 
54877 
54925 
55026 
55144 
55223 
55231 
55287 
55386 
55528 
55683 
55762 
55853 
55945 
56036 
56150 
56260 
56300 
56314 
56384 
56415 
56448 
56475 
56537 
56602 
56657 
56725 
56743 
56787 
56797 
56774 
56784 
56835 
56878 
56912 
56926 
56930 
56898 
56844 
56797 
56859 
56956 
57037 
57051 
57019 
56994 
57020 
57027 
57045 
57045 
57052 
57055 
57080 
57112 
57133 
57178 
57248 
57291 
57246 
57249 
57282 
57288 
57282 
57297 
57341 
57401 
57466 
57536 
57602 
57664 
57684 
57719 
57760 
57784 
57819 
57851 
57915 
57939 
57944 
58011 
58073 
58123 
58143 
58178 
58212 
58227 
58250 
58285 
57946 
58026 
58049 
58049 
58067 
58080 
58111 
58156 
58181 
58275 
58358 
58384 
58439 
58509 
58531 
58499 
58528 
58559 
58577 
58643 
58668 
58651 
58698 
58751 
58786 
58800 
58796 
58790 
58837 
58866 
58888 
58881 
58886 
58903 
58881 
58858 
58876 
58884 
58930 
58966 
58976 
58962 
58934 
58955 
58953 
58911 
58909 
58896 
58896 
58920 
58942 
58935 
58927 
58922 
58985 
59011 
59004 
58998 
58978 
58945 
58922 
58918 
58891 
58820 
58750 
58741 
58636 
58457 
58290 
58152 
57976 
57793 
57615 
57410 
57220 
57044 
56846 
56639 
56424 
56241 
56089 
55918 
55709 
55474 
55269 
55092 
54901 
54760 
54608 
54509 
54455 
54343 
54226 
54147 
54085 
54051 
53988 
53910 
53857 
53823 
53810 
53793 
53780 
53773 
53730 
53735 
53774 
53818 
53889 
53909 
53952 
54035 
54036 
54061 
54149 
54240 
54345 
54448 
54572 
57951 
57989 
57994 
58047 
58066 
58036 
58096 
58174 
58207 
58220 
58237 
58274 
58256 
58266 
58275 
58261 
58261 
58298 
58304 
58328 
58333 
58343 
58333 
58384 
58462 
58507 
58541 
58540 
58515 
58521 
58513 
58471 
58432 
58431 
58394 
58398 
58424 
58467 
58489 
58477 
58438 
58447 
58513 
58551 
58550 
58559 
58536 
58500 
58521 
58570 
58581 
58563 
58592 
58668 
58646 
58654 
58675 
58680 
58677 
58733 
58729 
58733 
58780 
58770 
58766 
58806 
58837 
58856 
58859 
58851 
58845 
58796 
58768 
58714 
58672 
58646 
58628 
58569 
58512 
58459 
58450 
58389 
58291 
58098 
57918 
57742 
57562 
57393 
57235 
57087 
56882 
56682 
56465 
56221 
56074 
55941 
55829 
55680 
55466 
55299 
55090 
54883 
54733 
54596 
54484 
54332 
54200 
54065 
53948 
53853 
53794 
53748 
53701 
53634 
53593 
53569 
53559 
53574 
55430 
55530 
55626 
55739 
55915 
56058 
56138 
56172 
56206 
56299 
56403 
56474 
56579 
56717 
56796 
56874 
56943 
57004 
57057 
57120 
57147 
57161 
57180 
57208 
57272 
57355 
57376 
57390 
57463 
57512 
57472 
57456 
57467 
57473 
57516 
57559 
57600 
57689 
57755 
57762 
57792 
57823 
57846 
57896 
57944 
57986 
57991 
57996 
58010 
58009 
57984 
57943 
57963 
58037 
58066 
58061 
58076 
58124 
58147 
58151 
58247 
58295 
58372 
58456 
58483 
58490 
58498 
58526 
58601 
58690 
58779 
58802 
58786 
58799 
58858 
58883 
58923 
58939 
58994 
59030 
59075 
59087 
59086 
59135 
59180 
59194 
59206 
59179 
59197 
59260 
59251 
59233 
59237 
59236 
59237 
59289 
59369 
59369 
59330 
59296 
59295 
59278 
59302 
59292 
59218 
59206 
59225 
59221 
59213 
59194 
59176 
59192 
59199 
59169 
59126 
59066 
59001 
58955 
58929 
58982 
59025 
59017 
58935 
58861 
58810 
58782 
58784 
58725 
58685 
58686 
58725 
58767 
58767 
58712 
58647 
58574 
58485 
58376 
58241 
58077 
57877 
57681 
57511 
57358 
57122 
56910 
56687 
56504 
56328 
56103 
55902 
55702 
55441 
55219 
55038 
54812 
54610 
54386 
54153 
53938 
53754 
53646 
53502 
53392 
53319 
53258 
53188 
53096 
52976 
52867 
52817 
52759 
52765 
52769 
52740 
52749 
52762 
52796 
52820 
52799 
52857 
52910 
52903 
52914 
52958 
53005 
53048 
53169 
53306 
53337 
53359 
53383 
53530 
53710 
53829 
53939 
54074 
54245 
54390 
54470 
54567 
54669 
54767 
54854 
54973 
55049 
55161 
55292 
55391 
55467 
55553 
55603 
55649 
55717 
55786 
55866 
55953 
55949 
55973 
56057 
56118 
56155 
56194 
56292 
56351 
56391 
56444 
56477 
56517 
56503 
56522 
56586 
56641 
56689 
56693 
56709 
56789 
56499 
56589 
56614 
56595 
56585 
56594 
56598 
56598 
56636 
56687 
56753 
56857 
56930 
56972 
57040 
57042 
57057 
57099 
57171 
57261 
57319 
57419 
57478 
57479 
57515 
57568 
57629 
57676 
57753 
57811 
57839 
57859 
57893 
57948 
58033 
58098 
58206 
58288 
58289 
58308 
58401 
58455 
58486 
58568 
58636 
58652 
58665 
58711 
58765 
58794 
58830 
58875 
58924 
58921 
58918 
58939 
58938 
58949 
58965 
58958 
58976 
58956 
58936 
58928 
58913 
58942 
58955 
58957 
58979 
58943 
58923 
58977 
59054 
59020 
58950 
58997 
59020 
59011 
59022 
58999 
58942 
58932 
58963 
58935 
58932 
58941 
58940 
58912 
58907 
58879 
58861 
58915 
58917 
58860 
58808 
58764 
58654 
58510 
58366 
58206 
58066 
57950 
57791 
57614 
57447 
57227 
56997 
56791 
56553 
56363 
56193 
55948 
55725 
55497 
55245 
55056 
54858 
54660 
54463 
56002 
56057 
56063 
56071 
56086 
56124 
56210 
56310 
56367 
56401 
56432 
56476 
56460 
56460 
56462 
56483 
56561 
56588 
56587 
56614 
56643 
56637 
56666 
56717 
56798 
56852 
56880 
56929 
57000 
57001 
57040 
57118 
57211 
57311 
57373 
57429 
57457 
57475 
57569 
57632 
57737 
57771 
57784 
57811 
57876 
57974 
58021 
58081 
58127 
58181 
58241 
58301 
58329 
58339 
58380 
58453 
58483 
58483 
58552 
58596 
58622 
58648 
58691 
58732 
58780 
58826 
58854 
58882 
58910 
58947 
58966 
59040 
59120 
59110 
59111 
59107 
59099 
59118 
59173 
59214 
59209 
59201 
59213 
59237 
59227 
59220 
59220 
59262 
59289 
59276 
59280 
59239 
59215 
59239 
59217 
59181 
59184 
59182 
59146 
59182 
59187 
59111 
59044 
58968 
58860 
58737 
58663 
58495 
58293 
58126 
57987 
57852 
57651 
57460 
57276 
57057 
56830 
56677 
56535 
56355 
56177 
55953 
55750 
55546 
55373 
55245 
55142 
54992 
54818 
54669 
54529 
54389 
54299 
54211 
54122 
54069 
54009 
53948 
53876 
53802 
53744 
53727 
53740 
53769 
53766 
53787 
53851 
53922 
53925 
53943 
53984 
54020 
54040 
54148 
54248 
54263 
54261 
54313 
54387 
54506 
54631 
54718 
54808 
54851 
54942 
55036 
55168 
55287 
55357 
55440 
55575 
55694 
55795 
55893 
55962 
56025 
56072 
56074 
56116 
56215 
56309 
56346 
56395 
56425 
56404 
56381 
56429 
56515 
56559 
56611 
56638 
56650 
56688 
56757 
56845 
56849 
56813 
56796 
56858 
56915 
56922 
56966 
57006 
57002 
56978 
56986 
56913 
56882 
56951 
57001 
57027 
57045 
57062 
57037 
57065 
57088 
57087 
57098 
57134 
57174 
57214 
57196 
57200 
57276 
57309 
57309 
57290 
57299 
57328 
57396 
57402 
57437 
57497 
57547 
57617 
57632 
57633 
57624 
57630 
57702 
57777 
57841 
57879 
57914 
57880 
57840 
57838 
57875 
57921 
57987 
58002 
58031 
58090 
58103 
58098 
58113 
58178 
58199 
58194 
58224 
58251 
58274 
58281 
58313 
58354 
58313 
58280 
58275 
58303 
58353 
58378 
58410 
58445 
58503 
58523 
58487 
58470 
58433 
58423 
58429 
58432 
58429 
58366 
58254 
58183 
58072 
57925 
57688 
57494 
57385 
57263 
57090 
56912 
56743 
56572 
56390 
56198 
56007 
55809 
55644 
55512 
55346 
55164 
54981 
54809 
54697 
54594 
54437 
54328 
54247 
54179 
54078 
54023 
53946 
53880 
53812 
53747 
53726 
53729 
53758 
53818 
53841 
53875 
53912 
53921 
53918 
53921 
53946 
54036 
54063 
54061 
54095 
54178 
54287 
54397 
54503 
54617 
54756 
54810 
54867 
54959 
55050 
55225 
55411 
55584 
55704 
55804 
55940 
56037 
56079 
56180 
56320 
56358 
56406 
56471 
56508 
56553 
56591 
56729 
56798 
56837 
56854 
56864 
56899 
56936 
56984 
57023 
57027 
57092 
57169 
57174 
57122 
57129 
57170 
57213 
57212 
57158 
57182 
57235 
57206 
57206 
57236 
57231 
57249 
57353 
57405 
57412 
57419 
57424 
57424 
57431 
57439 
57420 
57391 
57435 
57547 
57602 
57630 
57656 
57689 
57694 
57625 
57618 
57669 
57745 
57791 
57805 
57850 
57845 
57861 
57950 
58005 
57994 
57994 
58055 
58115 
58150 
58206 
58258 
58313 
58360 
58363 
58349 
58354 
58420 
58500 
58518 
58538 
58518 
58498 
58515 
58587 
58652 
58682 
58752 
58778 
58794 
58860 
58882 
58911 
58874 
58853 
58856 
58810 
58820 
58763 
58650 
58585 
58520 
58429 
58259 
58089 
57899 
57723 
57533 
57339 
57163 
56968 
56758 
56541 
56305 
56134 
55937 
55699 
55504 
55336 
55183 
55020 
54870 
54741 
54561 
54389 
54313 
54256 
54151 
54016 
53948 
53847 
53734 
53680 
53626 
53600 
53565 
53539 
53534 
53555 
53599 
53667 
53692 
53705 
53742 
53738 
53776 
53880 
53967 
54004 
54024 
54066 
54151 
54242 
54316 
54383 
54443 
54541 
54611 
54677 
54813 
54989 
55110 
55193 
55291 
55404 
55587 
55721 
55812 
55891 
55998 
56074 
56173 
56257 
56292 
56337 
56423 
56458 
56494 
56543 
56645 
56719 
56722 
56708 
56756 
56812 
56900 
56996 
57043 
57018 
57046 
57053 
57062 
57105 
57121 
57170 
57223 
57228 
57244 
57284 
57312 
57312 
57302 
57375 
57408 
57397 
57366 
57350 
57394 
57474 
57527 
57567 
57615 
57708 
57832 
57848 
57806 
57819 
57891 
58000 
58087 
58146 
58228 
58281 
58273 
58274 
58330 
58419 
58474 
58529 
58563 
58604 
58653 
58670 
58700 
58746 
58791 
58821 
58795 
58766 
58763 
58778 
58873 
58938 
58984 
59025 
59054 
59014 
59025 
59085 
59100 
59128 
59180 
59243 
59257 
59224 
59210 
59271 
59323 
59344 
59406 
59440 
59423 
59380 
59339 
59215 
59094 
59010 
58910 
58800 
58634 
58445 
58261 
58111 
57981 
57824 
57675 
57527 
57353 
57166 
56974 
56739 
56527 
56330 
56189 
56064 
55891 
55739 
55564 
55399 
55297 
55201 
55083 
54907 
54765 
54689 
54597 
54524 
54452 
54342 
54265 
54220 
54222 
54228 
54215 
54215 
54169 
54188 
54238 
54272 
54314 
54398 
54446 
54479 
54531 
54556 
54619 
54686 
54744 
54739 
54812 
54928 
54987 
55038 
55129 
55246 
55334 
55361 
55417 
55533 
55600 
55724 
55815 
55879 
56021 
56113 
56220 
56315 
56404 
56471 
56546 
56608 
56660 
56741 
56841 
56961 
57038 
57121 
57147 
57160 
57244 
57274 
57305 
57384 
57513 
57603 
57596 
57622 
57660 
57678 
57740 
57832 
57889 
57946 
57983 
58046 
58094 
58154 
58246 
58346 
58398 
58396 
58422 
58501 
58570 
58647 
58722 
58803 
58894 
58966 
59030 
59060 
59080 
59171 
59220 
59249 
59309 
59342 
59419 
59468 
59524 
59642 
59755 
59861 
59896 
59929 
60007 
60059 
60115 
60127 
60206 
60277 
60304 
60368 
60432 
60454 
60476 
60478 
60526 
60592 
60609 
60648 
60707 
60770 
60863 
60928 
60936 
60966 
61004 
60991 
60960 
60953 
60960 
60998 
61013 
61017 
61029 
61030 
60995 
60962 
60968 
60873 
60699 
60575 
60455 
60268 
60041 
59810 
59584 
59351 
59091 
58849 
58642 
58438 
58186 
57890 
57623 
57372 
57121 
56856 
56572 
56300 
56045 
55808 
55563 
55316 
55136 
54984 
54803 
54600 
54392 
54216 
54102 
54020 
53907 
53795 
53670 
53573 
53504 
53470 
53409 
53357 
53309 
53270 
53230 
53183 
53184 
53187 
53181 
53239 
53288 
53331 
53317 
53345 
53418 
53494 
53557 
53612 
53669 
53742 
53779 
53838 
53876 
53929 
54027 
54094 
54091 
54135 
54233 
54347 
54392 
54461 
54493 
54541 
54609 
54707 
54751 
54774 
54797 
54844 
54891 
54929 
54987 
55101 
55168 
55216 
55258 
55279 
55297 
55337 
55388 
55365 
55327 
55322 
55318 
55325 
55341 
55392 
55487 
55544 
55570 
55598 
55588 
55530 
55537 
55644 
55706 
55664 
55664 
55719 
55795 
55850 
55842 
55885 
55969 
55990 
56006 
56031 
56021 
56016 
56052 
56134 
56171 
56170 
56231 
56263 
56310 
56327 
56358 
56441 
56509 
56495 
56458 
56479 
56539 
56571 
56619 
56712 
56756 
56750 
56788 
56815 
56870 
56950 
57050 
57120 
57183 
57201 
57252 
57338 
57405 
57457 
57506 
57553 
57612 
57700 
57763 
57851 
57885 
57924 
57969 
58026 
58067 
58086 
58092 
58101 
58144 
58195 
58202 
58205 
58186 
58163 
58137 
58041 
57876 
57683 
57512 
57403 
57288 
57106 
56881 
56633 
56388 
56130 
55922 
55745 
55515 
55267 
55013 
54821 
54651 
54466 
54328 
54166 
53998 
53869 
53775 
53649 
53523 
53399 
53340 
53272 
53158 
53077 
53004 
52917 
52873 
52818 
52795 
52866 
52940 
53029 
53046 
53073 
53128 
53149 
53187 
53315 
53426 
53522 
53564 
53639 
53775 
53867 
53938 
54033 
54108 
54165 
54312 
54502 
54644 
54767 
54935 
55117 
55253 
55385 
55443 
55493 
55556 
55661 
55766 
55846 
55961 
56062 
56128 
56180 
56286 
56385 
56464 
56536 
56615 
56711 
56749 
56750 
56790 
56799 
56794 
56840 
56880 
56952 
57000 
57042 
57078 
57113 
57133 
57190 
57228 
57279 
57299 
57324 
57396 
57468 
57530 
57561 
57619 
57671 
57714 
57758 
57778 
57821 
57868 
57903 
57980 
58076 
58126 
58123 
58190 
58229 
58261 
58356 
58403 
58429 
58416 
58465 
58481 
58521 
58614 
58676 
58729 
58806 
58897 
58959 
58992 
58994 
59033 
59090 
59087 
59130 
59178 
59221 
59270 
59224 
59186 
59221 
59297 
59304 
59340 
59381 
59420 
59422 
59461 
59477 
59467 
59456 
59488 
59464 
59407 
59409 
59476 
59523 
59462 
59381 
59349 
59282 
59170 
59045 
58955 
58872 
58758 
58571 
58351 
58165 
57963 
57740 
57556 
57357 
57147 
56876 
56581 
56361 
56164 
55972 
55730 
55521 
55373 
55209 
54991 
54805 
54636 
54461 
54328 
54222 
54148 
53998 
53866 
53769 
53643 
53539 
53460 
53417 
53362 
53280 
53220 
53104 
53019 
52917 
52822 
52720 
52586 
52525 
52480 
52438 
52433 
52442 
52376 
52380 
52438 
52481 
52532 
52578 
52624 
52690 
52758 
52845 
52873 
52976 
53097 
53166 
53210 
53332 
53415 
53465 
53538 
53646 
53757 
53812 
53871 
53924 
54022 
54027 
54038 
54094 
54154 
54251 
54315 
54301 
54357 
54457 
54493 
54492 
54497 
54526 
54553 
54587 
54664 
54691 
54701 
54730 
54839 
54937 
55006 
55042 
55089 
55126 
55125 
55166 
55191 
55231 
55280 
55361 
55443 
55541 
55650 
55688 
55737 
55775 
55845 
55925 
56014 
56127 
56192 
56182 
56228 
56312 
56362 
56468 
56539 
56602 
56633 
56687 
56760 
56856 
56920 
57027 
57082 
57079 
57080 
57122 
57146 
57178 
57260 
57396 
57482 
57505 
57560 
57619 
57687 
57728 
57761 
57767 
57775 
57800 
57832 
57868 
57951 
58007 
57994 
58020 
58051 
58076 
58108 
58166 
58201 
58205 
58214 
58151 
58059 
58007 
57966 
57893 
57800 
57719 
57619 
57441 
57259 
57100 
56946 
56754 
56520 
56331 
56117 
55892 
55689 
55497 
55275 
55128 
54939 
54724 
54538 
54419 
54268 
54095 
54005 
53924 
53782 
53747 
53693 
53592 
53507 
53428 
53387 
53349 
53309 
53283 
53243 
53173 
53154 
53159 
53235 
53325 
53353 
53373 
53376 
53344 
53373 
53399 
53451 
53600 
53716 
53796 
53859 
53880 
53932 
54039 
54197 
54231 
54266 
54343 
54399 
54428 
54470 
54550 
54631 
54686 
54801 
54905 
54966 
55118 
55227 
55269 
55305 
55343 
55314 
55363 
55490 
55593 
55633 
55698 
55761 
55783 
55821 
55887 
55944 
56019 
56072 
56147 
56193 
56228 
56265 
56286 
56318 
56336 
56368 
56418 
56445 
56512 
56589 
56641 
56686 
56697 
56740 
56783 
56828 
56853 
56900 
56981 
57055 
57117 
57197 
57287 
57311 
57292 
57331 
57429 
57481 
57528 
57634 
57721 
57763 
57821 
57876 
57905 
57936 
57966 
58042 
58055 
58094 
58157 
58217 
58296 
58357 
58409 
58450 
58489 
58517 
58499 
58485 
58517 
58623 
58712 
58694 
58671 
58699 
58769 
58835 
58846 
58830 
58829 
58909 
58927 
58912 
58915 
58892 
58891 
58918 
58932 
58919 
58884 
58892 
58937 
58985 
59033 
59068 
59040 
58942 
58833 
58792 
58715 
58604 
58509 
58408 
58257 
58027 
57807 
57653 
57510 
57342 
57205 
57045 
56821 
56608 
56335 
56060 
55814 
55626 
55466 
55265 
55059 
54885 
54762 
54600 
54432 
54280 
54149 
54028 
53886 
53775 
53678 
53543 
53438 
53342 
53299 
53286 
53304 
53286 
53241 
53240 
53279 
53311 
53280 
53258 
53278 
53328 
53380 
53417 
53441 
53518 
53548 
53604 
53726 
53821 
53916 
53946 
53978 
54000 
54055 
54150 
54254 
54359 
54402 
54491 
54610 
54700 
54750 
54794 
54915 
54986 
54972 
55006 
55096 
55181 
55242 
55360 
55501 
55528 
55588 
55669 
55711 
55766 
55859 
55901 
55934 
56006 
55993 
56008 
56055 
56117 
56179 
56222 
56261 
56327 
56359 
56353 
56383 
56431 
56410 
56456 
56550 
56559 
56587 
56611 
56661 
56730 
56802 
56865 
56929 
56964 
56984 
57011 
57101 
57177 
57271 
57336 
57381 
57384 
57394 
57440 
57476 
57523 
57628 
57705 
57789 
57876 
57858 
57903 
58019 
58079 
58093 
58065 
58081 
58143 
58216 
58307 
58331 
58391 
58451 
58474 
58454 
58499 
58584 
58630 
58648 
58673 
58739 
58797 
58816 
58815 
58870 
58906 
58957 
59056 
59145 
59221 
59263 
59239 
59236 
59222 
59222 
59251 
59271 
59283 
59313 
59362 
59376 
59414 
59407 
59367 
59382 
59414 
59404 
59414 
59467 
59461 
59494 
59521 
59473 
59437 
59414 
59410 
59377 
59330 
59268 
59172 
58997 
58804 
58572 
58327 
58085 
57884 
57700 
57472 
57222 
57037 
56865 
56634 
56376 
56102 
55816 
55575 
55328 
55119 
54959 
54797 
54624 
54457 
54290 
54169 
54030 
53894 
53778 
53705 
53693 
53631 
53515 
53449 
53426 
53407 
53395 
53357 
53320 
53328 
53333 
53364 
53355 
53360 
53396 
53453 
53555 
53624 
53692 
53764 
53803 
53854 
53943 
54004 
54052 
54078 
54133 
54239 
54329 
54421 
54519 
54573 
54644 
54747 
54825 
54937 
55048 
55174 
55283 
55407 
55503 
55582 
55596 
55637 
55747 
55895 
56006 
56093 
56153 
56254 
56372 
56498 
56609 
56616 
56598 
56640 
56717 
56807 
56898 
56916 
56960 
57084 
57183 
57272 
57365 
57362 
57379 
57430 
57489 
57504 
57524 
57581 
57664 
57727 
57804 
57783 
57801 
57827 
57836 
57870 
57992 
58049 
58041 
58025 
58071 
58130 
58187 
58277 
58313 
58366 
58463 
58474 
58439 
58481 
58507 
58512 
58554 
58643 
58679 
58685 
58717 
58798 
58823 
58830 
58857 
58872 
58895 
58874 
58914 
58953 
58979 
58994 
58967 
59031 
59061 
59069 
59056 
59006 
58982 
59034 
59099 
59167 
59212 
59178 
59149 
59113 
59137 
59174 
59179 
59160 
59137 
59132 
59114 
59089 
59030 
58979 
58934 
58856 
58818 
58815 
58794 
58728 
58619 
58552 
58536 
58541 
58506 
58407 
58346 
58270 
58182 
58134 
58099 
57994 
57950 
57908 
57881 
57907 
57839 
57766 
57738 
57720 
57687 
57636 
57571 
57561 
57645 
57692 
57616 
57560 
57528 
57466 
57385 
57359 
57330 
57278 
57213 
57127 
57060 
56980 
56916 
56868 
56833 
56778 
56718 
56593 
56522 
56470 
56392 
56313 
56262 
56202 
56146 
56103 
56057 
55972 
55942 
55864 
55766 
55706 
55654 
55650 
55655 
55646 
55598 
55558 
55511 
55507 
55477 
55458 
55406 
55427 
55420 
55414 
55438 
55461 
55471 
55466 
55466 
55485 
55459 
55441 
55486 
55524 
55541 
55527 
55540 
55574 
55608 
55651 
55728 
55728 
55696 
55690 
55747 
55849 
55922 
55879 
55839 
55830 
55858 
55990 
56063 
56081 
56084 
56116 
56137 
56151 
56200 
56294 
56362 
56364 
56400 
56484 
56500 
56549 
56620 
56645 
56629 
56638 
56705 
56751 
56802 
56855 
56938 
56951 
57016 
57055 
57043 
57069 
57135 
57197 
57207 
57161 
57161 
57143 
57148 
57142 
57186 
57176 
57119 
57110 
57111 
57152 
57177 
57153 
57158 
57125 
57088 
57083 
57109 
57147 
57185 
57181 
57172 
57168 
57175 
57202 
57117 
57084 
57063 
57112 
57204 
57287 
57294 
57310 
57262 
57236 
57285 
57323 
57326 
57326 
57337 
57375 
57398 
57404 
57422 
57437 
57427 
57428 
57435 
57432 
57476 
57495 
57522 
57556 
57654 
57744 
57781 
57785 
57815 
57805 
57803 
57849 
57906 
57959 
57992 
58010 
58017 
58045 
58056 
58081 
58102 
58110 
58173 
58218 
58266 
58339 
58353 
58335 
58359 
58389 
58389 
58390 
58443 
58515 
58551 
58594 
58676 
58729 
58763 
58798 
58811 
58761 
58710 
58678 
58713 
58750 
58790 
58825 
58824 
58819 
58885 
58918 
58924 
59012 
59036 
58982 
58952 
58921 
58935 
58949 
58984 
59000 
58987 
58986 
58984 
58981 
58975 
58961 
58993 
58998 
59024 
59046 
59057 
59027 
59009 
59030 
58972 
58932 
58957 
58988 
58996 
58996 
58973 
58967 
58949 
58890 
58898 
58904 
58892 
58899 
58869 
58864 
58865 
58893 
58905 
58894 
58907 
58930 
58902 
58884 
58909 
58963 
59004 
58949 
58902 
58882 
58890 
58883 
58884 
58833 
58776 
58780 
58874 
58860 
58815 
58817 
58789 
58766 
58748 
58745 
58755 
58772 
58758 
58735 
58713 
58700 
58696 
58655 
58623 
58606 
58552 
58505 
58533 
58605 
58619 
58603 
58596 
58543 
58482 
58453 
58415 
58386 
58359 
58351 
58372 
58364 
58315 
58312 
58344 
58326 
58277 
58245 
58267 
58230 
58196 
58171 
58087 
58120 
58154 
58123 
58085 
58036 
58015 
58049 
58054 
58018 
57956 
57924 
57901 
57874 
57837 
57847 
57836 
57829 
57811 
57802 
57771 
57720 
57678 
57638 
57638 
57593 
57579 
57569 
57562 
57589 
57652 
57623 
57586 
57572 
57558 
57539 
57501 
57455 
57410 
57425 
57427 
57415 
57415 
57427 
57390 
57372 
57383 
57411 
57388 
57368 
57381 
57348 
57350 
57336 
57322 
57298 
57289 
57286 
57241 
57222 
57206 
57148 
57115 
57074 
57047 
57046 
57039 
57006 
56949 
56851 
56821 
56858 
56834 
56800 
56782 
56738 
56673 
56627 
56590 
56558 
56505 
56423 
56437 
56513 
56537 
56519 
56526 
56534 
56472 
56393 
56346 
56336 
56305 
56286 
56290 
56285 
56261 
56253 
56264 
56270 
56250 
56243 
56247 
56268 
56256 
56263 
56215 
56203 
56177 
56166 
56184 
56149 
56159 
56152 
56145 
56131 
56143 
56200 
56168 
56162 
56150 
56164 
56136 
56122 
56179 
56219 
56212 
56182 
56168 
56168 
56180 
56125 
56107 
56122 
56115 
56138 
56158 
56183 
56185 
56202 
56263 
56263 
56279 
56260 
56192 
56163 
56179 
56247 
56462 
56410 
56393 
56347 
56311 
56387 
56387 
56429 
56449 
56444 
56371 
56282 
56273 
56257 
56199 
56185 
56165 
56162 
56169 
56146 
56075 
55988 
55961 
55978 
55969 
55929 
55904 
55925 
55946 
55904 
55880 
55845 
55798 
55817 
55859 
55859 
55889 
55926 
55888 
55854 
55874 
55865 
55846 
55797 
55742 
55702 
55706 
55743 
55757 
55779 
55771 
55799 
55795 
55788 
55790 
55782 
55784 
55818 
55814 
55807 
55817 
55817 
55792 
55771 
55735 
55722 
55785 
55817 
55809 
55820 
55851 
55897 
55878 
55866 
55889 
55917 
55949 
55891 
55884 
55921 
55971 
56005 
56015 
56039 
56068 
56117 
56081 
56036 
56046 
56070 
56094 
56130 
56160 
56145 
56154 
56181 
56172 
56125 
56139 
56175 
56182 
56199 
56210 
56220 
56234 
56264 
56301 
56329 
56322 
56311 
56317 
56340 
56383 
56409 
56392 
56377 
56386 
56413 
56471 
55920 
55930 
55946 
55947 
55950 
55942 
55935 
55937 
55946 
55954 
55978 
55976 
55941 
55920 
55894 
55883 
55901 
55962 
55992 
56006 
55990 
55958 
55951 
56001 
56021 
56075 
56108 
56050 
55987 
55923 
55913 
55934 
55950 
55923 
55935 
55994 
56009 
55950 
55938 
55958 
55973 
55983 
55990 
55955 
55980 
56018 
56051 
56049 
56065 
56014 
55959 
55976 
55995 
55993 
56060 
56108 
56132 
56126 
56122 
56129 
56151 
56174 
56170 
56189 
56230 
56262 
56283 
56328 
56316 
56279 
56309 
56318 
56306 
56324 
56351 
56335 
56390 
56374 
56321 
56320 
56312 
56347 
56403 
56409 
56428 
56425 
56356 
56359 
56434 
56470 
56459 
56449 
56478 
56493 
56494 
56496 
56463 
56475 
56525 
56565 
56589 
56619 
56652 
56624 
56570 
56560 
56618 
56684 
56684 
56634 
56622 
56623 
56559 
56544 
56551 
56619 
56692 
56705 
56675 
56380 
56373 
56381 
56425 
56458 
56467 
56480 
56484 
56487 
56524 
56511 
56509 
56508 
56503 
56558 
56589 
56605 
56594 
56547 
56523 
56526 
56573 
56551 
56510 
56499 
56520 
56527 
56524 
56525 
56519 
56513 
56495 
56525 
56578 
56625 
56600 
56560 
56568 
56549 
56555 
56554 
56581 
56619 
56631 
56641 
56685 
56736 
56717 
56689 
56739 
56790 
56735 
56719 
56748 
56772 
56734 
56679 
56670 
56650 
56652 
56694 
56700 
56702 
56698 
56699 
56753 
56802 
56806 
56791 
56827 
56803 
56754 
56726 
56766 
56775 
56792 
56806 
56790 
56753 
56695 
56700 
56745 
56767 
56770 
56749 
56711 
56714 
56667 
56600 
56608 
56563 
56530 
56552 
56514 
56468 
56432 
56381 
56342 
56304 
56245 
56193 
56123 
56083 
56063 
56028 
55961 
55956 
55936 
55873 
55781 
55719 
55673 
55631 
55639 
55678 
55683 
55707 
55696 
55643 
55638 
55934 
55964 
55985 
56014 
56038 
56080 
56155 
56203 
56154 
56128 
56199 
56234 
56243 
56244 
56234 
56216 
56253 
56294 
56340 
56378 
56418 
56459 
56499 
56501 
56527 
56515 
56540 
56557 
56533 
56568 
56554 
56576 
56607 
56657 
56701 
56673 
56664 
56650 
56630 
56660 
56669 
56642 
56643 
56650 
56735 
56773 
56801 
56808 
56815 
56826 
56832 
56825 
56796 
56828 
56837 
56846 
56876 
56861 
56888 
56888 
56847 
56831 
56853 
56901 
56931 
56915 
56893 
56918 
56957 
56937 
56958 
56967 
56955 
56984 
57050 
57077 
57052 
57026 
57056 
57113 
57162 
57169 
57115 
57044 
57007 
57047 
57066 
57019 
56943 
56939 
56945 
56951 
56982 
57005 
56994 
56959 
56880 
56828 
56764 
56712 
56667 
56628 
56630 
56651 
56602 
56534 
56512 
56491 
56498 
56539 
56523 
56444 
56355 
56297 
56257 
56223 
56205 
56229 
56206 
55830 
55857 
55845 
55845 
55889 
55926 
55976 
55985 
55961 
55951 
55915 
55864 
55898 
55952 
55994 
56057 
56063 
56040 
56049 
56095 
56098 
56134 
56124 
56095 
56058 
56052 
56142 
56100 
56042 
56021 
56040 
56105 
56150 
56198 
56231 
56289 
56291 
56268 
56286 
56327 
56338 
56387 
56394 
56408 
56434 
56381 
56400 
56404 
56443 
56464 
56471 
56424 
56416 
56477 
56566 
56603 
56593 
56597 
56613 
56649 
56686 
56723 
56686 
56682 
56717 
56733 
56744 
56774 
56823 
56870 
56874 
56892 
56918 
56898 
56890 
56904 
56898 
56875 
56826 
56839 
56890 
56906 
56913 
56960 
57039 
57101 
57137 
57152 
57148 
57105 
57078 
57124 
57147 
57176 
57174 
57174 
57192 
57195 
57158 
57120 
57185 
57207 
57199 
57208 
57213 
57295 
57314 
57311 
57336 
57364 
57386 
57362 
57326 
57329 
57342 
57373 
57385 
57359 
57390 
57383 
57385 
57396 
57409 
57375 
57360 
57388 
57380 
57399 
57406 
57390 
57431 
57456 
57372 
57344 
57376 
57385 
57418 
57449 
57452 
57427 
57394 
57363 
57342 
57362 
57398 
57366 
57329 
57341 
57314 
57251 
57148 
57049 
57036 
57066 
57040 
57012 
56955 
56918 
56888 
56832 
56784 
56773 
56776 
56748 
56725 
56680 
56644 
56666 
56645 
56606 
56570 
56510 
56486 
56389 
56319 
56301 
56327 
56320 
56337 
56333 
56342 
56309 
56236 
56195 
56221 
56236 
56256 
56293 
56269 
56229 
56208 
56197 
56254 
56283 
56316 
56296 
56234 
56227 
56238 
56267 
56313 
56300 
56262 
56276 
56289 
56272 
56250 
56236 
56231 
56256 
56309 
56361 
56377 
56374 
56395 
56410 
56458 
56469 
56451 
56435 
56384 
56403 
56424 
56443 
56453 
56479 
56552 
56566 
56534 
56536 
56549 
56535 
56553 
56647 
56694 
56683 
56713 
56756 
56736 
56708 
56676 
56668 
56699 
56761 
56831 
56855 
56832 
56863 
56896 
56891 
56874 
56897 
56882 
56897 
56921 
56937 
56944 
56887 
56883 
56974 
57067 
57099 
57103 
57043 
57033 
57056 
57072 
57065 
57073 
57045 
57050 
57103 
57061 
56990 
56995 
57022 
57026 
57042 
57069 
57075 
57054 
57063 
57105 
57129 
57117 
57156 
57133 
57086 
57119 
57159 
57232 
57271 
57219 
57218 
57237 
57247 
57289 
57257 
57242 
57269 
57262 
57253 
57262 
57306 
57331 
57302 
57262 
57240 
57281 
57304 
57313 
57369 
57418 
57423 
57347 
57317 
57299 
57303 
57349 
57421 
57416 
57381 
57357 
57237 
57113 
57004 
56962 
56883 
56845 
56801 
56741 
56678 
56638 
56548 
56433 
56370 
56316 
56224 
56105 
55991 
55939 
55876 
55798 
55762 
55725 
55654 
55543 
55456 
55340 
55287 
55262 
55231 
55208 
55149 
55111 
55074 
55019 
54987 
54948 
54870 
54830 
54816 
54836 
54850 
54852 
54846 
54821 
54799 
54778 
54818 
54849 
54835 
54836 
54888 
54926 
54926 
54942 
55004 
55029 
55080 
55122 
55084 
55115 
55197 
55240 
55259 
55258 
55291 
55354 
55425 
55474 
55485 
55491 
55510 
55568 
55623 
55615 
55617 
55683 
55772 
55767 
55812 
55856 
55876 
55911 
55931 
55975 
56034 
56104 
56166 
56153 
56173 
56243 
56311 
56353 
56406 
56506 
56585 
56614 
56634 
56608 
56605 
56627 
56688 
56755 
56816 
56853 
56878 
56922 
56960 
57011 
56995 
56998 
57030 
57088 
57134 
57167 
57234 
57348 
57403 
57476 
57530 
57572 
57664 
57747 
57805 
57892 
57959 
57957 
57942 
57973 
58077 
58131 
58176 
58193 
58199 
58185 
58184 
58265 
58349 
58389 
58378 
58431 
58474 
58479 
58499 
58525 
58593 
58656 
58712 
58735 
58772 
58829 
58846 
58884 
58975 
58989 
58967 
58974 
58975 
58941 
58884 
58853 
58845 
58829 
58858 
58907 
58902 
58910 
58970 
58954 
58920 
58897 
58853 
58797 
58766 
58774 
58826 
58852 
58852 
58869 
58856 
58817 
58746 
58686 
58652 
58664 
58619 
58555 
58431 
58289 
58175 
58045 
57921 
57806 
57724 
57675 
57546 
57409 
57307 
57186 
57047 
56901 
56769 
56686 
56588 
56432 
56232 
56086 
55991 
55939 
55825 
55664 
55502 
55402 
55341 
55217 
55085 
55005 
54881 
54782 
54706 
54624 
54510 
54383 
54273 
54225 
54180 
54126 
54133 
54140 
54074 
54016 
53974 
53929 
53896 
53863 
53866 
53871 
53870 
53846 
53915 
53953 
53977 
53988 
53985 
54008 
54011 
54008 
54026 
54065 
54067 
54089 
54167 
54234 
54210 
54224 
54226 
54229 
54290 
54353 
54391 
54432 
54465 
54502 
54532 
54631 
54672 
54735 
54830 
54856 
54846 
54887 
54963 
54998 
55036 
55092 
55158 
55242 
55365 
55436 
55476 
55486 
55533 
55632 
55707 
55768 
55811 
55859 
55908 
55953 
56027 
56027 
56035 
56096 
56211 
56311 
56357 
56401 
56480 
56512 
56554 
56610 
56642 
56669 
56750 
56802 
56828 
56834 
56898 
56997 
57063 
57177 
57300 
57366 
57462 
57519 
57531 
57580 
57593 
57656 
57792 
57866 
57887 
57920 
57979 
58042 
58050 
58081 
58079 
58091 
58176 
58237 
58295 
58337 
58300 
58294 
58353 
58396 
58476 
58549 
58545 
58514 
58524 
58533 
58544 
58580 
58568 
58645 
58693 
58705 
58748 
58794 
58841 
58856 
58902 
58942 
59006 
59025 
59012 
59006 
59005 
59035 
59073 
59118 
59148 
59187 
59185 
59203 
59271 
59301 
59270 
59298 
59332 
59328 
59325 
59304 
59295 
59321 
59320 
59300 
59321 
59351 
59330 
59324 
59302 
59275 
59193 
59085 
58998 
58901 
58796 
58714 
58618 
58453 
58263 
58180 
58056 
57939 
57828 
57723 
57569 
57429 
57316 
57229 
57143 
56997 
56863 
56768 
56738 
56695 
56609 
56510 
56376 
56267 
56211 
56224 
56200 
56126 
56114 
56109 
56090 
56084 
56042 
56028 
56043 
56045 
56082 
56064 
56043 
56081 
56054 
56054 
56106 
56190 
56230 
56287 
56339 
56355 
56376 
56403 
56459 
56510 
56576 
56679 
56706 
56695 
56772 
56889 
56958 
56976 
56998 
57047 
57094 
57097 
57177 
57278 
57317 
57342 
57378 
57464 
57589 
57675 
57745 
57786 
57858 
57926 
57994 
58023 
58022 
58049 
58095 
58093 
58079 
58103 
58149 
58233 
58236 
58287 
58388 
58427 
58461 
58522 
58587 
58597 
58601 
58629 
58619 
58662 
58722 
58851 
58952 
58956 
58966 
58971 
59017 
59049 
59063 
59098 
59179 
59194 
59234 
59257 
59262 
59299 
59333 
59348 
59347 
59370 
59409 
59472 
59506 
59542 
59555 
59575 
59635 
59723 
59779 
59833 
59856 
59874 
59841 
59842 
59853 
59876 
59928 
59950 
59980 
59997 
60021 
60047 
60077 
60105 
60157 
60201 
60203 
60182 
60215 
60281 
60277 
60222 
60187 
60193 
60250 
60251 
60235 
60253 
60341 
60408 
60422 
60425 
60478 
60497 
60441 
60435 
60461 
60430 
60416 
60436 
60465 
60439 
60441 
60458 
60463 
60464 
60503 
60554 
60547 
60518 
60512 
60531 
60513 
60523 
60534 
60529 
60504 
60462 
60442 
60434 
60427 
60390 
60384 
60426 
60452 
60369 
60316 
60283 
60196 
60080 
59925 
59783 
59657 
59540 
59398 
59278 
59159 
59068 
58902 
58737 
58561 
58406 
58269 
58133 
58047 
57987 
57921 
57790 
57660 
57610 
57542 
57464 
57372 
57305 
57268 
57231 
57152 
57085 
57013 
56961 
56907 
56883 
56901 
56946 
57002 
56997 
56994 
56979 
57011 
57044 
57078 
57093 
57138 
57185 
57224 
57262 
57309 
57392 
57443 
57498 
57550 
57591 
57670 
57737 
57791 
57867 
57928 
57917 
57916 
57977 
58049 
58076 
58104 
58171 
58213 
58225 
58218 
58237 
58324 
58375 
58399 
58479 
58544 
58611 
58675 
58721 
58776 
58873 
58945 
59018 
59054 
59051 
59079 
59106 
59115 
59122 
59118 
59123 
59149 
59220 
59273 
59319 
59330 
59341 
59363 
59373 
59393 
59427 
59475 
59532 
59535 
59522 
59544 
59581 
59637 
59659 
59682 
59734 
59779 
59780 
59821 
59908 
60014 
60040 
60047 
60076 
60086 
60078 
60091 
60140 
60194 
60257 
60295 
60299 
60273 
60266 
60285 
60320 
60368 
60390 
60434 
60486 
60510 
60529 
60574 
60616 
60615 
60615 
60622 
60633 
60653 
60643 
60652 
60746 
60795 
60805 
60823 
60832 
60855 
60875 
60894 
60893 
60903 
60874 
60812 
60802 
60814 
60876 
60867 
60862 
60901 
60945 
60987 
60983 
60948 
60943 
60954 
61001 
60991 
61001 
61058 
61050 
61051 
61078 
61084 
61091 
61069 
61058 
61074 
61085 
61052 
61025 
60954 
60867 
60776 
60684 
60548 
60327 
60155 
60010 
59878 
59737 
59568 
59423 
59246 
59077 
58947 
58786 
58633 
58486 
58312 
58173 
58067 
57953 
57821 
57742 
57648 
57547 
57503 
57508 
57442 
57367 
57314 
57233 
57203 
57132 
57111 
57096 
57076 
57058 
57053 
57085 
57077 
57031 
57057 
57115 
57155 
57224 
57273 
57310 
57356 
57418 
57506 
57556 
57608 
57631 
57664 
57706 
57770 
57820 
57925 
58002 
58085 
58157 
58179 
58202 
58280 
58377 
58444 
58489 
58560 
58695 
58804 
58844 
58899 
58947 
58996 
59016 
59017 
59011 
59069 
59137 
59214 
59286 
59331 
59372 
59405 
59436 
59469 
59506 
59545 
59590 
59675 
59747 
59799 
59819 
59819 
59833 
59820 
59843 
59868 
59877 
59940 
59992 
60042 
60089 
60106 
60135 
60145 
60192 
60315 
60424 
60486 
60529 
60601 
60647 
60720 
60731 
60700 
60677 
60721 
60768 
60801 
60844 
60864 
60869 
60927 
60961 
60992 
61036 
61088 
61116 
61161 
61219 
61249 
61248 
61254 
61279 
61316 
61389 
61461 
61467 
61483 
61500 
61544 
61608 
61600 
61589 
61604 
61651 
61683 
61725 
61762 
61751 
61735 
61742 
61787 
61832 
61858 
61877 
61884 
61897 
61927 
61949 
61966 
62014 
62013 
61998 
62019 
62021 
61959 
61922 
61905 
61965 
62002 
62030 
62018 
62078 
62080 
62036 
62013 
61980 
61955 
61984 
62001 
62002 
61993 
61958 
61935 
61878 
61750 
61582 
61475 
61295 
61125 
60980 
60800 
60589 
60380 
60149 
59958 
59803 
59653 
59471 
59277 
59131 
58965 
58730 
58558 
58409 
58282 
58183 
58089 
57991 
57919 
57801 
57681 
57593 
57517 
57461 
57401 
57323 
57283 
57263 
57264 
57243 
57189 
57165 
57147 
57151 
57206 
57198 
57153 
57159 
57161 
57238 
57333 
57380 
57397 
57425 
57510 
57596 
57701 
57833 
57890 
57932 
57967 
57955 
58002 
58123 
58227 
58292 
58329 
58387 
58430 
58482 
58565 
58709 
58817 
58863 
58901 
58940 
58952 
58983 
59046 
59118 
59166 
59241 
59285 
59297 
59350 
59430 
59475 
59559 
59584 
59580 
59628 
59728 
59849 
59915 
59953 
60003 
60061 
60104 
60129 
60142 
60167 
60197 
60253 
60279 
60314 
60371 
60436 
60520 
60510 
60544 
60574 
60597 
60657 
60691 
60715 
60758 
60773 
60804 
60841 
60859 
60884 
60944 
61031 
61149 
61213 
61227 
61205 
61201 
61286 
61350 
61382 
61404 
61396 
61385 
61440 
61529 
61604 
61616 
61591 
61650 
61700 
61728 
61754 
61782 
61850 
61867 
61919 
61966 
61992 
61997 
62017 
62058 
62132 
62225 
62255 
62229 
62220 
62256 
62305 
62361 
62408 
62410 
62419 
62406 
62435 
62476 
62506 
62536 
62565 
62561 
62591 
62669 
62730 
62733 
62754 
62812 
62874 
62854 
62817 
62817 
62826 
62811 
62837 
62875 
62895 
62859 
62819 
62788 
62753 
62680 
62540 
62462 
62344 
62163 
61971 
61764 
61593 
61431 
61214 
61013 
60838 
60615 
60413 
60193 
59997 
59826 
59689 
59528 
59385 
59238 
59089 
58951 
58818 
58686 
58545 
58467 
58388 
58310 
58228 
58154 
58054 
58016 
57982 
57927 
57953 
58000 
57969 
57929 
57904 
57861 
57854 
57908 
57945 
57944 
57971 
58036 
58100 
58189 
58270 
58350 
58418 
58489 
58607 
58719 
58761 
58814 
58871 
58892 
58935 
58978 
59063 
59149 
59255 
59372 
59479 
59607 
59667 
59702 
59751 
59800 
59819 
59872 
59933 
59947 
59971 
60026 
60114 
60231 
60297 
60325 
60337 
60365 
60409 
60456 
60514 
60591 
60625 
60614 
60614 
60649 
60700 
60744 
60785 
60856 
60900 
60953 
60990 
61020 
61052 
61100 
61158 
61178 
61211 
61274 
61353 
61424 
61476 
61467 
61449 
61493 
61553 
61609 
61658 
61693 
61730 
61752 
61757 
61808 
61848 
61865 
61881 
61923 
61953 
61989 
62020 
62059 
62166 
62257 
62298 
62336 
62401 
62426 
62410 
62461 
62541 
62580 
62673 
62743 
62772 
62778 
62788 
62847 
62914 
62943 
62965 
63024 
63101 
63120 
63138 
63165 
63166 
63203 
63246 
63269 
63264 
63299 
63346 
63464 
63492 
63483 
63504 
63508 
63552 
63589 
63558 
63527 
63537 
63538 
63531 
63571 
63567 
63581 
63629 
63667 
63694 
63710 
63684 
63671 
63649 
63644 
63606 
63554 
63467 
63326 
63227 
63150 
63049 
62890 
62750 
62558 
62378 
62176 
61930 
61751 
61604 
61451 
61271 
61069 
60844 
60674 
60539 
60432 
60325 
60177 
60058 
59929 
59799 
59681 
59520 
59380 
59284 
59259 
59207 
59120 
59059 
58989 
58903 
58872 
58836 
58828 
58831 
58807 
58790 
58757 
58771 
58826 
58876 
58896 
58919 
58993 
59078 
59173 
59253 
59356 
59442 
59555 
59677 
59756 
59836 
59977 
60156 
60368 
60533 
60678 
60847 
60988 
61095 
61219 
61387 
61503 
61625 
61766 
61883 
61961 
62072 
62214 
62337 
62493 
62597 
62667 
62758 
62806 
62868 
62986 
63061 
63115 
63206 
63265 
63331 
63428 
63534 
63619 
63676 
63739 
63788 
63844 
63905 
64021 
64118 
64189 
64254 
64338 
64431 
64496 
64607 
64698 
64741 
64799 
64905 
65064 
65166 
65232 
65273 
65329 
65396 
65483 
65560 
65607 
65643 
65695 
65749 
65835 
65959 
66052 
66090 
66168 
66282 
66370 
66450 
66526 
66611 
66677 
66711 
66715 
66807 
66921 
66961 
67047 
67138 
67197 
67275 
67345 
67362 
67407 
67404 
67417 
67475 
67529 
67628 
67680 
67633 
67622 
67658 
67662 
67657 
67646 
67619 
67664 
67734 
67751 
67731 
67751 
67816 
67864 
67841 
67785 
67815 
67827 
67812 
67799 
67790 
67753 
67679 
67605 
67550 
67439 
67308 
67179 
67017 
66822 
66654 
66485 
66277 
66076 
65858 
65618 
65400 
65140 
64868 
64627 
64380 
64107 
63839 
63609 
63387 
63197 
62987 
62769 
62529 
62324 
62153 
61951 
61726 
61557 
61412 
61253 
61118 
60989 
60904 
60791 
60672 
60591 
60530 
60431 
60333 
60277 
60215 
60142 
60135 
60105 
60095 
60090 
60101 
60117 
60094 
60122 
60172 
60244 
60273 
60288 
60341 
60428 
60550 
60600 
60581 
60700 
60844 
60900 
60933 
60967 
61018 
61071 
61090 
61116 
61123 
61158 
61227 
61316 
61397 
61458 
61518 
61558 
61578 
61637 
61669 
61622 
61566 
61580 
61631 
61688 
61707 
61717 
61722 
61762 
61768 
61800 
61794 
61745 
61761 
61805 
61812 
61797 
61784 
61785 
61788 
61776 
61793 
61820 
61866 
61892 
61938 
61996 
61988 
62008 
62032 
62027 
62020 
62042 
62091 
62136 
62150 
62151 
62180 
62201 
62250 
62264 
62271 
62368 
62467 
62490 
62520 
62572 
62647 
62677 
62701 
62737 
62755 
62741 
62716 
62738 
62781 
62800 
62808 
62850 
62887 
62890 
62916 
62922 
62921 
62949 
62959 
62903 
62899 
62951 
62983 
62948 
62914 
62900 
62901 
62935 
62994 
63041 
63048 
63035 
62998 
62981 
62965 
62933 
62915 
62845 
62755 
62703 
62669 
62637 
62608 
62607 
62604 
62605 
62557 
62516 
62450 
62374 
62329 
62175 
61981 
61804 
61632 
61480 
61280 
61098 
60903 
60738 
60486 
60168 
59875 
59561 
59243 
58950 
58629 
58348 
58068 
57748 
57458 
57192 
56932 
56689 
56449 
56187 
55935 
55760 
55574 
55366 
55170 
54988 
54825 
54660 
54505 
54380 
54283 
54202 
54127 
54090 
54073 
54026 
53951 
53911 
53932 
53969 
54009 
54034 
54027 
54042 
54055 
54031 
54041 
54071 
54148 
54276 
54353 
54417 
54497 
54604 
54704 
54801 
54850 
54954 
55024 
55115 
55247 
55357 
55434 
55509 
55599 
55706 
55783 
55912 
56009 
56087 
56168 
56250 
56317 
56311 
56329 
56341 
56323 
56364 
56423 
56487 
56520 
56516 
56540 
56532 
56573 
56601 
56586 
56571 
56556 
56520 
56522 
56620 
56702 
56719 
56707 
56691 
56668 
56641 
56662 
56696 
56720 
56779 
56837 
56855 
56856 
56875 
56946 
57017 
57084 
57144 
57145 
57143 
57174 
57195 
57215 
57223 
57223 
57310 
57396 
57443 
57456 
57487 
57529 
57599 
57695 
57729 
57785 
57875 
57939 
57949 
57965 
58006 
58063 
58074 
58042 
58036 
58109 
58141 
58167 
58188 
58191 
58193 
58211 
58251 
58272 
58257 
58264 
58366 
58410 
58451 
58513 
58513 
58521 
58571 
58593 
58583 
58602 
58625 
58642 
58670 
58651 
58614 
58635 
58592 
58542 
58519 
58511 
58499 
58518 
58534 
58584 
58594 
58620 
58638 
58598 
58581 
58566 
58549 
58511 
58461 
58433 
58371 
58294 
58252 
58150 
57998 
57848 
57652 
57427 
57211 
56995 
56775 
56568 
56315 
56038 
55794 
55588 
55370 
55138 
54917 
54670 
54424 
54177 
53936 
53731 
53544 
53371 
53179 
53028 
52903 
52782 
52624 
52447 
52289 
52167 
52084 
52038 
51960 
51886 
51846 
51807 
51771 
51779 
51729 
51665 
51657 
51644 
51651 
51654 
51673 
51652 
51669 
51721 
51780 
51853 
51905 
51969 
52077 
52164 
52321 
52450 
52533 
52643 
52774 
52880 
52994 
53115 
53249 
53365 
53467 
53587 
53750 
53928 
54011 
54095 
54213 
54346 
54467 
54634 
54821 
54942 
55070 
55209 
55325 
55422 
55514 
55572 
55622 
55691 
55741 
55787 
55869 
55933 
56002 
56086 
56206 
56251 
56309 
56392 
56457 
56545 
56596 
56632 
56693 
56733 
56792 
56865 
56940 
57025 
57130 
57150 
57209 
57334 
57387 
57427 
57476 
57477 
57506 
57593 
57708 
57777 
57835 
57924 
57979 
57986 
58018 
58064 
58132 
58197 
58268 
58331 
58443 
58522 
58545 
58591 
58613 
58659 
58668 
58706 
58762 
58888 
58999 
59133 
59238 
59305 
59362 
59453 
59516 
59561 
59611 
59672 
59738 
59816 
59888 
59909 
59911 
59934 
60001 
60048 
60143 
60219 
60248 
60310 
60356 
60363 
60371 
60409 
60434 
60414 
60424 
60434 
60458 
60440 
60436 
60485 
60542 
60554 
60566 
60594 
60618 
60640 
60663 
60671 
60681 
60688 
60757 
60801 
60806 
60754 
60769 
60766 
60769 
60757 
60678 
60613 
60532 
60442 
60321 
60194 
60062 
59918 
59769 
59595 
59390 
59214 
59016 
58781 
58569 
58354 
58132 
57866 
57555 
57312 
57057 
56765 
56536 
56253 
56012 
55808 
55639 
55505 
55383 
55233 
55087 
54973 
54853 
54753 
54703 
54638 
54579 
54567 
54502 
54468 
54484 
54491 
54438 
54392 
54367 
54421 
54426 
54469 
54494 
54543 
54597 
54644 
54727 
54817 
54869 
54943 
55040 
55170 
55278 
55404 
55559 
55663 
55768 
55926 
56028 
56148 
56260 
56345 
56416 
56530 
56627 
56717 
56892 
57038 
57129 
57223 
57311 
57364 
57407 
57406 
57471 
57524 
57602 
57683 
57714 
57703 
57704 
57720 
57715 
57750 
57816 
57901 
57924 
57948 
58002 
58021 
58037 
58050 
58065 
58087 
58085 
58081 
58122 
58192 
58176 
58198 
58285 
58418 
58562 
58638 
58664 
58729 
58827 
58898 
58977 
59051 
59087 
59129 
59227 
59268 
59328 
59437 
59503 
59517 
59547 
59603 
59644 
59704 
59787 
59898 
59979 
60042 
60086 
60120 
60153 
60140 
60096 
60111 
60187 
60249 
60277 
60347 
60426 
60448 
60465 
60478 
60496 
60528 
60527 
60579 
60627 
60665 
60688 
60732 
60772 
60776 
60807 
60805 
60802 
60822 
60846 
60875 
60846 
60837 
60882 
60949 
60932 
60884 
60878 
60907 
60900 
60845 
60881 
60885 
60869 
60851 
60880 
60893 
60870 
60868 
60856 
60896 
60935 
60890 
60842 
60768 
60709 
60665 
60603 
60569 
60561 
60517 
60457 
60326 
60196 
60040 
59849 
59624 
59415 
59221 
59002 
58756 
58446 
58107 
57757 
57363 
56982 
56572 
56210 
55897 
55589 
55311 
55029 
54782 
54585 
54393 
54152 
53971 
53830 
53696 
53532 
53333 
53152 
53039 
52936 
52848 
52815 
52789 
52720 
52614 
52559 
52590 
52622 
52665 
52694 
52676 
52680 
52700 
52714 
52741 
52825 
52904 
52953 
53033 
53130 
53182 
53215 
53322 
53465 
53611 
53766 
53873 
53935 
54006 
54103 
54162 
54310 
54519 
54667 
54755 
54850 
54942 
55089 
55246 
55364 
55476 
55596 
55691 
55769 
55891 
56003 
56082 
56227 
56377 
56526 
56649 
56741 
56816 
56910 
56995 
57049 
57095 
57151 
57260 
57376 
57434 
57508 
57594 
57613 
57615 
57613 
57667 
57714 
57755 
57830 
57950 
58014 
58044 
58060 
58068 
58129 
58201 
58312 
58391 
58475 
58527 
58578 
58621 
58696 
58778 
58876 
58932 
59003 
59142 
59251 
59287 
59317 
59377 
59409 
59442 
59552 
59667 
59752 
59763 
59748 
59770 
59833 
59884 
59925 
59932 
59948 
60006 
60067 
60145 
60191 
60190 
60245 
60314 
60366 
60363 
60319 
60343 
60382 
60377 
60396 
60436 
60483 
60531 
60566 
60523 
60524 
60522 
60548 
60503 
60481 
60476 
60502 
60524 
60534 
60548 
60536 
60542 
60544 
60557 
60564 
60550 
60565 
60575 
60574 
60547 
60539 
60525 
60544 
60549 
60535 
60525 
60487 
60489 
60451 
60394 
60358 
60324 
60305 
60338 
60350 
60335 
60274 
60241 
60244 
60228 
60217 
60174 
60161 
60146 
60068 
60017 
59971 
59875 
59776 
59653 
59495 
59351 
59192 
59052 
58916 
58756 
58525 
58298 
58131 
57954 
57739 
57511 
57259 
57038 
56849 
56649 
56477 
56288 
56133 
55975 
55806 
55651 
55512 
55386 
55266 
55164 
55117 
55023 
54919 
54862 
54739 
54618 
54581 
54578 
54558 
54522 
54488 
54474 
54460 
54456 
54478 
54514 
54532 
54514 
54561 
54600 
54645 
54661 
54632 
54679 
54753 
54797 
54863 
54915 
54968 
55002 
55055 
55144 
55247 
55367 
55447 
55580 
55721 
55802 
55916 
56015 
56069 
56166 
56263 
56318 
56355 
56389 
56436 
56501 
56595 
56682 
56732 
56738 
56794 
56845 
56933 
57038 
57040 
57055 
57153 
57261 
57335 
57356 
57407 
57466 
57560 
57665 
57738 
57808 
57863 
57903 
57938 
57932 
57938 
57980 
58049 
58120 
58139 
58171 
58232 
58269 
58344 
58420 
58452 
58546 
58610 
58645 
58667 
58667 
58706 
58749 
58827 
58839 
58814 
58897 
58976 
59020 
59030 
59058 
59099 
59161 
59227 
59226 
59214 
59232 
59249 
59292 
59376 
59457 
59491 
59500 
59490 
59505 
59515 
59520 
59496 
59520 
59555 
59552 
59510 
59456 
59445 
59478 
59499 
59511 
59505 
59482 
59478 
59459 
59447 
59400 
59412 
59401 
59361 
59371 
59356 
59348 
59334 
59334 
59298 
59282 
59307 
59311 
59301 
59239 
59241 
59186 
59093 
59080 
59057 
59039 
59031 
59010 
59002 
59008 
58978 
58962 
58982 
59028 
59053 
59006 
58971 
58958 
58969 
58970 
58892 
58859 
58858 
58846 
58869 
58890 
58911 
58854 
58824 
58830 
58821 
58793 
58814 
58847 
58837 
58820 
58769 
58759 
58738 
58736 
58777 
58779 
58774 
58770 
58781 
58819 
58827 
58774 
58719 
58706 
58729 
58704 
58623 
58538 
58441 
58374 
58337 
58282 
58209 
58040 
57857 
57699 
57599 
57464 
57285 
57158 
57009 
56836 
56730 
56633 
56545 
56458 
56339 
56224 
56131 
56000 
55915 
55858 
55846 
55752 
55644 
55557 
55472 
55442 
55472 
55484 
55450 
55374 
55304 
55281 
55245 
55198 
55190 
55159 
55151 
55142 
55112 
55118 
55149 
55230 
55286 
55365 
55394 
55433 
55453 
55460 
55527 
55648 
55675 
55693 
55764 
55844 
55862 
55864 
55902 
55943 
56042 
56142 
56221 
56216 
56220 
56278 
56346 
56408 
56444 
56469 
56514 
56606 
56649 
56677 
56666 
56676 
56707 
56685 
56658 
56662 
56655 
56641 
56666 
56690 
56653 
56640 
56642 
56629 
56659 
56708 
56785 
56755 
56734 
56710 
56701 
56634 
56618 
56666 
56701 
56745 
56793 
56827 
56820 
56826 
56836 
56817 
56797 
56793 
56847 
56899 
56864 
56858 
56907 
56903 
56912 
56896 
56899 
56928 
56920 
56908 
56929 
56983 
57052 
57105 
57119 
57115 
57110 
57117 
57106 
57119 
57123 
57187 
57246 
57261 
57288 
57275 
57229 
57221 
57208 
57214 
57208 
57291 
57343 
57350 
57353 
57366 
57379 
57369 
57401 
57421 
57445 
57513 
57575 
57575 
57545 
57547 
57585 
57603 
57625 
57600 
57614 
57612 
57606 
57622 
57634 
57707 
57753 
57736 
57719 
57733 
57768 
57786 
57812 
57809 
57856 
57878 
57856 
57877 
57903 
57888 
57867 
57884 
57905 
57956 
57987 
57998 
58032 
58081 
58137 
58136 
58104 
58103 
58105 
58082 
58062 
58057 
58080 
58074 
58098 
58153 
58121 
58120 
58124 
58090 
58021 
57940 
57869 
57795 
57730 
57648 
57634 
57609 
57616 
57567 
57493 
57392 
57368 
57382 
57302 
57238 
57201 
57170 
57178 
57087 
57012 
56919 
56794 
56722 
56708 
56694 
56646 
56609 
56550 
56509 
56440 
56357 
56292 
56211 
56133 
56096 
56059 
56064 
56032 
55972 
55974 
55968 
55940 
55933 
55951 
55913 
55881 
55825 
55829 
55851 
55787 
55723 
55671 
55676 
55698 
55697 
55673 
55676 
55703 
55688 
55659 
55670 
55656 
55653 
55669 
55665 
55593 
55576 
55544 
55529 
55547 
55531 
55505 
55516 
55510 
55513 
55562 
55574 
55615 
55683 
55697 
55706 
55695 
55721 
55711 
55742 
55769 
55805 
55816 
55820 
55840 
55911 
55945 
55974 
56021 
56086 
56136 
56170 
56241 
56330 
56383 
56420 
56431 
56492 
56537 
56585 
56622 
56684 
56735 
56778 
56814 
56856 
56887 
56920 
56979 
57042 
57085 
57118 
57174 
57161 
57157 
57208 
57240 
57282 
57350 
57423 
57443 
57514 
57585 
57630 
57666 
57693 
57775 
57805 
57821 
57838 
57847 
57895 
57920 
57957 
57980 
58029 
58091 
58100 
58118 
58156 
58183 
58259 
58344 
58387 
58389 
58385 
58437 
58486 
58533 
58561 
58541 
58509 
58536 
58547 
58606 
58643 
58659 
58711 
58725 
58732 
58702 
58690 
58708 
58728 
58757 
58851 
58898 
58931 
58952 
58983 
58962 
58942 
58979 
59057 
59055 
59051 
59057 
59091 
59112 
59145 
59172 
59144 
59129 
59142 
59190 
59225 
59218 
59236 
59236 
59237 
59276 
59286 
59278 
59337 
59365 
59429 
59504 
59532 
59553 
59573 
59609 
59628 
59627 
59595 
59580 
59575 
59569 
59583 
59634 
59675 
59671 
59653 
59647 
59667 
59687 
59721 
59723 
59739 
59758 
59733 
59740 
59742 
59760 
59723 
59717 
59726 
59766 
59772 
59766 
59791 
59843 
59862 
59835 
59826 
59792 
59773 
59792 
59842 
59842 
59845 
59854 
59811 
59817 
59831 
59848 
59862 
59825 
59813 
59836 
59856 
59885 
59896 
59899 
59907 
59864 
59853 
59836 
59767 
59739 
59759 
59797 
59817 
59827 
59851 
59891 
59842 
59830 
59866 
59853 
59816 
59818 
59820 
59799 
59808 
58371 
58345 
58362 
58355 
58336 
58293 
58238 
58178 
58116 
58144 
58170 
58163 
58230 
58283 
58262 
58221 
58181 
58185 
58170 
58151 
58115 
58095 
58127 
58166 
58135 
58082 
58050 
58057 
58034 
58016 
58025 
58010 
57980 
58001 
58028 
58010 
58037 
58081 
58112 
58098 
58071 
58109 
58147 
58192 
58197 
58179 
58151 
58157 
58210 
58273 
58295 
58288 
58301 
58332 
58385 
58403 
58382 
58331 
58295 
58294 
58263 
58203 
58169 
58186 
58214 
58197 
58183 
58214 
58290 
58237 
58186 
58157 
58169 
58195 
58220 
58201 
58211 
58274 
58258 
58247 
58179 
58153 
58164 
58196 
58170 
58115 
58088 
58111 
58209 
58245 
58265 
58251 
58233 
58179 
58160 
58183 
58216 
58241 
58214 
58187 
58181 
58148 
58125 
58152 
58171 
58183 
58192 
58185 
58194 
58217 
58191 
58158 
58150 
58126 
58112 
58103 
58152 
58198 
58232 
58044 
58036 
57991 
57993 
58051 
58018 
57965 
57965 
57934 
57880 
57876 
57875 
57932 
57958 
57957 
57936 
57907 
57882 
57886 
57906 
57915 
57862 
57807 
57831 
57807 
57762 
57772 
57801 
57806 
57802 
57770 
57772 
57795 
57799 
57764 
57735 
57708 
57769 
57798 
57839 
57850 
57767 
57754 
57767 
57766 
57732 
57694 
57737 
57819 
57812 
57792 
57833 
57871 
57834 
57834 
57872 
57906 
57956 
57972 
57938 
57914 
57951 
57919 
57979 
58043 
58070 
58045 
58020 
57990 
58018 
58039 
58033 
58055 
58092 
58119 
58135 
58168 
58171 
58111 
58040 
58027 
58034 
58094 
58112 
58103 
58082 
58055 
58044 
58031 
57977 
57932 
57944 
57945 
57953 
58004 
58041 
58059 
58074 
58065 
58090 
58102 
58086 
58076 
58085 
58067 
58088 
58098 
58125 
58160 
58184 
58150 
58131 
58127 
58153 
58183 
58189 
58168 
58134 
58156 
58160 
58147 
58153 
58114 
58061 
58040 
58031 
58048 
58087 
58091 
58092 
58115 
58106 
58092 
58051 
58003 
57962 
57961 
57986 
57996 
58005 
58027 
58076 
58076 
58039 
58070 
58092 
58047 
57999 
57948 
57907 
57931 
57994 
58019 
58031 
58061 
58058 
58016 
57968 
57954 
57938 
57915 
57893 
57876 
57833 
57831 
57850 
57834 
57804 
57818 
57831 
57852 
57823 
57778 
57732 
57741 
57768 
57757 
57757 
57757 
57746 
57723 
57700 
57684 
57676 
57666 
57680 
57699 
57670 
57678 
57660 
57652 
57669 
57648 
57697 
57722 
57739 
57749 
57736 
57747 
57777 
57767 
57754 
57797 
57825 
57851 
57901 
57900 
57873 
57888 
57887 
57861 
57858 
57889 
57927 
58023 
58059 
58032 
58016 
58039 
58052 
58048 
58064 
58115 
58167 
58153 
58126 
58057 
58071 
58138 
58174 
58184 
58195 
58234 
58227 
58236 
58186 
58205 
58281 
58316 
58334 
58323 
58298 
58291 
58287 
58295 
58315 
58344 
58386 
58421 
58410 
58398 
58410 
58456 
58442 
58396 
58357 
58343 
58340 
58320 
58298 
58342 
58366 
58356 
58332 
58341 
58398 
58423 
58469 
58469 
58415 
58416 
58441 
58465 
58491 
58485 
58486 
58492 
58506 
58535 
58530 
58486 
58456 
58448 
58433 
58476 
58562 
58556 
58541 
58521 
58521 
58503 
58473 
58435 
58475 
58455 
58456 
58471 
58477 
58445 
58404 
58355 
58363 
58399 
58423 
58454 
58432 
58437 
58478 
58492 
58473 
58410 
58389 
58397 
58344 
58291 
58310 
58336 
58343 
58345 
58384 
58364 
58357 
58358 
58395 
58417 
58393 
58306 
58242 
58212 
58205 
58218 
58250 
58269 
58279 
58276 
58231 
58218 
58259 
58295 
58276 
58233 
58195 
58155 
58139 
58177 
58227 
58227 
58149 
58091 
58111 
58149 
58167 
58114 
58104 
58133 
58101 
58070 
58064 
58076 
58068 
58041 
57997 
57978 
57966 
57968 
58014 
58058 
58062 
58069 
58040 
57962 
57890 
57870 
57862 
57898 
57947 
57915 
57899 
57926 
57940 
57911 
57872 
57900 
57945 
57936 
57922 
57924 
57918 
57896 
57888 
57899 
57900 
57940 
57959 
57954 
57972 
58026 
58049 
58010 
57968 
57962 
57932 
57900 
57894 
57899 
57894 
57871 
57891 
57866 
57855 
57916 
57950 
57976 
57942 
57911 
57933 
57930 
57953 
58002 
58040 
58064 
58022 
58010 
58029 
58025 
58000 
58034 
58067 
58074 
58076 
58090 
58140 
58153 
58144 
58145 
58180 
58156 
58139 
58159 
58169 
58148 
58145 
58152 
58169 
58221 
58198 
58166 
58169 
58181 
58188 
58157 
58092 
58028 
58013 
58032 
58141 
58198 
58139 
58122 
58120 
58120 
58140 
58152 
58161 
58179 
58147 
58090 
58053 
58078 
58090 
58081 
58089 
58081 
58123 
58122 
58122 
58145 
58174 
58192 
58165 
58121 
58137 
58171 
58151 
58141 
58123 
58105 
58123 
58188 
58287 
58329 
58342 
58262 
58232 
58231 
58250 
58215 
58163 
58153 
58154 
58181 
58250 
58319 
58326 
58350 
58333 
58307 
58293 
58275 
58253 
58240 
58252 
58236 
58226 
58212 
58216 
58179 
58145 
58165 
58187 
58153 
58106 
58064 
57995 
57978 
57985 
58002 
57992 
57968 
57977 
57959 
57911 
57933 
57959 
57929 
57887 
57856 
57844 
57859 
57920 
57955 
57926 
57887 
57840 
57818 
57811 
57798 
57791 
57794 
57827 
57887 
57882 
57821 
57774 
57759 
57756 
57774 
57802 
57786 
57803 
57779 
57774 
57786 
57802 
57791 
57772 
57782 
57785 
57731 
57713 
57749 
57791 
57841 
57842 
57833 
57829 
57853 
57903 
57921 
57937 
57951 
57961 
57956 
57968 
57961 
57945 
57981 
58010 
58003 
57996 
57956 
57990 
58025 
58030 
58059 
58130 
58152 
58138 
58161 
58146 
58113 
58103 
58073 
58051 
58079 
58142 
58137 
58103 
58122 
58119 
58098 
58118 
58115 
58102 
58139 
58159 
58158 
58151 
58141 
58146 
58160 
58136 
58149 
58153 
58127 
58150 
58179 
58199 
58163 
58118 
58117 
58173 
58234 
58222 
58195 
58159 
58157 
58138 
58153 
58215 
58266 
58307 
58319 
58303 
58301 
58281 
58323 
58317 
58284 
58275 
58323 
58353 
58315 
58272 
58289 
58332 
58320 
58341 
58347 
58293 
58268 
58296 
58327 
58343 
58307 
58288 
58332 
58362 
58357 
58368 
58359 
58360 
58392 
58422 
58414 
58369 
58356 
58398 
58436 
58422 
58410 
58473 
58518 
58487 
58470 
58471 
58448 
58417 
58449 
58430 
58404 
58433 
58450 
58476 
58491 
58479 
58488 
58494 
58466 
58411 
58408 
58405 
58384 
58396 
58446 
58477 
58527 
58562 
58545 
58512 
58487 
58500 
58499 
58506 
58564 
58548 
58524 
58534 
58550 
58546 
58523 
58523 
58525 
58481 
58444 
58469 
58505 
58521 
58478 
58419 
58432 
58435 
58435 
58440 
58411 
58429 
58422 
58423 
58445 
58422 
58395 
58435 
58422 
58397 
58406 
58403 
58390 
58432 
58448 
58393 
58363 
58391 
58414 
58380 
58370 
58387 
58416 
58442 
58443 
58409 
58398 
58439 
58525 
58551 
58532 
58475 
58434 
58421 
58433 
58427 
58408 
58423 
58448 
58468 
58437 
58386 
58397 
58455 
58485 
58520 
58518 
58526 
58551 
58548 
58491 
58481 
58488 
58499 
58479 
58484 
58512 
58567 
58616 
58640 
58637 
58607 
58569 
58565 
58601 
58629 
58707 
58708 
58698 
58670 
58650 
58641 
58672 
58721 
58742 
58711 
58731 
58702 
58658 
58685 
58689 
58669 
58703 
58707 
58671 
58689 
58679 
58638 
58670 
58695 
58709 
58721 
58767 
58786 
58810 
58810 
58783 
58763 
58735 
58672 
58666 
58716 
58736 
58734 
58755 
58748 
58739 
58788 
58800 
58781 
58781 
58751 
58729 
58718 
58735 
58727 
58728 
58738 
58700 
58720 
58717 
58671 
58682 
58662 
58645 
58653 
58644 
58663 
58675 
58673 
58710 
58732 
58745 
58759 
58759 
58718 
58699 
58696 
58714 
58758 
58754 
58734 
58691 
58650 
58643 
58681 
58704 
58694 
58659 
58600 
58620 
58628 
58631 
58695 
58728 
58737 
58756 
58786 
58827 
58780 
58771 
58741 
58695 
58665 
58649 
58669 
58664 
58615 
58592 
58574 
58584 
58523 
58493 
58498 
58529 
58516 
58486 
58421 
58405 
58459 
58489 
58472 
58450 
58392 
58366 
58356 
58343 
58342 
58395 
58431 
58379 
58373 
58329 
58289 
58335 
58404 
58425 
58416 
58426 
58391 
58345 
58349 
58368 
58376 
58376 
58418 
58452 
58425 
58400 
58379 
58360 
58375 
58378 
58338 
58338 
58345 
58358 
58352 
58376 
58417 
58407 
58353 
58318 
58304 
58315 
58339 
58319 
58356 
58429 
58408 
58380 
58380 
58344 
58343 
58395 
58418 
58384 
58365 
58378 
58349 
58367 
58411 
58406 
58355 
58322 
58319 
58379 
58442 
58463 
58439 
58445 
58426 
58391 
58402 
58422 
58426 
58368 
58308 
58304 
58304 
58306 
58310 
58332 
58378 
58373 
58325 
58345 
58376 
58409 
58479 
58462 
58390 
58373 
58363 
58359 
58334 
58322 
58337 
58324 
58352 
58398 
58382 
58315 
58277 
58285 
58332 
58352 
58364 
58405 
58478 
58528 
58485 
58480 
58482 
58498 
58445 
58397 
58366 
58342 
58351 
58385 
58445 
58463 
58482 
58465 
58451 
58461 
58446 
58415 
58403 
58343 
58361 
58381 
58375 
58347 
58348 
58396 
58387 
58346 
58340 
58370 
58354 
58324 
58328 
58350 
58395 
58421 
58389 
58337 
58333 
58345 
58312 
58293 
58343 
58373 
58350 
58344 
58367 
58365 
58379 
58398 
58447 
58465 
58457 
58429 
58395 
58369 
58354 
58347 
58352 
58343 
58306 
58280 
58251 
58191 
58158 
58168 
58173 
58138 
58114 
58170 
58228 
58203 
58148 
58126 
58137 
58112 
58096 
58104 
58057 
58050 
58075 
58054 
58048 
58055 
58048 
58070 
58112 
58074 
58060 
58107 
58122 
58097 
58042 
58015 
58007 
58074 
58104 
58108 
58081 
58071 
58095 
58144 
58147 
58080 
58036 
58051 
58108 
58174 
58181 
58127 
58090 
58051 
58093 
58098 
58082 
58110 
58100 
58099 
58078 
58097 
58135 
58167 
58200 
58194 
58190 
58162 
58118 
58174 
58260 
58296 
58297 
58262 
58245 
58263 
58230 
58171 
58131 
58141 
58226 
58279 
58295 
58331 
58364 
58380 
58346 
58338 
58369 
58395 
58421 
58430 
58394 
58411 
58441 
58413 
58399 
58384 
58381 
58466 
58521 
58523 
58508 
58464 
58470 
58442 
58408 
58417 
58514 
58607 
58635 
58640 
58670 
58651 
58659 
58662 
58656 
58651 
58655 
58673 
58665 
58664 
58699 
58698 
58676 
58701 
58710 
58657 
58688 
58752 
58747 
58723 
58767 
58827 
58803 
58779 
58772 
58753 
58727 
58742 
58718 
58741 
58762 
58779 
58796 
58779 
58755 
58713 
58657 
58701 
58727 
58720 
58724 
58767 
58754 
58713 
58715 
58734 
58730 
58716 
58674 
58627 
58589 
58589 
58577 
58611 
58644 
58677 
58709 
58693 
58704 
58726 
58775 
58805 
58802 
58834 
58870 
58824 
58792 
58810 
58813 
58812 
58800 
58828 
58871 
58888 
58873 
58893 
58858 
58879 
58864 
58820 
58779 
58762 
58777 
58776 
58794 
58815 
58823 
58809 
58798 
58769 
58733 
58679 
58634 
58595 
58587 
58551 
58525 
58537 
58542 
58563 
58532 
58474 
58469 
58444 
58436 
58422 
58384 
58347 
58361 
58351 
58304 
58309 
58298 
58267 
58272 
58317 
58313 
58332 
58340 
58301 
58281 
58250 
58216 
58210 
58222 
58194 
58137 
58115 
58142 
58137 
58094 
58071 
58078 
58091 
58100 
58101 
58098 
58054 
58034 
58076 
58155 
58217 
58230 
58250 
58248 
58244 
58291 
58273 
58280 
58289 
58255 
58238 
58224 
58239 
58274 
58324 
58351 
58358 
58397 
58357 
58361 
58396 
58417 
58425 
58434 
58449 
58434 
58421 
58432 
58441 
58417 
58426 
58463 
58494 
58488 
58516 
58549 
58523 
58525 
58570 
58560 
58521 
58474 
58483 
58504 
58522 
58534 
58533 
58560 
58566 
58545 
58536 
58533 
58529 
58539 
58514 
58495 
58509 
58549 
58578 
58576 
58545 
58510 
58580 
58597 
58573 
58528 
58515 
58529 
58512 
58526 
58537 
58505 
58511 
58530 
58573 
58598 
58595 
58591 
58578 
58592 
58597 
58617 
58668 
58679 
58644 
58592 
58573 
58613 
58648 
58656 
58663 
58678 
58686 
58685 
58725 
58760 
58737 
58702 
58665 
58653 
58693 
58720 
58675 
58659 
58699 
58716 
58769 
58783 
58772 
58785 
58770 
58755 
58752 
58757 
58785 
58812 
58822 
58839 
58822 
58752 
58774 
58781 
58777 
58732 
58697 
58690 
58721 
58762 
58779 
58766 
58758 
58806 
58856 
58846 
58769 
58712 
58724 
58707 
58698 
58680 
58693 
58696 
58728 
58713 
58695 
58695 
58670 
58670 
58663 
58610 
58584 
58619 
58671 
58726 
58763 
58764 
58744 
58714 
58700 
58659 
58667 
58659 
58684 
58701 
58706 
58692 
58691 
58693 
58687 
58715 
58751 
58751 
58740 
58749 
58720 
58689 
58662 
58684 
58722 
58807 
58835 
58819 
58827 
58834 
58832 
58855 
58836 
58894 
58929 
58925 
58909 
58900 
58871 
58830 
58845 
58849 
58812 
58778 
58805 
58848 
58869 
58875 
58858 
58877 
58893 
58831 
58764 
58721 
58715 
58741 
58742 
58766 
58785 
58739 
58662 
58633 
58611 
58610 
58613 
58575 
58558 
58569 
58567 
58579 
58571 
58564 
58552 
58579 
58588 
58587 
58619 
58577 
58564 
58629 
58668 
58645 
58591 
58572 
58561 
58559 
58577 
58584 
58607 
58570 
58526 
58536 
58555 
58583 
58573 
58606 
58639 
58635 
58655 
58701 
58693 
58656 
58642 
58622 
58622 
58663 
58639 
58593 
58600 
58629 
58651 
58617 
58605 
58652 
58727 
58731 
58686 
58661 
58660 
58647 
58676 
58630 
58624 
58644 
58621 
58620 
58646 
58634 
58677 
58690 
58671 
58660 
58647 
58623 
58664 
58703 
58750 
58800 
58787 
58768 
58816 
58816 
58811 
58829 
58883 
58892 
58870 
58877 
58861 
58801 
58771 
58789 
58789 
58795 
58826 
58852 
58845 
58809 
58806 
58776 
58732 
58711 
58759 
58808 
58830 
58829 
58794 
58767 
58743 
58721 
58733 
58730 
58709 
58664 
58699 
58743 
58743 
58743 
58760 
58738 
58716 
58705 
58719 
58702 
58731 
58729 
58724 
58750 
58721 
58721 
58662 
58572 
58537 
58562 
58599 
58646 
58648 
58644 
58677 
58706 
58665 
58651 
58642 
58583 
58570 
58609 
58670 
58654 
58602 
58628 
58694 
58694 
58692 
58695 
58676 
58649 
58643 
58651 
58638 
58695 
58731 
58689 
58684 
58690 
58718 
58737 
58750 
58727 
58717 
58732 
58681 
58676 
58707 
58727 
58701 
58650 
58616 
58668 
58723 
58722 
58699 
58672 
58683 
58703 
58715 
58684 
58671 
58709 
58700 
58673 
58660 
58684 
58639 
58622 
58680 
58690 
58681 
58704 
58691 
58705 
58714 
58660 
58562 
58501 
58550 
58574 
58649 
58707 
58748 
58788 
58821 
58809 
58791 
58760 
58729 
58715 
58679 
58691 
58717 
58745 
58735 
58740 
58726 
58696 
58666 
58662 
58637 
58655 
58715 
58703 
58704 
58713 
58669 
58602 
58595 
58612 
58597 
58546 
58529 
58484 
58459 
58461 
58503 
58540 
58524 
58537 
58574 
58598 
58589 
58597 
58599 
58614 
58584 
58545 
58590 
58640 
58614 
58594 
58603 
58587 
58558 
58551 
58575 
58551 
58523 
58475 
58448 
58437 
58454 
58497 
58528 
58547 
58506 
58477 
58417 
58377 
58395 
58442 
58464 
58470 
58502 
58519 
58489 
58440 
58403 
58446 
58435 
58414 
58420 
58476 
58543 
58578 
58597 
58603 
58540 
58490 
58491 
58547 
58627 
58645 
58621 
58576 
58536 
58510 
58510 
58585 
58595 
58527 
58469 
58483 
58480 
58461 
58471 
58484 
58467 
58405 
58398 
58404 
58439 
58465 
58454 
58403 
58385 
58416 
58441 
58496 
58553 
58552 
58477 
58402 
58384 
58388 
58397 
58406 
58432 
58434 
58380 
58371 
58393 
58396 
58417 
58390 
58372 
58382 
58415 
58455 
58425 
58403 
58405 
58395 
58428 
58464 
58456 
58460 
58519 
58536 
58484 
58501 
58520 
58488 
58445 
58459 
58480 
58483 
58517 
58538 
58507 
58467 
58451 
58502 
58495 
58488 
58474 
58423 
58379 
58416 
58424 
58439 
58482 
58482 
58502 
58501 
58484 
58514 
58556 
58543 
58517 
58494 
58444 
58455 
58467 
58460 
58490 
58520 
58539 
58536 
58523 
58537 
58557 
58575 
58578 
58573 
58580 
58606 
58609 
58618 
58634 
58633 
58636 
58615 
58615 
58598 
58580 
58585 
58549 
58508 
58504 
58504 
58497 
58451 
58443 
58481 
58532 
58640 
58625 
58575 
58532 
58500 
58512 
58562 
58634 
58630 
58611 
58600 
58571 
58581 
58580 
58553 
58531 
58551 
58584 
58590 
58604 
58614 
58618 
58588 
58559 
58552 
58560 
58598 
58607 
58612 
58646 
58641 
58614 
58642 
58637 
58607 
58636 
58667 
58640 
58614 
58647 
58656 
58667 
58607 
58593 
58633 
58632 
58608 
58582 
58602 
58607 
58582 
58556 
58559 
58604 
58603 
58579 
58568 
58589 
58606 
58633 
58658 
58690 
58743 
58741 
58700 
58648 
58646 
58641 
58621 
58614 
58611 
58603 
58589 
58562 
58533 
58562 
58532 
58490 
58493 
58527 
58572 
58495 
58442 
58442 
58411 
58445 
58442 
58436 
58472 
58485 
58435 
58432 
58442 
58487 
58499 
58425 
58353 
58324 
58315 
58314 
58341 
58379 
58415 
58422 
58383 
58397 
58441 
58437 
58409 
58402 
58410 
58440 
58446 
58439 
58425 
58414 
58436 
58458 
58525 
58560 
58542 
58511 
58457 
58428 
58492 
58523 
58495 
58470 
58499 
58535 
58582 
58648 
58694 
58659 
58598 
58541 
58543 
58572 
58526 
58510 
58506 
58559 
58580 
58567 
58567 
58548 
58499 
58536 
58604 
58649 
58662 
58640 
58614 
58599 
58585 
58608 
58611 
58624 
58712 
58704 
58672 
58679 
58659 
58657 
58679 
58678 
58664 
58666 
58707 
58728 
58735 
58767 
58741 
58718 
58731 
58776 
58762 
58753 
58747 
58736 
58742 
58718 
58682 
58703 
58763 
58780 
58779 
58770 
58758 
58753 
58690 
58692 
58737 
58804 
58829 
58822 
58809 
58770 
58736 
58726 
58721 
58704 
58665 
58669 
58681 
58672 
58677 
58697 
58701 
58688 
58713 
58681 
58673 
58695 
58713 
58778 
58841 
58837 
58797 
58792 
58820 
58836 
58831 
58820 
58833 
58870 
58848 
58807 
58808 
58811 
58804 
58770 
58725 
58717 
58719 
58743 
58769 
58801 
58861 
58842 
58786 
58733 
58710 
58759 
58790 
58795 
58823 
58857 
58807 
58692 
58666 
58740 
58754 
58752 
58772 
58825 
58832 
58806 
58853 
58839 
58836 
58859 
58820 
58785 
58752 
58708 
58699 
58692 
58669 
58690 
58668 
58622 
58638 
58684 
58668 
58613 
58564 
58597 
58640 
58613 
58654 
58686 
58674 
58648 
58689 
58730 
58767 
58734 
58737 
58777 
58736 
58678 
58667 
58649 
58681 
58697 
58692 
58692 
58672 
58691 
58717 
58751 
58744 
58755 
58788 
58793 
58826 
58820 
58826 
58811 
58781 
58787 
58823 
58775 
58742 
58706 
58707 
58674 
58645 
58694 
58710 
58675 
58654 
58620 
58615 
58651 
58669 
58652 
58640 
58658 
58693 
58704 
58737 
58741 
58741 
58738 
58735 
58780 
58792 
58781 
58782 
58790 
58814 
58865 
58828 
58778 
58756 
58753 
58810 
58837 
58809 
58813 
58856 
58870 
58870 
58867 
58856 
58807 
58777 
58801 
58851 
58881 
58865 
58825 
58847 
58860 
58864 
58863 
58830 
58837 
58895 
58968 
58980 
58982 
59012 
58975 
58907 
58846 
58860 
58897 
58914 
58947 
58994 
59024 
58977 
58978 
59024 
59036 
58992 
59018 
59095 
59133 
59141 
59139 
59155 
59162 
59110 
59102 
59083 
59053 
59050 
59098 
59084 
59099 
59129 
59144 
59159 
59127 
59129 
59126 
59113 
59100 
59053 
59015 
59013 
58994 
58997 
59068 
59052 
59057 
59074 
59087 
59020 
59003 
59003 
59010 
59028 
59008 
58999 
59042 
59055 
58985 
58937 
58879 
58869 
58834 
58834 
58856 
58912 
58969 
58974 
58980 
58957 
58955 
58944 
58934 
58919 
58952 
58934 
58899 
58864 
58819 
58791 
58792 
58780 
58794 
58820 
58802 
58823 
58808 
58737 
58715 
58726 
58737 
58773 
58807 
58841 
58849 
58829 
58831 
58813 
58786 
58823 
58866 
58881 
58874 
58872 
58879 
58854 
58861 
58881 
58841 
58806 
58818 
58809 
58760 
58741 
58754 
58728 
58742 
58797 
58841 
58850 
58849 
58822 
58780 
58746 
58775 
58831 
58843 
58882 
58879 
58854 
58824 
58773 
58771 
58777 
58754 
58744 
58786 
58800 
58800 
58818 
58796 
58795 
58839 
58874 
58861 
58865 
58865 
58938 
58983 
58964 
58923 
58885 
58865 
58893 
58913 
58876 
58853 
58882 
58915 
58934 
58947 
58952 
58961 
58954 
58928 
58956 
58965 
58948 
58949 
58989 
59011 
59030 
59046 
59081 
59074 
59080 
59053 
58986 
58935 
58933 
58922 
58906 
58898 
58915 
58948 
58958 
58928 
58929 
58982 
59035 
59036 
59020 
58987 
58952 
58946 
58944 
58955 
58994 
59013 
58968 
58933 
58916 
58944 
58999 
59021 
59038 
59012 
59002 
58991 
58989 
58994 
59012 
59000 
58987 
59007 
59047 
59056 
59061 
59057 
59057 
59054 
59031 
58998 
58993 
59023 
59105 
59110 
59061 
59048 
59071 
59053 
58966 
58908 
58863 
58814 
58795 
58737 
58673 
58609 
58581 
58555 
58532 
58500 
58466 
58425 
58390 
58366 
58321 
58294 
58288 
58223 
58142 
58101 
58103 
58063 
57988 
57961 
57942 
57898 
57902 
57903 
57884 
57889 
57870 
57808 
57773 
57766 
57744 
57680 
57610 
57657 
57666 
57589 
57541 
57607 
57670 
57667 
57660 
57600 
57534 
57510 
57523 
57548 
57593 
57614 
57703 
57741 
57752 
57773 
57809 
57826 
57866 
57852 
57814 
57873 
57935 
57947 
57977 
58012 
58051 
58061 
58093 
58131 
58130 
58084 
58082 
58068 
58067 
58122 
58208 
58279 
58361 
58406 
58421 
58405 
58392 
58380 
58431 
58489 
58498 
58464 
58476 
58527 
58570 
58628 
58667 
58673 
58706 
58689 
58676 
58647 
58611 
58603 
58646 
58706 
58774 
58828 
58838 
58854 
58853 
58876 
58917 
58985 
58993 
58978 
59028 
59076 
59101 
59094 
59147 
59160 
59163 
59172 
59196 
59168 
59126 
59165 
59192 
59215 
59222 
59244 
59328 
59372 
59403 
59392 
59403 
59414 
59402 
59418 
59486 
59524 
59508 
59508 
59520 
59504 
59488 
59501 
59509 
59514 
59510 
59577 
59680 
59674 
59596 
59555 
59580 
59585 
59585 
59635 
59648 
59639 
59695 
59760 
59758 
59763 
59733 
59641 
59600 
59594 
59593 
59593 
59667 
59740 
59735 
59695 
59647 
59649 
59657 
59636 
59599 
59526 
59461 
59386 
59318 
59214 
59127 
59043 
59008 
58934 
58893 
58818 
58720 
58577 
58451 
58376 
58292 
58188 
58100 
58001 
57899 
57877 
57852 
57788 
57692 
57628 
57559 
57535 
57530 
57454 
57384 
57352 
57292 
57198 
57113 
57018 
56940 
56879 
56885 
56974 
57002 
57004 
56987 
56914 
56870 
56857 
56849 
56849 
56863 
56852 
56877 
56928 
56888 
56837 
56843 
56851 
56868 
56888 
56915 
56920 
56924 
56941 
56924 
56928 
56923 
56943 
56983 
57022 
57047 
57101 
57140 
57197 
57198 
57212 
57259 
57275 
57307 
57377 
57447 
57465 
57457 
57489 
57538 
57571 
57594 
57625 
57666 
57745 
57775 
57791 
57786 
57812 
57887 
57944 
57980 
58031 
58111 
58149 
58170 
58224 
58303 
58347 
58435 
58478 
58506 
58554 
58589 
58638 
58639 
58692 
58764 
58818 
58836 
58876 
58942 
58982 
59032 
59077 
59156 
59273 
59357 
59391 
59367 
59316 
59332 
59377 
59411 
59489 
59546 
59556 
59619 
59703 
59748 
59773 
59777 
59779 
59792 
59820 
59861 
59918 
59939 
59950 
59998 
60066 
60083 
60087 
60080 
60123 
60165 
60218 
60261 
60312 
60361 
60417 
60432 
60431 
60485 
60546 
60600 
60634 
60652 
60672 
60643 
60617 
60627 
60640 
60610 
60590 
60597 
60628 
60676 
60703 
60739 
60766 
60807 
60887 
60910 
60892 
60886 
60878 
60914 
60915 
60937 
61013 
61037 
61012 
61054 
61042 
61021 
60983 
60897 
60862 
60814 
60715 
60642 
60568 
60483 
60384 
60276 
60167 
60064 
59957 
59851 
59780 
59761 
59713 
59651 
59567 
59488 
59432 
59395 
59336 
59242 
59146 
59064 
59016 
58972 
58943 
58899 
58862 
58814 
58796 
58788 
58783 
58736 
58682 
58659 
58607 
58580 
58547 
58496 
58485 
58502 
58504 
58482 
58468 
58463 
58450 
58432 
58454 
58484 
58432 
58377 
58400 
58432 
58459 
58498 
58544 
58568 
58607 
58648 
58640 
58603 
58610 
58635 
58643 
58645 
58674 
58727 
58777 
58809 
58831 
58836 
58850 
58878 
58967 
59001 
58993 
59038 
59076 
59119 
59156 
59155 
59201 
59284 
59325 
59315 
59316 
59384 
59464 
59517 
59587 
59666 
59661 
59705 
59781 
59831 
59842 
59890 
59938 
60032 
60104 
60166 
60197 
60172 
60221 
60347 
60416 
60436 
60452 
60479 
60511 
60597 
60654 
60701 
60787 
60824 
60826 
60817 
60857 
60955 
61051 
61095 
61130 
61159 
61154 
61186 
61245 
61247 
61320 
61384 
61398 
61460 
61513 
61551 
61609 
61700 
61727 
61686 
61709 
61782 
61829 
61848 
61870 
61884 
61913 
61926 
61951 
61972 
61989 
62024 
62081 
62114 
62191 
62231 
62221 
62241 
62264 
62239 
62268 
62294 
62341 
62295 
62248 
62245 
62283 
62343 
62350 
62366 
62431 
62452 
62424 
62375 
62385 
62414 
62472 
62522 
62525 
62472 
62481 
62518 
62543 
62562 
62612 
62598 
62520 
62493 
62525 
62505 
62425 
62345 
62263 
62162 
62098 
62059 
62010 
61911 
61775 
61657 
61561 
61468 
61344 
61220 
61137 
61038 
60949 
60859 
60788 
60703 
60632 
60571 
60503 
60468 
60463 
60459 
60404 
60371 
60350 
60351 
60270 
60171 
60151 
60114 
60097 
60080 
60049 
60050 
60034 
59979 
59942 
59946 
60004 
60020 
59998 
59983 
59995 
59969 
59966 
59997 
60048 
60137 
60189 
60219 
60263 
60299 
60343 
60399 
60466 
60482 
60482 
60499 
60565 
60640 
60669 
60678 
60688 
60719 
60727 
60687 
60682 
60693 
60748 
60818 
60898 
60890 
60893 
60899 
60949 
61005 
61030 
61014 
