-5538 
-5636 
-5663 
-5559 
-5584 
-5642 
-5801 
-5627 
-5569 
-5725 
-5700 
-5581 
-5539 
-5693 
-5730 
-5618 
-5504 
-5629 
-5700 
-5591 
-5498 
-5562 
-5654 
-5661 
-5602 
-5532 
-5638 
-5786 
-5643 
-5653 
-5690 
-5713 
-5676 
-5603 
-5677 
-5774 
-5685 
-5567 
-5639 
-5624 
-5435 
-5194 
-5144 
-5215 
-5197 
-5252 
-5590 
-5794 
-5899 
-5815 
-5753 
-5761 
-5707 
-5638 
-5590 
-5663 
-5668 
-5587 
-5622 
-5652 
-5696 
-5670 
-5605 
-5582 
-5725 
-5781 
-5636 
-5555 
-5683 
-5570 
-5479 
-5546 
-5656 
-5609 
-5504 
-5511 
-5639 
-5733 
-5492 
-5455 
-5612 
-5613 
-5573 
-5522 
-5623 
-5687 
-5545 
-5486 
-5542 
-5579 
-5561 
-5475 
-5467 
-5519 
-5518 
-5421 
-5357 
-5501 
-5497 
-5371 
-5368 
-5549 
-5511 
-5353 
-5542 
-5689 
-5723 
-5543 
-5455 
-5564 
-5667 
-5573 
-5516 
-5598 
-5692 
-5655 
-5570 
-5579 
-5727 
-5732 
-5633 
-5564 
-5764 
-5810 
-5620 
-5595 
-5668 
-5757 
-5643 
-5599 
-5696 
-5733 
-5605 
-5565 
-5581 
-5695 
-5674 
-5488 
-5572 
-5643 
-5599 
-5519 
-5559 
-5622 
-5670 
-5595 
-5539 
-5681 
-5655 
-5606 
-5607 
-5660 
-5664 
-5630 
-5561 
-5635 
-5666 
-5384 
-5235 
-5349 
-5505 
-5480 
-5446 
-5482 
-5573 
-5498 
-5347 
-5390 
-5557 
-5574 
-5453 
-5401 
-5492 
-5535 
-5454 
-5443 
-5513 
-5620 
-5525 
-5409 
-5537 
-5606 
-5587 
-5557 
-5598 
-5634 
-5535 
-5515 
-5588 
-5630 
-5654 
-5570 
-5538 
-5561 
-5600 
-5486 
-5386 
-5349 
-5245 
-5082 
-5060 
-5066 
-5198 
-5326 
-5478 
-5796 
-5892 
-5748 
-5630 
-5663 
-5704 
-5557 
-5524 
-5575 
-5652 
-5618 
-5527 
-5503 
-5591 
-5615 
-5536 
-5477 
-5497 
-5581 
-5437 
-5416 
-5550 
-5515 
-5450 
-5446 
-5493 
-5537 
-5532 
-5369 
-5456 
-5611 
-5542 
-5398 
-5412 
-5504 
-5478 
-5400 
-5428 
-5512 
-5463 
-5337 
-5353 
-5449 
-5469 
-5358 
-5286 
-5328 
-5442 
-5362 
-5305 
-5331 
-5310 
-5271 
-5219 
-5255 
-5328 
-5246 
-5166 
-5147 
-5252 
-5330 
-5319 
-5551 
-5659 
-5645 
-5555 
-5499 
-5559 
-5614 
-5561 
-5500 
-5558 
-5643 
-5596 
-5445 
-5569 
-5660 
-5585 
-5444 
-5517 
-5588 
-5605 
-5501 
-5494 
-5550 
-5600 
-5501 
-5476 
-5585 
-5590 
-5412 
-5365 
-5475 
-5577 
-5465 
-5470 
-5524 
-5498 
-5463 
-5430 
-5502 
-5620 
-5540 
-5402 
-5462 
-5568 
-5522 
-5410 
-5271 
-5286 
-5287 
-5196 
-5249 
-5367 
-5301 
-5239 
-5243 
-5333 
-5330 
-5286 
-5260 
-5331 
-5372 
-5312 
-5298 
-5406 
-5443 
-5377 
-5354 
-5383 
-5501 
-5487 
-5362 
-5380 
-5407 
-5412 
-5263 
-5346 
-5464 
-5415 
-5308 
-5210 
-5136 
-5101 
-4952 
-4838 
-4911 
-5154 
-5343 
-5547 
-5727 
-5768 
-5711 
-5501 
-5438 
-5453 
-5480 
-5396 
-5417 
-5437 
-5417 
-5341 
-5341 
-5403 
-5441 
-5427 
-5324 
-5391 
-5455 
-5414 
-5349 
-5384 
-5467 
-5427 
-5294 
-5346 
-5413 
-5349 
-5311 
-5295 
-5377 
-5327 
-5253 
-5247 
-5305 
-5288 
-5192 
-5167 
-5281 
-5307 
-5211 
-5147 
-5225 
-5294 
-5227 
-5169 
-5171 
-5279 
-5230 
-5109 
-5120 
-5214 
-5176 
-5012 
-4979 
-5122 
-5171 
-5036 
-5064 
-5162 
-5187 
-5100 
-5063 
-5255 
-5457 
-5580 
-5450 
-5450 
-5555 
-5563 
-5388 
-5424 
-5541 
-5519 
-5422 
-5433 
-5491 
-5483 
-5404 
-5361 
-5436 
-5495 
-5339 
-5287 
-5366 
-5400 
-5327 
-5339 
-5384 
-5360 
-5306 
-5289 
-5403 
-5469 
-5384 
-5303 
-5407 
-5495 
-5443 
-5340 
-5342 
-5515 
-5425 
-5337 
-5314 
-5405 
-5402 
-5328 
-5079 
-5103 
-5085 
-5069 
-5125 
-5202 
-5162 
-5164 
-5189 
-5214 
-5241 
-5230 
-5179 
-5211 
-5313 
-5276 
-5196 
-5235 
-5360 
-5325 
-5244 
-5276 
-5313 
-5352 
-5310 
-5333 
-5222 
-5289 
-5260 
-5164 
-5259 
-5316 
-5271 
-5128 
-5101 
-5099 
-4938 
-4795 
-4808 
-4883 
-4921 
-4938 
-5193 
-5524 
-5658 
-5589 
-5487 
-5456 
-5405 
-5257 
-5234 
-5357 
-5353 
-5299 
-5203 
-5181 
-5239 
-5225 
-5146 
-5236 
-5266 
-5232 
-5147 
-5166 
-5283 
-5300 
-5212 
-5168 
-5233 
-5285 
-5234 
-5202 
-5277 
-5251 
-5213 
-5198 
-5304 
-5353 
-5104 
-5079 
-5166 
-5270 
-5144 
-5058 
-5141 
-5178 
-5119 
-4996 
-5009 
-5154 
-5140 
-4982 
-4932 
-5014 
-5084 
-4957 
-4930 
-5077 
-5092 
-4992 
-4983 
-5047 
-5140 
-5238 
-5293 
-5340 
-5416 
-5268 
-5255 
-5294 
-5371 
-5297 
-5217 
-5287 
-5358 
-5296 
-5272 
-5155 
-5314 
-5323 
-5199 
-5223 
-5262 
-5324 
-5254 
-5264 
-5358 
-5416 
-5226 
-5113 
-5237 
-5363 
-5295 
-5189 
-5173 
-5319 
-5302 
-5180 
-5206 
-5348 
-5312 
-5192 
-5163 
-5239 
-5267 
-5218 
-5227 
-5377 
-5302 
-5108 
-5051 
-4975 
-5028 
-5015 
-4979 
-5014 
-5186 
-5126 
-5043 
-5053 
-5171 
-5239 
-5093 
-5074 
-5240 
-5287 
-5097 
-4985 
-5132 
-5164 
-5162 
-5127 
-5199 
-5245 
-5146 
-5087 
-5149 
-5272 
-5171 
-5082 
-5183 
-5299 
-5228 
-5134 
-5144 
-5142 
-5090 
-4882 
-4809 
-4834 
-4818 
-4714 
-4800 
-5032 
-5330 
-5362 
-5315 
-5413 
-5402 
-5261 
-5136 
-5146 
-5199 
-5209 
-5127 
-5237 
-5295 
-5158 
-5000 
-5062 
-5195 
-5127 
-5080 
-5115 
-5184 
-5170 
-5071 
-5064 
-5187 
-5216 
-5086 
-5039 
-5150 
-5237 
-5166 
-5075 
-5164 
-5214 
-5112 
-5030 
-4979 
-5114 
-5078 
-4909 
-4964 
-5112 
-5087 
-4970 
-4958 
-5034 
-5060 
-4955 
-4907 
-4996 
-4999 
-4985 
-4913 
-4913 
-4989 
-4948 
-4881 
-4941 
-5006 
-5097 
-5248 
-5245 
-5297 
-5227 
-5116 
-5129 
-5255 
-5267 
-5171 
-5100 
-5218 
-5253 
-5173 
-5134 
-5202 
-5253 
-5183 
-5153 
-5236 
-5294 
-5222 
-5146 
-5121 
-5315 
-5241 
-5126 
-5181 
-5311 
-5248 
-5024 
-5072 
-5177 
-5201 
-5106 
-5047 
-5198 
-5131 
-5083 
-5087 
-5160 
-5215 
-5110 
-5028 
-5081 
-5189 
-5155 
-5066 
-5102 
-5113 
-4861 
-4899 
-4941 
-5048 
-5027 
-4938 
-4960 
-5095 
-5119 
-4959 
-4952 
-5029 
-5086 
-4994 
-4948 
-5021 
-5098 
-4996 
-4938 
-5019 
-5131 
-5157 
-4992 
-5003 
-5169 
-5185 
-5019 
-5036 
-5175 
-5171 
-5072 
-5058 
-5096 
-5162 
-5093 
-5062 
-5192 
-5129 
-4974 
-4866 
-4823 
-4773 
-4632 
-4576 
-4880 
-5179 
-5269 
-5302 
-5304 
-5268 
-5207 
-5059 
-5059 
-5141 
-5115 
-5002 
-4992 
-5098 
-5121 
-5004 
-4951 
-5040 
-5107 
-5083 
-5014 
-5083 
-5095 
-5015 
-4900 
-4976 
-5050 
-5052 
-4992 
-5044 
-5098 
-5032 
-4955 
-4949 
-5022 
-5024 
-4961 
-4947 
-5055 
-5068 
-4955 
-4860 
-4987 
-5114 
-4944 
-4803 
-4870 
-4971 
-4892 
-4796 
-4833 
-4880 
-4843 
-4791 
-4795 
-4885 
-4873 
-4773 
-4785 
-4928 
-4986 
-4956 
-5124 
-5110 
-5204 
-5088 
-5069 
-5155 
-5197 
-5105 
-5045 
-5086 
-5069 
-5121 
-4992 
-5017 
-5150 
-5123 
-5036 
-4994 
-5141 
-5131 
-5034 
-4973 
-5101 
-5158 
-5068 
-5012 
-5052 
-5075 
-5022 
-4939 
-5043 
-5086 
-4997 
-4954 
-4993 
-5102 
-5063 
-4966 
-4995 
-5092 
-5054 
-4984 
-5029 
-5116 
-5134 
-4771 
-4637 
-4830 
-4881 
-4829 
-4874 
-4966 
-5004 
-4900 
-4867 
-4923 
-5009 
-4967 
-4894 
-4930 
-4998 
-4948 
-4913 
-4894 
-5002 
-5028 
-4908 
-4878 
-5034 
-5026 
-4897 
-4854 
-4968 
-4996 
-4911 
-4851 
-4956 
-5033 
-4969 
-4913 
-4917 
-4977 
-4908 
-4936 
-4977 
-4989 
-4947 
-4977 
-4928 
-4998 
-4868 
-4621 
-4523 
-4579 
-4616 
-4498 
-4549 
-4843 
-5171 
-5148 
-5016 
-5022 
-4968 
-4819 
-4794 
-4781 
-4832 
-4781 
-4682 
-4802 
-4901 
-4851 
-4738 
-4796 
-4907 
-4818 
-4745 
-4764 
-4874 
-4886 
-4762 
-4701 
-4811 
-4915 
-4783 
-4656 
-4761 
-4806 
-4791 
-4695 
-4691 
-4777 
-4761 
-4647 
-4609 
-4703 
-4744 
-4681 
-4677 
-4746 
-4781 
-4617 
-4618 
-4708 
-4694 
-4630 
-4612 
-4670 
-4644 
-4536 
-4518 
-4618 
-4634 
-4548 
-4576 
-4855 
-4907 
-4778 
-4687 
-4779 
-4841 
-4796 
-4699 
-4745 
-4874 
-4871 
-4807 
-4823 
-4900 
-4987 
-4955 
-4826 
-4974 
-5044 
-4942 
-4898 
-4913 
-4985 
-4974 
-4913 
-4921 
-4973 
-4854 
-4807 
-4846 
-4927 
-4884 
-4771 
-4789 
-4827 
-4872 
-4776 
-4830 
-4791 
-4823 
-4793 
-4774 
-4780 
-4828 
-4870 
-4779 
-4801 
-4876 
-4850 
-4604 
-4472 
-4592 
-4573 
-4502 
-4585 
-4704 
-4746 
-4684 
-4593 
-4738 
-4821 
-4680 
-4620 
-4717 
-4841 
-4715 
-4685 
-4747 
-4730 
-4663 
-4652 
-4713 
-4776 
-4745 
-4644 
-4608 
-4711 
-4710 
-4666 
-4696 
-4844 
-4828 
-4713 
-4717 
-4818 
-4856 
-4810 
-4694 
-4723 
-4804 
-4784 
-4667 
-4740 
-4804 
-4645 
-4458 
-4337 
-4339 
-4275 
-4180 
-4152 
-4432 
-4751 
-4872 
-4972 
-5069 
-5014 
-4771 
-4688 
-4784 
-4799 
-4705 
-4685 
-4698 
-4760 
-4658 
-4597 
-4689 
-4736 
-4674 
-4563 
-4638 
-4712 
-4725 
-4562 
-4601 
-4721 
-4699 
-4540 
-4552 
-4660 
-4694 
-4549 
-4477 
-4601 
-4673 
-4538 
-4474 
-4538 
-4606 
-4529 
-4485 
-4585 
-4660 
-4549 
-4437 
-4437 
-4465 
-4465 
-4468 
-4458 
-4535 
-4504 
-4354 
-4336 
-4458 
-4444 
-4316 
-4260 
-4419 
-4491 
-4471 
-4386 
-4407 
-4515 
-4749 
-4736 
-4752 
-4868 
-4806 
-4622 
-4647 
-4829 
-4792 
-4703 
-4703 
-4774 
-4768 
-4662 
-4689 
-4759 
-4761 
-4650 
-4619 
-4682 
-4724 
-4641 
-4599 
-4701 
-4750 
-4697 
-4532 
-4600 
-4717 
-4702 
-4658 
-4665 
-4731 
-4744 
-4620 
-4592 
-4747 
-4835 
-4616 
-4533 
-4637 
-4780 
-4647 
-4516 
-4670 
-4707 
-4476 
-4262 
-4344 
-4557 
-4518 
-4429 
-4457 
-4611 
-4623 
-4500 
-4559 
-4653 
-4642 
-4466 
-4507 
-4614 
-4640 
-4536 
-4526 
-4577 
-4691 
-4551 
-4504 
-4614 
-4677 
-4583 
-4529 
-4596 
-4672 
-4641 
-4609 
-4570 
-4652 
-4632 
-4467 
-4440 
-4557 
-4450 
-4208 
-4048 
-4074 
-4114 
-4156 
-4320 
-4686 
-4955 
-4863 
-4792 
-4793 
-4813 
-4619 
-4536 
-4595 
-4645 
-4625 
-4533 
-4563 
-4673 
-4634 
-4553 
-4451 
-4570 
-4596 
-4500 
-4478 
-4507 
-4568 
-4502 
-4419 
-4543 
-4598 
-4445 
-4427 
-4532 
-4606 
-4515 
-4420 
-4517 
-4607 
-4588 
-4470 
-4495 
-4573 
-4553 
-4469 
-4407 
-4526 
-4501 
-4368 
-4324 
-4428 
-4414 
-4270 
-4206 
-4242 
-4403 
-4249 
-4164 
-4224 
-4330 
-4314 
-4214 
-4299 
-4367 
-4365 
-4227 
-4381 
-4490 
-4477 
-4354 
-4574 
-4850 
-4829 
-4701 
-4606 
-4600 
-4620 
-4562 
-4491 
-4628 
-4626 
-4550 
-4496 
-4582 
-4550 
-4539 
-4456 
-4531 
-4606 
-4557 
-4514 
-4464 
-4581 
-4624 
-4538 
-4504 
-4589 
-4700 
-4547 
-4452 
-4560 
-4619 
-4482 
-4478 
-4559 
-4615 
-4484 
-4387 
-4469 
-4490 
-4498 
-4404 
-4409 
-4549 
-4572 
-4412 
-4323 
-4491 
-4549 
-4446 
-4149 
-4206 
-4326 
-4234 
-4210 
-4320 
-4535 
-4428 
-4312 
-4382 
-4464 
-4437 
-4368 
-4454 
-4613 
-4502 
-4369 
-4414 
-4493 
-4492 
-4412 
-4366 
-4359 
-4230 
-4061 
-3911 
-4036 
-4106 
-4133 
-4271 
-4677 
-4779 
-4742 
-4621 
-4536 
-4589 
-4478 
-4379 
-4473 
-4510 
-4433 
-4353 
-4388 
-4483 
-4439 
-4347 
-4384 
-4482 
-4385 
-4315 
-4272 
-4389 
-4412 
-4308 
-4298 
-4315 
-4348 
-4326 
-4261 
-4339 
-4439 
-4387 
-4340 
-4345 
-4459 
-4419 
-4286 
-4312 
-4397 
-4399 
-4230 
-4152 
-4311 
-4362 
-4264 
-4176 
-4187 
-4265 
-4240 
-4125 
-4177 
-4222 
-4184 
-4080 
-4125 
-4158 
-4201 
-4163 
-4143 
-4252 
-4276 
-4206 
-4189 
-4290 
-4319 
-4375 
-4569 
-4635 
-4651 
-4540 
-4505 
-4560 
-4600 
-4518 
-4404 
-4452 
-4506 
-4431 
-4404 
-4535 
-4529 
-4468 
-4444 
-4487 
-4541 
-4484 
-4413 
-4435 
-4429 
-4429 
-4368 
-4385 
-4508 
-4561 
-4431 
-4297 
-4387 
-4518 
-4441 
-4381 
-4383 
-4457 
-4511 
-4423 
-4373 
-4438 
-4488 
-4325 
-4327 
-4338 
-4155 
-4094 
-4102 
-4190 
-4235 
-4141 
-4163 
-4291 
-4327 
-4160 
-4163 
-4311 
-4348 
-4276 
-4228 
-4322 
-4426 
-4389 
-4279 
-4322 
-4384 
-4360 
-4309 
-4346 
-4408 
-4385 
-4281 
-4227 
-4341 
-4232 
-4038 
-3870 
-3878 
-3933 
-3898 
-4023 
-4392 
-4648 
-4609 
-4503 
-4549 
-4650 
-4683 
-4604 
-4532 
-4577 
-4564 
-4465 
-4422 
-4408 
-4413 
-4347 
-4323 
-4373 
-4370 
-4282 
-4237 
-4325 
-4380 
-4266 
-4214 
-4347 
-4402 
-4415 
-4327 
-4306 
-4401 
-4358 
-4297 
-4296 
-4337 
-4352 
-4223 
-4266 
-4256 
-4257 
-4208 
-4194 
-4170 
-4198 
-4160 
-4110 
-4146 
-4197 
-4095 
-4086 
-4148 
-4264 
-4149 
-4038 
-4089 
-4168 
-4214 
-4109 
-4120 
-4206 
-4244 
-4238 
-4450 
-4415 
-4421 
-4323 
-4312 
-4415 
-4438 
-4326 
-4266 
-4374 
-4428 
-4349 
-4272 
-4388 
-4491 
-4492 
-4397 
-4337 
-4404 
-4446 
-4371 
-4326 
-4408 
-4392 
-4269 
-4323 
-4401 
-4430 
-4255 
-4233 
-4307 
-4401 
-4288 
-4151 
-4265 
-4350 
-4331 
-4280 
-4234 
-4262 
-4305 
-4269 
-4297 
-4352 
-4306 
-4185 
-3995 
-4052 
-4110 
-4074 
-4107 
-4221 
-4214 
-4105 
-4072 
-4146 
-4138 
-4102 
-4032 
-4114 
-4189 
-4183 
-4136 
-4157 
-4225 
-4259 
-4177 
-4202 
-4306 
-4278 
-4179 
-4204 
-4272 
-4247 
-4170 
-4217 
-4252 
-4240 
-4186 
-4039 
-3968 
-3875 
-3745 
-3719 
-3847 
-3944 
-4089 
-4293 
-4436 
-4536 
-4463 
-4312 
-4283 
-4266 
-4191 
-4124 
-4194 
-4326 
-4280 
-4150 
-4091 
-4210 
-4278 
-4190 
-4100 
-4189 
-4192 
-4101 
-4107 
-4172 
-4182 
-4151 
-4093 
-4156 
-4225 
-4217 
-4116 
-4147 
-4263 
-4220 
-4091 
-4127 
-4218 
-4157 
-4041 
-4009 
-4062 
-4092 
-4036 
-3942 
-4052 
-4074 
-4035 
-3887 
-3949 
-4021 
-4005 
-3987 
-4003 
-4033 
-4025 
-3997 
-3973 
-4065 
-4028 
-3971 
-4309 
-4411 
-4304 
-4156 
-4096 
-4161 
-4258 
-4182 
-4123 
-4195 
-4258 
-4248 
-4213 
-4172 
-4268 
-4234 
-4209 
-4271 
-4344 
-4324 
-4235 
-4234 
-4278 
-4302 
-4241 
-4195 
-4244 
-4320 
-4230 
-4139 
-4220 
-4291 
-4188 
-4114 
-4182 
-4170 
-4147 
-4125 
-4201 
-4304 
-4324 
-4126 
-4124 
-4169 
-4244 
-4235 
-4175 
-4032 
-3951 
-3971 
-4053 
-4100 
-4059 
-3968 
-3943 
-4032 
-4147 
-4066 
-4057 
-4087 
-4185 
-4090 
-3983 
-4058 
-4207 
-4127 
-4049 
-4078 
-4150 
-4201 
-4128 
-4139 
-4193 
-4206 
-4214 
-4117 
-4130 
-4243 
-4171 
-4054 
-4138 
-4195 
-4144 
-4103 
-4123 
-4070 
-3895 
-3754 
-3761 
-3728 
-3724 
-3844 
-4041 
-4355 
-4484 
-4376 
-4308 
-4259 
-4219 
-4233 
-4126 
-4151 
-4198 
-4122 
-4125 
-4149 
-4160 
-4121 
-4095 
-4144 
-4179 
-4180 
-4089 
-4092 
-4205 
-4182 
-4073 
-4082 
-4185 
-4151 
-4082 
-4075 
-4174 
-4088 
-4045 
-4065 
-4063 
-4112 
-4056 
-3981 
-4028 
-4088 
-4119 
-4028 
-4004 
-4066 
-4093 
-3973 
-4005 
-4061 
-3994 
-3859 
-3900 
-4028 
-4006 
-3915 
-3848 
-3937 
-3979 
-3933 
-3863 
-3940 
-4277 
-4231 
-4133 
-4152 
-4197 
-4178 
-4132 
-4160 
-4219 
-4258 
-4213 
-4199 
-4265 
-4278 
-4163 
-4164 
-4259 
-4231 
-4209 
-4178 
-4231 
-4283 
-4180 
-4127 
-4196 
-4202 
-4115 
-4057 
-4134 
-4230 
-4183 
-4109 
-4112 
-4168 
-4137 
-4121 
-4116 
-4248 
-4268 
-4164 
-4159 
-4172 
-4256 
-4166 
-4149 
-4203 
-4226 
-4121 
-3937 
-3839 
-3965 
-3911 
-3903 
-3987 
-4014 
-3943 
-3928 
-4015 
-4132 
-4069 
-4021 
-4072 
-4132 
-4132 
-4071 
-4054 
-4125 
-4093 
-4034 
-4020 
-4128 
-4140 
-4116 
-4042 
-4095 
-4153 
-4082 
-4052 
-4042 
-4138 
-4141 
-4007 
-4071 
-4103 
-4063 
-4015 
-4133 
-4217 
-4096 
-3856 
-3788 
-3818 
-3823 
-3642 
-3613 
-3928 
-4289 
-4424 
-4361 
-4322 
-4314 
-4165 
-4027 
-4070 
-4179 
-4053 
-3977 
-4073 
-4103 
-4033 
-4053 
-4046 
-4100 
-4105 
-4068 
-4119 
-4151 
-4079 
-4053 
-4055 
-4116 
-4123 
-4062 
-4052 
-4063 
-4045 
-4062 
-4078 
-4018 
-4050 
-4072 
-3982 
-3962 
-4021 
-4018 
-3916 
-3908 
-3939 
-3972 
-3915 
-3854 
-3942 
-3998 
-3912 
-3851 
-3900 
-3935 
-3951 
-3876 
-3857 
-3888 
-3865 
-3933 
-3863 
-3966 
-4211 
-4148 
-4137 
-4171 
-4149 
-4009 
-3990 
-4111 
-4134 
-4075 
-4087 
-4184 
-4136 
-4097 
-4043 
-4084 
-4180 
-4208 
-4138 
-4142 
-4240 
-4178 
-4162 
-4202 
-4251 
-4205 
-4122 
-4179 
-4181 
-4138 
-4063 
-4042 
-4139 
-4146 
-4023 
-4012 
-4068 
-4081 
-4018 
-3953 
-4057 
-4100 
-4065 
-4021 
-4031 
-4092 
-4139 
-4157 
-3976 
-3787 
-3862 
-3887 
-3955 
-3970 
-4050 
-4018 
-3912 
-4006 
-4047 
-3925 
-3867 
-3977 
-4055 
-3963 
-3895 
-3878 
-3933 
-3882 
-3832 
-3957 
-4099 
-4053 
-3974 
-4026 
-4009 
-4030 
-3955 
-3994 
-4131 
-4150 
-4052 
-4024 
-4097 
-4123 
-3966 
-3908 
-3905 
-3837 
-3660 
-3445 
-3396 
-3525 
-3651 
-3760 
-4054 
-4269 
-4223 
-4144 
-4053 
-4078 
-4118 
-4081 
-4008 
-4041 
-3995 
-3963 
-3986 
-4038 
-4031 
-3935 
-3932 
-4018 
-4114 
-3992 
-3871 
-3917 
-4052 
-3988 
-3828 
-3865 
-3935 
-3901 
-3915 
-3847 
-3931 
-3915 
-3817 
-3800 
-3960 
-3985 
-3818 
-3847 
-3952 
-4020 
-3941 
-3792 
-3877 
-3928 
-3820 
-3745 
-3826 
-3871 
-3830 
-3613 
-3665 
-3794 
-3722 
-3554 
-3703 
-3791 
-3753 
-3706 
-3670 
-3740 
-3803 
-3760 
-3737 
-3832 
-3961 
-3973 
-4078 
-4135 
-4137 
-4125 
-4064 
-4142 
-4162 
-4200 
-4064 
-3944 
-4096 
-4110 
-4018 
-3960 
-4061 
-4092 
-3940 
-3922 
-4015 
-4065 
-3971 
-3895 
-3938 
-4039 
-4005 
-3881 
-3940 
-4042 
-3977 
-3930 
-3986 
-4113 
-4043 
-3987 
-3970 
-4062 
-3999 
-3884 
-3894 
-3803 
-3798 
-3703 
-3664 
-3770 
-3817 
-3753 
-3711 
-3837 
-3837 
-3780 
-3721 
-3769 
-3947 
-3838 
-3741 
-3781 
-3875 
-3860 
-3873 
-3925 
-4041 
-3995 
-3857 
-3975 
-4068 
-4043 
-3906 
-3887 
-3907 
-3955 
-3924 
-3805 
-3901 
-3976 
-3867 
-3655 
-3624 
-3605 
-3480 
-3400 
-3444 
-3720 
-3915 
-4026 
-4223 
-4259 
-4223 
-4098 
-4062 
-4089 
-4026 
-3930 
-3919 
-4023 
-4063 
-3915 
-3849 
-3934 
-3983 
-3885 
-3808 
-3886 
-3995 
-3913 
-3783 
-3769 
-3827 
-3889 
-3834 
-3833 
-3892 
-3876 
-3799 
-3855 
-3932 
-3889 
-3734 
-3797 
-3943 
-3929 
-3794 
-3732 
-3822 
-3837 
-3749 
-3674 
-3749 
-3778 
-3727 
-3567 
-3553 
-3707 
-3695 
-3585 
-3564 
-3640 
-3633 
-3497 
-3513 
-3633 
-3673 
-3606 
-3597 
-3753 
-4001 
-4047 
-3928 
-4000 
-4077 
-3987 
-3925 
-3936 
-4023 
-4002 
-3887 
-3874 
-3960 
-3949 
-3883 
-3846 
-3960 
-3980 
-3862 
-3852 
-3923 
-3991 
-3953 
-3839 
-3931 
-4006 
-3919 
-3852 
-3881 
-3893 
-3880 
-3796 
-3814 
-3938 
-3907 
-3808 
-3817 
-3939 
-3931 
-3755 
-3819 
-3999 
-3957 
-3804 
-3805 
-3898 
-3920 
-3836 
-3713 
-3491 
-3629 
-3627 
-3613 
-3643 
-3729 
-3667 
-3649 
-3702 
-3879 
-3775 
-3584 
-3676 
-3842 
-3816 
-3710 
-3695 
-3833 
-3841 
-3794 
-3750 
-3822 
-3898 
-3763 
-3713 
-3853 
-3922 
-3833 
-3733 
-3781 
-3805 
-3823 
-3631 
-3559 
-3573 
-3476 
-3298 
-3321 
-3402 
-3601 
-3835 
-4016 
-4107 
-4125 
-4032 
-3879 
-3918 
-3927 
-3801 
-3752 
-3866 
-3862 
-3786 
-3680 
-3721 
-3802 
-3782 
-3657 
-3698 
-3787 
-3762 
-3672 
-3696 
-3814 
-3780 
-3716 
-3735 
-3862 
-3843 
-3774 
-3730 
-3814 
-3819 
-3717 
-3693 
-3756 
-3795 
-3740 
-3659 
-3684 
-3721 
-3701 
-3606 
-3644 
-3719 
-3706 
-3576 
-3584 
-3683 
-3750 
-3676 
-3653 
-3707 
-3661 
-3587 
-3627 
-3662 
-3758 
-3673 
-3793 
-3917 
-3931 
-3875 
-3814 
-3833 
-3893 
-3828 
-3695 
-3741 
-3881 
-3814 
-3740 
-3744 
-3841 
-3859 
-3786 
-3801 
-3954 
-3884 
-3767 
-3793 
-3882 
-3907 
-3823 
-3734 
-3870 
-3946 
-3812 
-3691 
-3804 
-3906 
-3844 
-3725 
-3702 
-3793 
-3809 
-3726 
-3714 
-3831 
-3869 
-3723 
-3726 
-3800 
-3763 
-3717 
-3666 
-3565 
-3507 
-3471 
-3479 
-3496 
-3625 
-3656 
-3601 
-3597 
-3663 
-3688 
-3631 
-3669 
-3829 
-3735 
-3653 
-3649 
-3746 
-3758 
-3635 
-3567 
-3671 
-3685 
-3611 
-3618 
-3693 
-3795 
-3757 
-3665 
-3714 
-3803 
-3747 
-3704 
-3722 
-3839 
-3819 
-3742 
-3713 
-3845 
-3857 
-3702 
-3615 
-3591 
-3512 
-3353 
-3259 
-3353 
-3426 
-3576 
-3722 
-3941 
-4043 
-3905 
-3721 
-3736 
-3804 
-3722 
-3623 
-3671 
-3798 
-3732 
-3662 
-3723 
-3802 
-3801 
-3713 
-3659 
-3742 
-3756 
-3690 
-3688 
-3714 
-3725 
-3619 
-3585 
-3637 
-3679 
-3532 
-3496 
-3650 
-3748 
-3729 
-3588 
-3620 
-3782 
-3773 
-3656 
-3564 
-3764 
-3769 
-3660 
-3590 
-3631 
-3660 
-3571 
-3490 
-3568 
-3578 
-3469 
-3410 
-3520 
-3512 
-3437 
-3336 
-3454 
-3453 
-3562 
-3694 
-3692 
-3827 
-3826 
-3753 
-3702 
-3830 
-3833 
-3776 
-3785 
-3935 
-3957 
-3743 
-3729 
-3843 
-3929 
-3810 
-3729 
-3704 
-3751 
-3750 
-3671 
-3711 
-3849 
-3803 
-3639 
-3616 
-3811 
-3862 
-3747 
-3763 
-3832 
-3852 
-3746 
-3737 
-3856 
-3835 
-3760 
-3773 
-3761 
-3796 
-3700 
-3656 
-3746 
-3794 
-3713 
-3675 
-3610 
-3725 
-3423 
-3374 
-3439 
-3570 
-3648 
-3585 
-3512 
-3597 
-3688 
-3587 
-3590 
-3655 
-3708 
-3677 
-3655 
-3682 
-3744 
-3687 
-3648 
-3749 
-3796 
-3683 
-3607 
-3624 
-3720 
-3663 
-3541 
-3520 
-3693 
-3700 
-3631 
-3550 
-3722 
-3754 
-3635 
-3674 
-3736 
-3783 
-3674 
-3641 
-3788 
-3847 
-3730 
-3666 
-3704 
-3734 
-3557 
-3383 
-3334 
-3307 
-3247 
-3164 
-3343 
-3733 
-4015 
-3886 
-3773 
-3786 
-3794 
-3621 
-3547 
-3736 
-3780 
-3615 
-3508 
-3655 
-3766 
-3690 
-3632 
-3671 
-3763 
-3686 
-3626 
-3648 
-3782 
-3725 
-3604 
-3526 
-3670 
-3727 
-3610 
-3585 
-3570 
-3654 
-3613 
-3573 
-3559 
-3574 
-3546 
-3485 
-3585 
-3671 
-3638 
-3512 
-3538 
-3641 
-3613 
-3490 
-3441 
-3579 
-3619 
-3501 
-3457 
-3573 
-3509 
-3414 
-3408 
-3414 
-3479 
-3454 
-3527 
-3656 
-3721 
-3649 
-3548 
-3549 
-3651 
-3674 
-3582 
-3619 
-3729 
-3719 
-3624 
-3632 
-3775 
-3822 
-3709 
-3675 
-3698 
-3726 
-3613 
-3604 
-3780 
-3812 
-3708 
-3616 
-3626 
-3695 
-3676 
-3594 
-3605 
-3713 
-3688 
-3529 
-3574 
-3675 
-3667 
-3664 
-3610 
-3729 
-3728 
-3639 
-3618 
-3718 
-3748 
-3652 
-3555 
-3718 
-3782 
-3667 
-3548 
-3396 
-3430 
-3468 
-3342 
-3408 
-3548 
-3544 
-3486 
-3440 
-3575 
-3615 
-3515 
-3498 
-3600 
-3612 
-3541 
-3487 
-3592 
-3628 
-3478 
-3442 
-3522 
-3646 
-3538 
-3469 
-3534 
-3606 
-3557 
-3510 
-3570 
-3667 
-3659 
-3542 
-3547 
-3715 
-3678 
-3516 
-3594 
-3729 
-3706 
-3554 
-3511 
-3577 
-3588 
-3425 
-3221 
-3224 
-3223 
-3063 
-3023 
-3235 
-3529 
-3763 
-3828 
-3847 
-3905 
-3888 
-3705 
-3602 
-3731 
-3691 
-3523 
-3548 
-3592 
-3601 
-3543 
-3480 
-3577 
-3583 
-3508 
-3430 
-3452 
-3620 
-3557 
-3499 
-3589 
-3643 
-3580 
-3452 
-3599 
-3702 
-3586 
-3463 
-3478 
-3621 
-3616 
-3464 
-3484 
-3544 
-3524 
-3353 
-3383 
-3485 
-3496 
-3390 
-3348 
-3422 
-3453 
-3411 
-3280 
-3367 
-3487 
-3388 
-3224 
-3223 
-3443 
-3435 
-3300 
-3294 
-3370 
-3393 
-3309 
-3292 
-3697 
-3881 
-3644 
-3512 
-3566 
-3694 
-3645 
-3565 
-3568 
-3746 
-3693 
-3563 
-3567 
-3635 
-3634 
-3624 
-3595 
-3690 
-3671 
-3568 
-3554 
-3615 
-3641 
-3573 
-3465 
-3607 
-3669 
-3572 
-3534 
-3542 
-3666 
-3654 
-3526 
-3565 
-3698 
-3591 
-3518 
-3586 
-3652 
-3640 
-3564 
-3597 
-3691 
-3641 
-3553 
-3489 
-3594 
-3646 
-3220 
-3062 
-3284 
-3414 
-3366 
-3316 
-3402 
-3498 
-3430 
-3422 
-3444 
-3551 
-3460 
-3406 
-3491 
-3572 
-3542 
-3441 
-3407 
-3528 
-3495 
-3358 
-3354 
-3408 
-3576 
-3528 
-3415 
-3523 
-3517 
-3414 
-3353 
-3489 
-3546 
-3487 
-3435 
-3514 
-3586 
-3520 
-3451 
-3522 
-3528 
-3293 
-3088 
-3033 
-3108 
-3116 
-3080 
-3334 
-3737 
-3906 
-3789 
-3660 
-3675 
-3629 
-3449 
-3449 
-3469 
-3537 
-3465 
-3366 
-3410 
-3580 
-3499 
-3399 
-3387 
-3531 
-3547 
-3463 
-3484 
-3592 
-3613 
-3521 
-3425 
-3522 
-3619 
-3551 
-3505 
-3566 
-3555 
-3426 
-3323 
-3436 
-3520 
-3396 
-3296 
-3361 
-3480 
-3381 
-3270 
-3323 
-3410 
-3386 
-3275 
-3259 
-3349 
-3355 
-3259 
-3201 
-3278 
-3323 
-3242 
-3123 
-3148 
-3302 
-3245 
-3201 
-3271 
-3344 
-3234 
-3201 
-3322 
-3433 
-3426 
-3409 
-3654 
-3791 
-3715 
-3569 
-3591 
-3690 
-3661 
-3540 
-3538 
-3519 
-3594 
-3465 
-3422 
-3529 
-3577 
-3535 
-3449 
-3505 
-3702 
-3583 
-3503 
-3559 
-3665 
-3582 
-3547 
-3550 
-3586 
-3624 
-3547 
-3450 
-3511 
-3532 
-3434 
-3358 
-3460 
-3413 
-3325 
-3275 
-3460 
-3524 
-3446 
-3368 
-3249 
-3180 
-3236 
-3226 
-3300 
-3451 
-3409 
-3365 
-3395 
-3488 
-3509 
-3430 
-3413 
-3437 
-3422 
-3341 
-3313 
-3401 
-3465 
-3371 
-3334 
-3345 
-3435 
-3364 
-3263 
-3337 
-3360 
-3382 
-3379 
-3400 
-3496 
-3433 
-3379 
-3408 
-3504 
-3523 
-3396 
-3412 
-3521 
-3550 
-3399 
-3345 
-3490 
-3496 
-3340 
-3337 
-3395 
-3415 
-3374 
-3256 
-3263 
-3246 
-3101 
-3053 
-2881 
-3010 
-3075 
-3195 
-3524 
-3775 
-3755 
-3635 
-3525 
-3552 
-3555 
-3399 
-3356 
-3485 
-3564 
-3438 
-3345 
-3343 
-3420 
-3379 
-3352 
-3378 
-3427 
-3402 
-3296 
-3290 
-3369 
-3349 
-3335 
-3330 
-3395 
-3440 
-3349 
-3252 
-3381 
-3460 
-3388 
-3313 
-3323 
-3380 
-3388 
-3228 
-3282 
-3382 
-3328 
-3146 
-3208 
-3304 
-3263 
-3200 
-3131 
-3222 
-3214 
-3111 
-3101 
-3178 
-3204 
-3133 
-3122 
-3184 
-3235 
-3116 
-3111 
-3147 
-3217 
-3189 
-3097 
-3216 
-3325 
-3378 
-3488 
-3566 
-3645 
-3573 
-3412 
-3484 
-3574 
-3551 
-3531 
-3489 
-3487 
-3497 
-3393 
-3409 
-3545 
-3462 
-3386 
-3371 
-3432 
-3529 
-3433 
-3390 
-3427 
-3488 
-3442 
-3384 
-3367 
-3570 
-3537 
-3432 
-3480 
-3553 
-3536 
-3374 
-3360 
-3535 
-3540 
-3399 
-3347 
-3397 
-3402 
-3338 
-3294 
-3362 
-3507 
-3401 
-3344 
-3359 
-3458 
-3456 
-3331 
-3347 
-3415 
-3516 
-3443 
-3430 
-3488 
-3478 
-3383 
-3372 
-3352 
-3224 
-3177 
-3214 
-3157 
-3285 
-3234 
-3111 
-3171 
-3328 
-3239 
-3139 
-3182 
-3323 
-3296 
-3205 
-3248 
-3321 
-3339 
-3301 
-3253 
-3396 
-3440 
-3321 
-3335 
-3428 
-3428 
-3368 
-3371 
-3349 
-3489 
-3357 
-3245 
-3350 
-3311 
-3180 
-3013 
-2973 
-2954 
-2855 
-2799 
-2839 
-3161 
-3491 
-3563 
-3596 
-3596 
-3508 
-3372 
-3379 
-3429 
-3405 
-3387 
-3317 
-3336 
-3391 
-3345 
-3197 
-3340 
-3395 
-3268 
-3230 
-3280 
-3353 
-3317 
-3253 
-3256 
-3295 
-3297 
-3267 
-3221 
-3331 
-3364 
-3262 
-3207 
-3380 
-3383 
-3297 
-3249 
-3292 
-3409 
-3328 
-3167 
-3226 
-3322 
-3270 
-3131 
-3149 
-3302 
-3224 
-3103 
-3126 
-3205 
-3167 
-3086 
-3086 
-3125 
-3154 
-3089 
-3055 
-3183 
-3232 
-3093 
-3056 
-3121 
-3177 
-3110 
-3061 
-3218 
-3344 
-3311 
-3215 
-3317 
-3402 
-3347 
-3200 
-3190 
-3394 
-3460 
-3325 
-3245 
-3440 
-3436 
-3242 
-3194 
-3262 
-3347 
-3302 
-3239 
-3279 
-3400 
-3272 
-3231 
-3261 
-3371 
-3306 
-3205 
-3267 
-3375 
-3337 
-3282 
-3245 
-3402 
-3398 
-3308 
-3274 
-3318 
-3412 
-3329 
-3199 
-3269 
-3360 
-3276 
-3215 
-3295 
-3323 
-3313 
-3193 
-3228 
-3368 
-3311 
-3204 
-3275 
-3413 
-3348 
-3300 
-3256 
-3380 
-3434 
-3342 
-3235 
-3341 
-3440 
-3331 
-3302 
-3347 
-3378 
-3251 
-3203 
-3333 
-3383 
-3290 
-3121 
-3176 
-3287 
-3286 
-3201 
-3177 
-3285 
-3310 
-3244 
-3286 
-3381 
-3430 
-3363 
-3337 
-3453 
-3504 
-3436 
-3350 
-3471 
-3516 
-3360 
-3297 
-3330 
-3364 
-3177 
-2913 
-2843 
-2883 
-2973 
-3127 
-3210 
-3552 
-3694 
-3677 
-3588 
-3599 
-3610 
-3445 
-3414 
-3498 
-3543 
-3425 
-3370 
-3522 
-3537 
-3502 
-3337 
-3389 
-3468 
-3489 
-3425 
-3341 
-3316 
-3312 
-3195 
-3216 
-3351 
-3349 
-3217 
-3186 
-3276 
-3302 
-3173 
-3140 
-3236 
-3289 
-3282 
-3275 
-3252 
-3298 
-3253 
-3186 
-3264 
-3319 
-3321 
-3228 
-3139 
-3226 
-3208 
-3122 
-3125 
-3173 
-3138 
-2999 
-2964 
-3038 
-3053 
-2963 
-2896 
-3005 
-3133 
-3022 
-2964 
-3039 
-3164 
-3208 
-3191 
-3178 
-3275 
-3295 
-3311 
-3326 
-3393 
-3339 
-3252 
-3282 
-3414 
-3405 
-3252 
-3222 
-3359 
-3334 
-3175 
-3134 
-3208 
-3295 
-3234 
-3173 
-3210 
-3276 
-3267 
-3216 
-3286 
-3432 
-3448 
-3371 
-3303 
-3434 
-3469 
-3330 
-3345 
-3442 
-3430 
-3295 
-3209 
-3381 
-3376 
-3236 
-3206 
-3308 
-3320 
-3229 
-3160 
-3327 
-3388 
-3303 
-3246 
-3264 
-3304 
-3283 
-3264 
-3287 
-3417 
-3442 
-3245 
-3242 
-3328 
-3370 
-3267 
-3332 
-3385 
-3390 
-3299 
-3196 
-3300 
-3336 
-3240 
-3127 
-3182 
-3322 
-3231 
-3158 
-3187 
-3281 
-3294 
-3188 
-3196 
-3340 
-3335 
-3263 
-3254 
-3307 
-3279 
-3243 
-3275 
-3233 
-3142 
-2913 
-2768 
-2843 
-2939 
-2951 
-3089 
-3386 
-3616 
-3588 
-3393 
-3336 
-3403 
-3312 
-3193 
-3197 
-3327 
-3298 
-3187 
-3151 
-3275 
-3330 
-3222 
-3193 
-3267 
-3366 
-3244 
-3187 
-3224 
-3302 
-3268 
-3236 
-3240 
-3324 
-3277 
-3171 
-3202 
-3305 
-3305 
-3143 
-3090 
-3222 
-3216 
-3183 
-3143 
-3243 
-3167 
-3058 
-3008 
-3106 
-3160 
-3108 
-3059 
-3091 
-3181 
-3075 
-2981 
-2979 
-3208 
-3124 
-2951 
-2988 
-3120 
-3050 
-2900 
-2868 
-3074 
-3094 
-2977 
-2985 
-3089 
-3209 
-3111 
-3017 
-3164 
-3268 
-3231 
-3149 
-3245 
-3311 
-3271 
-3192 
-3265 
-3362 
-3330 
-3238 
-3272 
-3395 
-3364 
-3195 
-3203 
-3315 
-3342 
-3286 
-3225 
-3356 
-3331 
-3133 
-3057 
-3234 
-3314 
-3229 
-3069 
-3147 
-3250 
-3161 
-3105 
-3160 
-3289 
-3279 
-3117 
-3165 
-3349 
-3341 
-3178 
-3146 
-3309 
-3355 
-3225 
-3214 
-3231 
-3260 
-3169 
-3118 
-3224 
-3322 
-3140 
-3040 
-3113 
-3261 
-3200 
-3132 
-3148 
-3191 
-3184 
-3173 
-3164 
-3237 
-3218 
-3113 
-3160 
-3295 
-3323 
-3215 
-3190 
-3286 
-3377 
-3260 
-3206 
-3289 
-3330 
-3249 
-3148 
-3234 
-3360 
-3246 
-3131 
-3128 
-3113 
-2986 
-2787 
-2667 
-2776 
-2872 
-2859 
-3096 
-3559 
-3642 
-3498 
-3379 
-3373 
-3468 
-3397 
-3227 
-3253 
-3317 
-3289 
-3277 
-3267 
-3372 
-3369 
-3180 
-3164 
-3239 
-3289 
-3157 
-3135 
-3148 
-3234 
-3192 
-3135 
-3219 
-3229 
-3124 
-3136 
-3236 
-3274 
-3213 
-3183 
-3219 
-3297 
-3199 
-3142 
-3167 
-3221 
-3218 
-3119 
-3125 
-3130 
-3116 
-3015 
-2969 
-3021 
-3033 
-2943 
-2880 
-2945 
-2977 
-2880 
-2854 
-2961 
-3006 
-2924 
-2893 
-2965 
-3058 
-3017 
-2958 
-2996 
-3109 
-3159 
-3109 
-3146 
-3206 
-3214 
-3046 
-3111 
-3259 
-3301 
-3097 
-3034 
-3141 
-3252 
-3143 
-3049 
-3151 
-3244 
-3179 
-3105 
-3136 
-3225 
-3226 
-3083 
-3094 
-3222 
-3245 
-3184 
-3149 
-3208 
-3256 
-3118 
-3142 
-3312 
-3267 
-3088 
-3072 
-3151 
-3216 
-3099 
-3067 
-3186 
-3273 
-3101 
-2995 
-3095 
-3171 
-3170 
-3073 
-3146 
-3220 
-3203 
-3117 
-3141 
-3253 
-3278 
-3145 
-3185 
-3299 
-3307 
-3146 
-3084 
-3204 
-3260 
-3148 
-3004 
-3138 
-3222 
-3138 
-2993 
-3081 
-3204 
-3134 
-3050 
-3054 
-3120 
-3132 
-3052 
-3105 
-3182 
-3239 
-3145 
-3129 
-3237 
-3277 
-3221 
-3123 
-3226 
-3289 
-3234 
-3117 
-3233 
-3314 
-3199 
-2992 
-3012 
-2951 
-2801 
-2627 
-2643 
-2720 
-2867 
-3079 
-3268 
-3491 
-3438 
-3218 
-3197 
-3270 
-3225 
-3150 
-3101 
-3183 
-3279 
-3191 
-3141 
-3198 
-3207 
-3120 
-3094 
-3154 
-3240 
-3218 
-3040 
-3044 
-3158 
-3169 
-2969 
-2963 
-3127 
-3111 
-3021 
-3007 
-3073 
-3098 
-3048 
-3002 
-3113 
-3186 
-3090 
-3015 
-3071 
-3167 
-3137 
-3046 
-3064 
-3112 
-3097 
-2907 
-2955 
-3041 
-3002 
-2872 
-2847 
-2917 
-2981 
-2807 
-2714 
-2898 
-2937 
-2761 
-2819 
-2928 
-2966 
-2880 
-2844 
-2993 
-3112 
-3040 
-2987 
-3076 
-3216 
-3187 
-3075 
-3064 
-3174 
-3142 
-2978 
-2920 
-3121 
-3188 
-3089 
-2992 
-3118 
-3160 
-3065 
-2987 
-3101 
-3166 
-3131 
-3028 
-3077 
-3146 
-3152 
-2987 
-3064 
-3201 
-3171 
-3014 
-3026 
-3163 
-3182 
-3021 
-3001 
-3128 
-3177 
-3040 
-3005 
-3147 
-3176 
-3022 
-3008 
-3098 
-3225 
-3141 
-3007 
-3087 
-3221 
-3169 
-3012 
-3041 
-3229 
-3202 
-3021 
-3047 
-3113 
-3115 
-3061 
-3069 
-3113 
-3120 
-2991 
-2965 
-3072 
-3141 
-3051 
-2905 
-3027 
-3119 
-3054 
-2996 
-3020 
-3173 
-3087 
-2960 
-3038 
-3145 
-3188 
-3043 
-3029 
-3118 
-3111 
-3018 
-3030 
-3122 
-3148 
-3017 
-2940 
-3060 
-3129 
-2947 
-2794 
-2758 
-2749 
-2630 
-2530 
-2639 
-3015 
-3250 
-3300 
-3319 
-3397 
-3260 
-3093 
-3032 
-3061 
-3025 
-2949 
-2963 
-3039 
-3102 
-3054 
-2951 
-2978 
-3116 
-3076 
-2997 
-3055 
-3110 
-3013 
-2971 
-3065 
-3146 
-3154 
-3008 
-2948 
-3102 
-3147 
-2980 
-2879 
-3023 
-3026 
-2916 
-2879 
-2949 
-2991 
-2897 
-2839 
-2932 
-3017 
-2896 
-2834 
-2892 
-3023 
-2942 
-2863 
-2848 
-2842 
-2930 
-2860 
-2833 
-2893 
-2905 
-2830 
-2640 
-2809 
-2890 
-2763 
-2728 
-2839 
-2914 
-2844 
-2813 
-2927 
-2951 
-2916 
-2831 
-2951 
-3075 
-3039 
-2957 
-2987 
-3119 
-3073 
-2975 
-2969 
-3138 
-3173 
-3027 
-2941 
-3026 
-3116 
-3032 
-2954 
-3041 
-3067 
-3014 
-2951 
-2965 
-3026 
-2993 
-2896 
-3001 
-3121 
-3047 
-2906 
-2955 
-3071 
-3068 
-2947 
-3005 
-3059 
-3068 
-3019 
-3043 
-3092 
-3114 
-2996 
-2992 
-3048 
-3201 
-3087 
-2916 
-2990 
-3078 
-3002 
-2915 
-2935 
-3037 
-2976 
-2920 
-2927 
-2989 
-2993 
-2963 
-3014 
-3122 
-3083 
-2932 
-2875 
-3032 
-3116 
-3007 
-2888 
-2964 
-3079 
-2997 
-2892 
-3013 
-3109 
-3069 
-2875 
-2935 
-3074 
-3036 
-2891 
-2941 
-3063 
-3013 
-2859 
-2949 
-3143 
-3029 
-2893 
-2811 
-2761 
-2655 
-2504 
-2459 
-2590 
-2832 
-3038 
-3115 
-3267 
-3360 
-3145 
-3003 
-2995 
-3049 
-3002 
-2956 
-2957 
-3028 
-2998 
-2884 
-2934 
-3049 
-2970 
-2856 
-2874 
-3016 
-3002 
-2927 
-2922 
-3043 
-3116 
-2918 
-2820 
-2864 
-3025 
-2971 
-2854 
-2930 
-3025 
-2966 
-2824 
-2817 
-2973 
-2932 
-2808 
-2775 
-2870 
-2942 
-2865 
-2787 
-2864 
-2886 
-2753 
-2705 
-2829 
-2910 
-2821 
-2710 
-2744 
-2823 
-2733 
-2591 
-2691 
-2816 
-2770 
-2606 
-2626 
-2767 
-2794 
-2730 
-2741 
-2901 
-2964 
-2835 
-2835 
-2925 
-3013 
-2899 
-2887 
-2974 
-3022 
-2962 
-2868 
-2904 
-3047 
-2999 
-2910 
-2956 
-2969 
-2926 
-2867 
-2888 
-2999 
-2973 
-2847 
-2883 
-3032 
-2984 
-2881 
-2884 
-2991 
-3103 
-3008 
-2829 
-2946 
-3038 
-2977 
-2890 
-2913 
-3021 
-3051 
-2902 
-2943 
-3027 
-3004 
-2939 
-2916 
-3045 
-3060 
-2929 
-2887 
-3033 
-3048 
-2900 
-2810 
-2916 
-3018 
-2916 
-2788 
-2885 
-2978 
-2958 
-2816 
-2846 
-2982 
-2868 
-2792 
-2847 
-2986 
-2913 
-2825 
-2922 
-3015 
-3012 
-2951 
-2834 
-2902 
-3072 
-3016 
-2887 
-2930 
-3013 
-2915 
-2891 
-2921 
-2956 
-2648 
-2438 
-2428 
-2432 
-2477 
-2472 
-2729 
-3129 
-3239 
-3135 
-3057 
-3027 
-3090 
-2937 
-2859 
-2958 
-2988 
-2897 
-2829 
-2967 
-3045 
-2929 
-2857 
-2872 
-2959 
-2908 
-2780 
-2840 
-2876 
-2837 
-2778 
-2876 
-2936 
-2851 
-2765 
-2720 
-2844 
-2925 
-2818 
-2761 
-2855 
-2894 
-2847 
-2810 
-2843 
-2930 
-2793 
-2710 
-2842 
-2905 
-2775 
-2702 
-2693 
-2785 
-2765 
-2602 
-2609 
-2722 
-2667 
-2590 
-2555 
-2660 
-2681 
-2574 
-2592 
-2637 
-2671 
-2674 
-2676 
-2724 
-2825 
-2764 
-2669 
-2698 
-2832 
-2889 
-2803 
-2877 
-2926 
-2852 
-2740 
-2800 
-2965 
-2964 
-2830 
-2787 
-2975 
-2971 
-2805 
-2758 
-2866 
-2992 
-2886 
-2776 
-2822 
-2880 
-2797 
-2782 
-2892 
-2945 
-2864 
-2747 
-2799 
-2949 
-2910 
-2836 
-2835 
-2960 
-2964 
-2826 
-2816 
-2960 
-2967 
-2845 
-2815 
-2933 
-2873 
-2847 
-2800 
-2859 
-2922 
-2856 
-2788 
-2814 
-2885 
-2839 
-2730 
-2806 
-2914 
-2840 
-2746 
-2750 
-2881 
-2881 
-2786 
-2805 
-2947 
-2972 
-2871 
-2839 
-2913 
-3022 
-2910 
-2714 
-2882 
-3080 
-2886 
-2714 
-2814 
-2927 
-2864 
-2645 
-2568 
-2559 
-2451 
-2353 
-2357 
-2617 
-2862 
-2999 
-3139 
-3239 
-3176 
-3011 
-2941 
-2968 
-3002 
-2915 
-2841 
-2882 
-2896 
-2833 
-2757 
-2821 
-2888 
-2825 
-2734 
-2783 
-2912 
-2863 
-2735 
-2768 
-2869 
-2855 
-2759 
-2735 
-2925 
-2909 
-2773 
-2667 
-2812 
-2964 
-2906 
-2745 
-2795 
-2869 
-2756 
-2711 
-2738 
-2789 
-2767 
-2678 
-2678 
-2823 
-2707 
-2546 
-2651 
-2754 
-2704 
-2540 
-2489 
-2691 
-2742 
-2644 
-2530 
-2556 
-2709 
-2682 
-2556 
-2670 
-2724 
-2696 
-2640 
-2732 
-2834 
-2853 
-2729 
-2750 
-2871 
-2826 
-2716 
-2740 
-2852 
-2877 
-2809 
-2827 
-2905 
-2929 
-2804 
-2710 
-2866 
-2944 
-2785 
-2782 
-2842 
-2882 
-2849 
-2745 
-2779 
-2840 
-2764 
-2689 
-2760 
-2855 
-2835 
-2799 
-2785 
-2918 
-2919 
-2829 
-2771 
-2899 
-2936 
-2856 
-2760 
-2866 
-2879 
-2853 
-2792 
-2807 
-2871 
-2849 
-2724 
-2724 
-2865 
-2813 
-2709 
-2711 
-2817 
-2811 
-2719 
-2720 
-2829 
-2883 
-2778 
-2797 
-2867 
-2824 
-2773 
-2784 
-2878 
-2923 
-2814 
-2742 
-2834 
-2902 
-2789 
-2740 
-2739 
-2818 
-2824 
-2674 
-2681 
-2848 
-2851 
-2709 
-2632 
-2711 
-2676 
-2413 
-2301 
-2465 
-2536 
-2516 
-2686 
-3003 
-3190 
-3147 
-2929 
-2934 
-2915 
-2865 
-2760 
-2768 
-2803 
-2836 
-2686 
-2717 
-2787 
-2823 
-2712 
-2735 
-2772 
-2862 
-2779 
-2641 
-2748 
-2892 
-2820 
-2699 
-2767 
-2817 
-2739 
-2682 
-2753 
-2827 
-2774 
-2683 
-2742 
-2845 
-2751 
-2680 
-2684 
-2735 
-2763 
-2700 
-2614 
-2612 
-2695 
-2588 
-2519 
-2614 
-2647 
-2579 
-2465 
-2524 
-2642 
-2513 
-2460 
-2470 
-2616 
-2548 
-2450 
-2544 
-2647 
-2657 
-2527 
-2569 
-2779 
-2844 
-2663 
-2625 
-2770 
-2813 
-2658 
-2682 
-2676 
-2775 
-2734 
-2618 
-2638 
-2804 
-2755 
-2612 
-2636 
-2815 
-2806 
-2635 
-2717 
-2872 
-2875 
-2772 
-2744 
-2839 
-2898 
-2804 
-2713 
-2812 
-2841 
-2779 
-2635 
-2790 
-2791 
-2724 
-2594 
-2699 
-2785 
-2681 
-2604 
-2686 
-2808 
-2824 
-2654 
-2649 
-2767 
-2793 
-2743 
-2743 
-2827 
-2836 
-2769 
-2715 
-2808 
-2855 
-2795 
-2692 
-2784 
-2867 
-2717 
-2566 
-2661 
-2831 
-2772 
-2625 
-2616 
-2705 
-2732 
-2658 
-2612 
-2762 
-2796 
-2677 
-2700 
-2852 
-2889 
-2674 
-2702 
-2837 
-2875 
-2793 
-2703 
-2756 
-2873 
-2722 
-2547 
-2504 
-2501 
-2403 
-2230 
-2225 
-2451 
-2651 
-2768 
-2910 
-3002 
-2951 
-2787 
-2689 
-2804 
-2803 
-2696 
-2607 
-2749 
-2873 
-2723 
-2605 
-2673 
-2816 
-2733 
-2676 
-2735 
-2832 
-2765 
-2663 
-2720 
-2844 
-2756 
-2633 
-2683 
-2742 
-2664 
-2548 
-2634 
-2751 
-2780 
-2629 
-2556 
-2633 
-2637 
-2627 
-2589 
-2620 
-2674 
-2608 
-2484 
-2602 
-2746 
-2666 
-2489 
-2563 
-2751 
-2627 
-2454 
-2475 
-2584 
-2586 
-2465 
-2451 
-2511 
-2477 
-2418 
-2353 
-2527 
-2671 
-2496 
-2416 
-2557 
-2666 
-2607 
-2475 
-2556 
-2742 
-2748 
-2674 
-2654 
-2725 
-2728 
-2675 
-2678 
-2770 
-2804 
-2670 
-2674 
-2738 
-2797 
-2670 
-2604 
-2649 
-2737 
-2612 
-2561 
-2719 
-2778 
-2644 
-2575 
-2615 
-2734 
-2710 
-2618 
-2661 
-2796 
-2784 
-2628 
-2613 
-2808 
-2777 
-2724 
-2645 
-2682 
-2726 
-2654 
-2644 
-2759 
-2859 
-2745 
-2611 
-2648 
-2696 
-2704 
-2650 
-2701 
-2804 
-2739 
-2640 
-2701 
-2794 
-2738 
-2612 
-2682 
-2802 
-2750 
-2568 
-2495 
-2670 
-2722 
-2605 
-2515 
-2666 
-2780 
-2712 
-2650 
-2695 
-2836 
-2764 
-2619 
-2692 
-2831 
-2762 
-2655 
-2650 
-2806 
-2709 
-2657 
-2647 
-2663 
-2694 
-2506 
-2352 
-2311 
-2359 
-2169 
-2118 
-2226 
-2486 
-2714 
-2820 
-2883 
-2947 
-2812 
-2673 
-2678 
-2736 
-2708 
-2547 
-2572 
-2729 
-2706 
-2595 
-2579 
-2722 
-2708 
-2551 
-2546 
-2603 
-2639 
-2627 
-2514 
-2600 
-2713 
-2558 
-2506 
-2581 
-2674 
-2578 
-2509 
-2606 
-2698 
-2633 
-2526 
-2551 
-2687 
-2673 
-2581 
-2559 
-2649 
-2593 
-2457 
-2405 
-2500 
-2598 
-2551 
-2379 
-2423 
-2481 
-2382 
-2325 
-2409 
-2472 
-2469 
-2330 
-2311 
-2468 
-2457 
-2362 
-2353 
-2501 
-2529 
-2513 
-2467 
-2621 
-2603 
-2586 
-2534 
-2633 
-2722 
-2670 
-2564 
-2613 
-2696 
-2652 
-2543 
-2637 
-2708 
-2581 
-2557 
-2596 
-2646 
-2619 
-2518 
-2594 
-2712 
-2680 
-2581 
-2555 
-2641 
-2692 
-2692 
-2649 
-2677 
-2717 
-2595 
-2585 
-2700 
-2777 
-2749 
-2650 
-2635 
-2723 
-2669 
-2559 
-2639 
-2630 
-2611 
-2561 
-2660 
-2650 
-2557 
-2546 
-2654 
-2721 
-2600 
-2634 
-2701 
-2757 
-2628 
-2552 
-2637 
-2780 
-2703 
-2670 
-2709 
-2826 
-2772 
-2597 
-2600 
-2707 
-2694 
-2574 
-2545 
-2671 
-2604 
-2448 
-2425 
-2576 
-2612 
-2478 
-2423 
-2592 
-2705 
-2670 
-2561 
-2672 
-2763 
-2721 
-2679 
-2713 
-2878 
-2840 
-2669 
-2655 
-2778 
-2770 
-2571 
-2443 
-2435 
-2345 
-2139 
-2039 
-2083 
-2160 
-2323 
-2545 
-2781 
-2901 
-2816 
-2669 
-2663 
-2735 
-2600 
-2477 
-2568 
-2785 
-2782 
-2630 
-2586 
-2756 
-2731 
-2630 
-2633 
-2784 
-2715 
-2609 
-2557 
-2608 
-2630 
-2551 
-2451 
-2562 
-2645 
-2548 
-2440 
-2467 
-2573 
-2590 
-2510 
-2552 
-2638 
-2575 
-2463 
-2520 
-2631 
-2625 
-2555 
-2485 
-2603 
-2637 
-2503 
-2437 
-2493 
-2534 
-2437 
-2345 
-2419 
-2420 
-2333 
-2223 
-2292 
-2377 
-2284 
-2186 
-2299 
-2405 
-2402 
-2362 
-2370 
-2494 
-2571 
-2459 
-2500 
-2707 
-2682 
-2563 
-2610 
-2765 
-2748 
-2644 
-2550 
-2629 
-2767 
-2593 
-2386 
-2567 
-2651 
-2537 
-2430 
-2504 
-2575 
-2600 
-2519 
-2481 
-2624 
-2586 
-2501 
-2529 
-2611 
-2672 
-2591 
-2542 
-2655 
-2757 
-2665 
-2580 
-2656 
-2776 
-2665 
-2541 
-2573 
-2728 
-2589 
-2478 
-2562 
-2615 
-2522 
-2436 
-2491 
-2601 
-2609 
-2533 
-2471 
-2622 
-2675 
-2566 
-2539 
-2666 
-2737 
-2624 
-2552 
-2647 
-2665 
-2607 
-2588 
-2588 
-2659 
-2614 
-2503 
-2477 
-2615 
-2600 
-2458 
-2444 
-2569 
-2573 
-2447 
-2433 
-2627 
-2642 
-2494 
-2438 
-2562 
-2625 
-2523 
-2535 
-2636 
-2770 
-2685 
-2566 
-2642 
-2615 
-2409 
-2160 
-2091 
-2180 
-2148 
-2222 
-2394 
-2690 
-2877 
-2739 
-2628 
-2702 
-2704 
-2577 
-2414 
-2529 
-2602 
-2507 
-2454 
-2574 
-2628 
-2590 
-2456 
-2552 
-2714 
-2630 
-2566 
-2591 
-2640 
-2621 
-2524 
-2548 
-2598 
-2621 
-2515 
-2395 
-2506 
-2610 
-2478 
-2346 
-2472 
-2491 
-2470 
-2309 
-2409 
-2491 
-2395 
-2374 
-2391 
-2506 
-2468 
-2408 
-2418 
-2489 
-2496 
-2385 
-2292 
-2433 
-2513 
-2333 
-2251 
-2398 
-2458 
-2338 
-2268 
-2298 
-2387 
-2271 
-2247 
-2398 
-2417 
-2344 
-2333 
-2377 
-2507 
-2496 
-2391 
-2432 
-2556 
-2527 
-2404 
-2448 
-2633 
-2679 
-2589 
-2480 
-2608 
-2628 
-2581 
-2550 
-2589 
-2654 
-2593 
-2488 
-2498 
-2564 
-2557 
-2462 
-2509 
-2565 
-2446 
-2383 
-2424 
-2520 
-2513 
-2421 
-2425 
-2514 
-2564 
-2495 
-2440 
-2525 
-2585 
-2536 
-2478 
-2648 
-2689 
-2562 
-2532 
-2610 
-2676 
-2574 
-2531 
-2555 
-2580 
-2548 
-2442 
-2414 
-2480 
-2478 
-2399 
-2341 
-2440 
-2506 
-2407 
-2327 
-2463 
-2509 
-2445 
-2413 
-2482 
-2589 
-2560 
-2480 
-2597 
-2682 
-2632 
-2542 
-2579 
-2717 
-2584 
-2505 
-2464 
-2577 
-2509 
-2378 
-2380 
-2493 
-2356 
-2092 
-1919 
-1972 
-2055 
-2055 
-2167 
-2499 
-2778 
-2915 
-2797 
-2725 
-2778 
-2777 
-2583 
-2531 
-2639 
-2519 
-2449 
-2526 
-2605 
-2516 
-2363 
-2299 
-2398 
-2444 
-2370 
-2369 
-2423 
-2485 
-2384 
-2358 
-2420 
-2489 
-2485 
-2404 
-2503 
-2636 
-2517 
-2412 
-2472 
-2561 
-2516 
-2353 
-2388 
-2542 
-2477 
-2294 
-2301 
-2353 
-2380 
-2251 
-2155 
-2225 
-2280 
-2240 
-2167 
-2271 
-2333 
-2294 
-2163 
-2230 
-2338 
-2269 
-2230 
-2303 
-2406 
-2363 
-2232 
-2342 
-2395 
-2398 
-2256 
-2269 
-2398 
-2407 
-2325 
-2297 
-2369 
-2436 
-2401 
-2310 
-2354 
-2554 
-2420 
-2366 
-2403 
-2536 
-2506 
-2366 
-2412 
-2533 
-2547 
-2408 
-2394 
-2592 
-2598 
-2425 
-2363 
-2437 
-2555 
-2404 
-2335 
-2448 
-2473 
-2411 
-2322 
-2395 
-2494 
-2435 
-2291 
-2344 
-2506 
-2473 
-2403 
-2404 
-2522 
-2487 
-2357 
-2368 
-2542 
-2539 
-2303 
-2354 
-2506 
-2541 
-2445 
-2406 
-2537 
-2518 
-2398 
-2307 
-2422 
-2550 
-2482 
-2360 
-2446 
-2456 
-2366 
-2286 
-2296 
-2426 
-2416 
-2278 
-2224 
-2418 
-2457 
-2332 
-2284 
-2401 
-2456 
-2351 
-2343 
-2464 
-2545 
-2402 
-2386 
-2472 
-2556 
-2478 
-2398 
-2463 
-2533 
-2446 
-2319 
-2204 
-2191 
-2156 
-1862 
-1877 
-2020 
-2002 
-2099 
-2382 
-2588 
-2680 
-2537 
-2434 
-2470 
-2470 
-2416 
-2392 
-2447 
-2544 
-2422 
-2317 
-2381 
-2566 
-2470 
-2371 
-2309 
-2392 
-2472 
-2387 
-2212 
-2348 
-2389 
-2232 
-2207 
-2305 
-2397 
-2301 
-2190 
-2252 
-2365 
-2388 
-2244 
-2338 
-2378 
-2337 
-2271 
-2294 
-2382 
-2377 
-2206 
-2229 
-2337 
-2310 
-2235 
-2289 
-2283 
-2273 
-2136 
-2047 
-2165 
-2202 
-2110 
-2022 
-2118 
-2163 
-2079 
-2023 
-2081 
-2227 
-2187 
-2083 
-2124 
-2307 
-2352 
-2219 
-2216 
-2379 
-2383 
-2289 
-2390 
-2436 
-2403 
-2314 
-2293 
-2360 
-2419 
-2329 
-2220 
-2274 
-2325 
-2332 
-2235 
-2284 
-2323 
-2284 
-2208 
-2262 
-2398 
-2358 
-2258 
-2256 
-2426 
-2447 
-2280 
-2309 
-2383 
-2429 
-2357 
-2350 
-2440 
-2436 
-2379 
-2198 
-2301 
-2440 
-2345 
-2268 
-2247 
-2316 
-2300 
-2275 
-2281 
-2347 
-2336 
-2185 
-2191 
-2337 
-2394 
-2289 
-2274 
-2419 
-2466 
-2363 
-2287 
-2352 
-2471 
-2400 
-2326 
-2420 
-2414 
-2344 
-2290 
-2301 
-2345 
-2274 
-2229 
-2259 
-2290 
-2224 
-2104 
-2143 
-2232 
-2240 
-2237 
-2178 
-2306 
-2356 
-2287 
-2289 
-2359 
-2441 
-2433 
-2401 
-2446 
-2484 
-2363 
-2250 
-2243 
-2457 
-2372 
-2171 
-2082 
-2120 
-2101 
-1880 
-1818 
-1833 
-1836 
-1863 
-2133 
-2444 
-2578 
-2548 
-2386 
-2353 
-2460 
-2367 
-2266 
-2338 
-2478 
-2396 
-2185 
-2238 
-2356 
-2422 
-2261 
-2238 
-2314 
-2351 
-2216 
-2164 
-2211 
-2217 
-2177 
-2099 
-2211 
-2282 
-2236 
-2150 
-2206 
-2249 
-2216 
-2209 
-2269 
-2250 
-2179 
-2181 
-2192 
-2302 
-2299 
-2181 
-2149 
-2219 
-2261 
-2091 
-2009 
-2146 
-2200 
-2049 
-1915 
-2015 
-2069 
-1946 
-1925 
-1995 
-2072 
-2017 
-1900 
-1951 
-2105 
-2069 
-1966 
-1997 
-2174 
-2171 
-2120 
-2132 
-2279 
-2290 
-2192 
-2138 
-2315 
-2354 
-2228 
-2101 
-2236 
-2308 
-2181 
-2049 
-2097 
-2268 
-2201 
-2106 
-2203 
-2268 
-2197 
-2048 
-2170 
-2300 
-2245 
-2207 
-2209 
-2326 
-2342 
-2246 
-2182 
-2273 
-2347 
-2249 
-2197 
-2274 
-2334 
-2169 
-2018 
-2191 
-2222 
-2201 
-2146 
-2251 
-2254 
-2221 
-2118 
-2169 
-2259 
-2231 
-2162 
-2203 
-2308 
-2303 
-2183 
-2180 
-2322 
-2407 
-2235 
-2203 
-2318 
-2336 
-2240 
-2173 
-2221 
-2222 
-2168 
-2091 
-2183 
-2250 
-2242 
-2097 
-2168 
-2190 
-2204 
-2097 
-2135 
-2223 
-2228 
-2098 
-2068 
-2201 
-2363 
-2220 
-2106 
-2218 
-2297 
-2205 
-2129 
-2223 
-2239 
-2204 
-2196 
-2249 
-2321 
-2271 
-2109 
-2097 
-2273 
-2234 
-2086 
-2106 
-2226 
-2084 
-1835 
-1731 
-1826 
-1849 
-1733 
-1778 
-2138 
-2374 
-2441 
-2357 
-2347 
-2436 
-2352 
-2163 
-2158 
-2284 
-2310 
-2133 
-2094 
-2216 
-2254 
-2148 
-2032 
-2143 
-2195 
-2043 
-2024 
-2181 
-2222 
-2084 
-1980 
-2069 
-2194 
-2157 
-2034 
-2083 
-2216 
-2211 
-2180 
-2169 
-2231 
-2198 
-2112 
-2137 
-2170 
-2166 
-2035 
-1966 
-2062 
-2099 
-1991 
-1930 
-1985 
-1975 
-1893 
-1858 
-1895 
-1919 
-1867 
-1839 
-1877 
-1957 
-1961 
-1859 
-1961 
-2065 
-2010 
-1905 
-1934 
-2116 
-2130 
-2054 
-2051 
-2134 
-2191 
-2065 
-2033 
-2067 
-2103 
-2016 
-2004 
-2042 
-2092 
-2021 
-1962 
-2080 
-2135 
-2104 
-2024 
-2065 
-2192 
-2180 
-2113 
-2082 
-2179 
-2269 
-2174 
-2111 
-2164 
-2236 
-2171 
-2147 
-2191 
-2214 
-2123 
-2024 
-2043 
-2101 
-2039 
-1983 
-1995 
-2041 
-2062 
-2015 
-2028 
-2143 
-2102 
-2036 
-2112 
-2165 
-2240 
-2215 
-2095 
-2246 
-2286 
-2183 
-2106 
-2237 
-2235 
-2132 
-2089 
-2109 
-2175 
-2084 
-1971 
-1989 
-2096 
-2069 
-1930 
-1964 
-2067 
-2084 
-1991 
-1975 
-2095 
-2130 
-2112 
-2100 
-2133 
-2144 
-2124 
-2138 
-2169 
-2210 
-2168 
-2072 
-2136 
-2183 
-2087 
-2053 
-2069 
-2130 
-2063 
-1929 
-2013 
-2072 
-2061 
-1948 
-1935 
-2083 
-2125 
-2022 
-1812 
-1805 
-1749 
-1655 
-1615 
-1745 
-1939 
-2119 
-2223 
-2452 
-2550 
-2387 
-2141 
-2113 
-2165 
-2179 
-2054 
-1972 
-2084 
-2072 
-1942 
-1899 
-1998 
-2019 
-1937 
-1931 
-2049 
-2090 
-1977 
-1881 
-2028 
-2180 
-2086 
-2041 
-2137 
-2192 
-2119 
-2022 
-2069 
-2192 
-2123 
-1956 
-1970 
-2031 
-2022 
-1884 
-1871 
-1920 
-1968 
-1843 
-1773 
-1941 
-1942 
-1801 
-1678 
-1845 
-1867 
-1771 
-1764 
-1843 
-1933 
-1934 
-1790 
-1775 
-1969 
-1953 
-1837 
-1838 
-1991 
-1943 
-1855 
-1887 
-1994 
-2062 
-1899 
-1854 
-1911 
-1958 
-1909 
-1873 
-1895 
-2028 
-1964 
-1818 
-1905 
-2055 
-2077 
-1957 
-1980 
-2154 
-2143 
-2023 
-2110 
-2206 
-2218 
-2048 
-1998 
-2188 
-2142 
-2003 
-1929 
-1996 
-2063 
-1980 
-1897 
-1952 
-1940 
-1904 
-1859 
-1961 
-2065 
-1963 
-1882 
-1934 
-2051 
-2107 
-2030 
-2061 
-2251 
-2390 
-2434 
-2660 
-2868 
-2935 
-2753 
-2632 
-2722 
-2729 
-2523 
-2376 
-2425 
-2456 
-2363 
-2210 
-2235 
-2262 
-2198 
-2064 
-2155 
-2271 
-2215 
-2176 
-2144 
-2247 
-2254 
-2197 
-2153 
-2275 
-2342 
-2218 
-2118 
-2226 
-2338 
-2281 
-2188 
-2222 
-2373 
-2374 
-2257 
-2146 
-2191 
-2093 
-1863 
-1726 
-1764 
-1693 
-1631 
-1659 
-1954 
-2238 
-2290 
-2300 
-2365 
-2345 
-2263 
-2158 
-2195 
-2306 
-2166 
-1989 
-2056 
-2183 
-2103 
-1980 
-2032 
-2090 
-2014 
-1931 
-1918 
-1985 
-1975 
-1849 
-1834 
-2001 
-2038 
-1903 
-1874 
-1997 
-2055 
-1967 
-1893 
-1993 
-2054 
-2005 
-1895 
-1975 
-2076 
-1963 
-1876 
-1852 
-1949 
-1913 
-1774 
-1772 
-1850 
-1829 
-1709 
-1713 
-1810 
-1792 
-1698 
-1619 
-1737 
-1757 
-1667 
-1657 
-1725 
-1749 
-1666 
-1715 
-1815 
-1900 
-1872 
-1769 
-1847 
-2027 
-1973 
-1818 
-1914 
-2006 
-2001 
-1867 
-1856 
-1966 
-2019 
-1891 
-1798 
-1887 
-1937 
-1853 
-1801 
-1910 
-2014 
-1935 
-1833 
-1989 
-2081 
-1935 
-1854 
-1905 
-2027 
-2066 
-1934 
-1916 
-2026 
-2034 
-1933 
-1885 
-2005 
-2059 
-1930 
-1779 
-1914 
-1940 
-1852 
-1809 
-1856 
-1888 
-1873 
-1799 
-1884 
-1921 
-1898 
-1868 
-1905 
-2087 
-2066 
-1925 
-1948 
-2112 
-2113 
-1939 
-1905 
-2043 
-2061 
-1976 
-1912 
-1936 
-1947 
-1797 
-1757 
-1896 
-1901 
-1760 
-1693 
-1772 
-1887 
-1869 
-1751 
-1776 
-1936 
-2006 
-1887 
-1927 
-2004 
-2021 
-1963 
-1920 
-2092 
-2104 
-1978 
-2005 
-2064 
-2075 
-1915 
-1843 
-1937 
-1853 
-1575 
-1367 
-1403 
-1458 
-1470 
-1438 
-1772 
-2129 
-2189 
-2000 
-1944 
-2040 
-2089 
-1947 
-1892 
-2069 
-2095 
-1985 
-1877 
-2003 
-2106 
-1923 
-1923 
-1916 
-1934 
-1935 
-1768 
-1833 
-1874 
-1829 
-1719 
-1749 
-1853 
-1849 
-1757 
-1709 
-1876 
-1898 
-1820 
-1771 
-1868 
-1913 
-1821 
-1755 
-1859 
-1996 
-1963 
-1858 
-1845 
-1885 
-1837 
-1756 
-1795 
-1790 
-1796 
-1600 
-1568 
-1674 
-1725 
-1557 
-1486 
-1634 
-1661 
-1554 
-1550 
-1660 
-1681 
-1615 
-1640 
-1774 
-1859 
-1810 
-1770 
-1879 
-1990 
-1884 
-1859 
-1860 
-1952 
-1918 
-1800 
-1782 
-1911 
-1848 
-1750 
-1750 
-1857 
-1909 
-1811 
-1720 
-1860 
-1878 
-1747 
-1787 
-1874 
-1938 
-1942 
-1891 
-1900 
-1914 
-1934 
-1843 
-1879 
-2009 
-1932 
-1829 
-1798 
-1931 
-1988 
-1833 
-1769 
-1860 
-1881 
-1806 
-1757 
-1837 
-1904 
-1791 
-1809 
-1856 
-1880 
-1885 
-1865 
-1895 
-1995 
-1897 
-1803 
-1893 
-1984 
-1926 
-1862 
-1849 
-1989 
-1933 
-1796 
-1784 
-1878 
-1858 
-1764 
-1785 
-1826 
-1865 
-1823 
-1669 
-1779 
-1846 
-1805 
-1780 
-1804 
-1941 
-1900 
-1817 
-1883 
-1933 
-1926 
-1802 
-1834 
-1936 
-1956 
-1866 
-1754 
-1855 
-1857 
-1620 
-1380 
-1488 
-1517 
-1375 
-1377 
-1729 
-2109 
-2152 
-2053 
-2050 
-2003 
-1872 
-1762 
-1746 
-1891 
-1907 
-1773 
-1775 
-1894 
-1877 
-1815 
-1770 
-1857 
-1894 
-1803 
-1747 
-1870 
-1943 
-1880 
-1728 
-1839 
-1952 
-1872 
-1823 
-1849 
-1893 
-1813 
-1692 
-1768 
-1894 
-1788 
-1634 
-1714 
-1807 
-1766 
-1630 
-1633 
-1761 
-1814 
-1658 
-1591 
-1664 
-1793 
-1750 
-1639 
-1686 
-1772 
-1648 
-1612 
-1598 
-1695 
-1689 
-1638 
-1560 
-1668 
-1630 
-1446 
-1435 
-1591 
-1704 
-1599 
-1601 
-1745 
-1804 
-1746 
-1669 
-1776 
-1880 
-1803 
-1668 
-1822 
-1932 
-1872 
-1729 
-1855 
-1864 
-1821 
-1735 
-1749 
-1890 
-1887 
-1683 
-1729 
-1763 
-1796 
-1722 
-1683 
-1702 
-1790 
-1757 
-1699 
-1785 
-1832 
-1810 
-1689 
-1740 
-1897 
-1848 
-1695 
-1764 
-1876 
-1898 
-1744 
-1749 
-1874 
-1912 
-1741 
-1639 
-1808 
-1836 
-1716 
-1673 
-1815 
-1846 
-1725 
-1654 
-1741 
-1846 
-1775 
-1626 
-1707 
-1848 
-1810 
-1687 
-1681 
-1805 
-1777 
-1709 
-1667 
-1716 
-1785 
-1674 
-1625 
-1736 
-1830 
-1731 
-1639 
-1742 
-1803 
-1711 
-1630 
-1762 
-1809 
-1734 
-1664 
-1737 
-1811 
-1752 
-1694 
-1601 
-1575 
-1482 
-1288 
-1206 
-1319 
-1361 
-1484 
-1644 
-1945 
-2052 
-1898 
-1743 
-1791 
-1834 
-1718 
-1626 
-1726 
-1799 
-1752 
-1704 
-1640 
-1757 
-1733 
-1604 
-1670 
-1766 
-1680 
-1550 
-1577 
-1771 
-1785 
-1606 
-1582 
-1717 
-1766 
-1641 
-1561 
-1701 
-1824 
-1693 
-1568 
-1617 
-1696 
-1577 
-1526 
-1564 
-1666 
-1586 
-1458 
-1477 
-1609 
-1605 
-1412 
-1427 
-1626 
-1603 
-1406 
-1411 
-1525 
-1579 
-1509 
-1444 
-1531 
-1566 
-1448 
-1340 
-1417 
-1552 
-1479 
-1374 
-1447 
-1595 
-1521 
-1422 
-1519 
-1605 
-1659 
-1538 
-1538 
-1661 
-1702 
-1568 
-1620 
-1747 
-1835 
-1708 
-1559 
-1637 
-1706 
-1716 
-1584 
-1678 
-1717 
-1643 
-1523 
-1560 
-1683 
-1634 
-1530 
-1510 
-1687 
-1699 
-1636 
-1555 
-1635 
-1770 
-1600 
-1568 
-1644 
-1751 
-1647 
-1576 
-1671 
-1763 
-1690 
-1519 
-1620 
-1666 
-1667 
-1575 
-1621 
-1716 
-1670 
-1626 
-1635 
-1653 
-1693 
-1595 
-1531 
-1653 
-1716 
-1593 
-1516 
-1616 
-1630 
-1592 
-1538 
-1601 
-1707 
-1649 
-1552 
-1680 
-1748 
-1618 
-1546 
-1588 
-1655 
-1662 
-1574 
-1600 
-1742 
-1695 
-1546 
-1481 
-1483 
-1349 
-1162 
-1093 
-1228 
-1398 
-1570 
-1726 
-1910 
-1933 
-1783 
-1608 
-1601 
-1721 
-1671 
-1555 
-1509 
-1624 
-1646 
-1568 
-1609 
-1697 
-1692 
-1510 
-1501 
-1676 
-1707 
-1606 
-1517 
-1614 
-1735 
-1608 
-1380 
-1480 
-1659 
-1629 
-1438 
-1467 
-1546 
-1583 
-1477 
-1468 
-1550 
-1502 
-1380 
-1405 
-1490 
-1578 
-1509 
-1471 
-1493 
-1461 
-1465 
-1364 
-1479 
-1539 
-1449 
-1317 
-1440 
-1469 
-1435 
-1248 
-1298 
-1403 
-1324 
-1232 
-1265 
-1339 
-1455 
-1361 
-1361 
-1520 
-1602 
-1502 
-1436 
-1550 
-1568 
-1520 
-1474 
-1564 
-1680 
-1650 
-1533 
-1617 
-1720 
-1587 
-1523 
-1569 
-1693 
-1629 
-1524 
-1500 
-1519 
-1575 
-1488 
-1475 
-1570 
-1577 
-1425 
-1448 
-1596 
-1585 
-1454 
-1420 
-1504 
-1660 
-1600 
-1497 
-1525 
-1706 
-1733 
-1585 
-1536 
-1674 
-1679 
-1521 
-1547 
-1628 
-1594 
-1444 
-1460 
-1567 
-1517 
-1385 
-1423 
-1458 
-1537 
-1480 
-1386 
-1467 
-1537 
-1512 
-1447 
-1462 
-1574 
-1581 
-1545 
-1564 
-1643 
-1603 
-1534 
-1546 
-1688 
-1738 
-1588 
-1512 
-1591 
-1653 
-1541 
-1425 
-1540 
-1583 
-1398 
-1196 
-1075 
-1085 
-1042 
-928 
-1117 
-1506 
-1768 
-1803 
-1788 
-1788 
-1699 
-1604 
-1637 
-1672 
-1668 
-1530 
-1520 
-1649 
-1661 
-1542 
-1517 
-1523 
-1537 
-1424 
-1342 
-1488 
-1550 
-1534 
-1364 
-1368 
-1544 
-1484 
-1374 
-1438 
-1582 
-1573 
-1442 
-1425 
-1502 
-1553 
-1452 
-1445 
-1570 
-1579 
-1475 
-1408 
-1478 
-1539 
-1469 
-1315 
-1308 
-1357 
-1304 
-1205 
-1241 
-1315 
-1289 
-1224 
-1205 
-1304 
-1276 
-1207 
-1163 
-1307 
-1380 
-1262 
-1297 
-1411 
-1488 
-1463 
-1376 
-1442 
-1554 
-1537 
-1454 
-1554 
-1609 
-1523 
-1447 
-1441 
-1535 
-1483 
-1403 
-1417 
-1526 
-1536 
-1412 
-1329 
-1503 
-1607 
-1438 
-1397 
-1543 
-1585 
-1491 
-1361 
-1498 
-1592 
-1557 
-1494 
-1558 
-1570 
-1528 
-1416 
-1498 
-1589 
-1584 
-1432 
-1434 
-1621 
-1555 
-1364 
-1369 
-1496 
-1503 
-1446 
-1338 
-1430 
-1550 
-1475 
-1404 
-1487 
-1623 
-1521 
-1429 
-1480 
-1578 
-1548 
-1454 
-1424 
-1578 
-1577 
-1449 
-1423 
-1510 
-1572 
-1373 
-1297 
-1427 
-1477 
-1415 
-1337 
-1499 
-1547 
-1405 
-1297 
-1438 
-1597 
-1502 
-1420 
-1468 
-1585 
-1533 
-1382 
-1469 
-1614 
-1479 
-1224 
-1104 
-1170 
-1159 
-1083 
-1132 
-1326 
-1596 
-1647 
-1571 
-1709 
-1670 
-1465 
-1374 
-1434 
-1518 
-1500 
-1330 
-1406 
-1502 
-1478 
-1405 
-1367 
-1501 
-1528 
-1436 
-1435 
-1507 
-1440 
-1443 
-1370 
-1518 
-1615 
-1480 
-1302 
-1491 
-1537 
-1268 
-974 
-1069 
-1201 
-1161 
-1104 
-1170 
-1217 
-1209 
-1137 
-1154 
-1286 
-1267 
-1186 
-1201 
-1297 
-1374 
-1262 
-1173 
-1281 
-1305 
-1229 
-1150 
-1184 
-1316 
-1222 
-1089 
-1141 
-1174 
-1133 
-1070 
-1125 
-1244 
-1240 
-1165 
-1099 
-1273 
-1340 
-1254 
-1225 
-1352 
-1446 
-1429 
-1317 
-1432 
-1569 
-1485 
-1388 
-1427 
-1512 
-1454 
-1330 
-1447 
-1465 
-1423 
-1313 
-1551 
-1831 
-1615 
-1475 
-1459 
-1485 
-1500 
-1399 
-1360 
-1446 
-1455 
-1391 
-1374 
-1495 
-1585 
-1453 
-1458 
-1609 
-1633 
-1556 
-1472 
-1469 
-1609 
-1584 
-1417 
-1448 
-1519 
-1520 
-1331 
-1349 
-1475 
-1440 
-1265 
-1210 
-1313 
-1417 
-1355 
-1254 
-1336 
-1423 
-1376 
-1367 
-1430 
-1524 
-1463 
-1395 
-1461 
-1529 
-1512 
-1457 
-1396 
-1503 
-1469 
-1357 
-1253 
-1333 
-1400 
-1348 
-1213 
-1313 
-1434 
-1356 
-1278 
-1356 
-1456 
-1392 
-1290 
-1387 
-1522 
-1538 
-1349 
-1347 
-1383 
-1249 
-1039 
-1021 
-1079 
-1038 
-1052 
-1243 
-1573 
-1736 
-1486 
-1070 
-1114 
-1225 
-1242 
-1132 
-1160 
-1283 
-1272 
-1137 
-1172 
-1313 
-1332 
-1257 
-1248 
-1326 
-1331 
-1242 
-1268 
-1401 
-1342 
-1254 
-1296 
-1411 
-1386 
-1258 
-1196 
-1286 
-1386 
-1265 
-1205 
-1227 
-1327 
-1240 
-1076 
-1187 
-1279 
-1233 
-1075 
-1150 
-1241 
-1219 
-1148 
-1112 
-1240 
-1255 
-1114 
-1076 
-1176 
-1216 
-1085 
-1022 
-1114 
-1183 
-1114 
-1007 
-1063 
-1164 
-1176 
-1062 
-1126 
-1236 
-1158 
-1075 
-1195 
-1370 
-1333 
-1165 
-1195 
-1347 
-1393 
-1285 
-1246 
-1475 
-1749 
-1604 
-1530 
-1516 
-1617 
-1583 
-1412 
-1467 
-1544 
-1382 
-1285 
-1403 
-1590 
-1503 
-1293 
-1264 
-1459 
-1506 
-1291 
-1266 
-1367 
-1449 
-1353 
-1278 
-1391 
-1378 
-1333 
-1260 
-1367 
-1555 
-1391 
-1281 
-1402 
-1470 
-1390 
-1359 
-1382 
-1465 
-1469 
-1330 
-1369 
-1403 
-1386 
-1305 
-1311 
-1385 
-1374 
-1281 
-1203 
-1376 
-1402 
-1301 
-1203 
-1283 
-1462 
-1333 
-1228 
-1333 
-1455 
-1396 
-1272 
-1311 
-1483 
-1420 
-1210 
-1200 
-1399 
-1427 
-1333 
-1271 
-1359 
-1350 
-1295 
-1146 
-1265 
-1439 
-1281 
-1224 
-1349 
-1372 
-1294 
-1202 
-1287 
-1435 
-1341 
-1289 
-1337 
-1424 
-1386 
-1264 
-1241 
-1204 
-1035 
-656 
-592 
-629 
-757 
-969 
-1125 
-1415 
-1612 
-1352 
-1215 
-1271 
-1315 
-1233 
-1142 
-1236 
-1282 
-1293 
-1166 
-1165 
-1375 
-1352 
-1182 
-1212 
-1338 
-1351 
-1220 
-1216 
-1265 
-1285 
-1207 
-1213 
-1277 
-1243 
-1168 
-1168 
-1214 
-1276 
-1183 
-1116 
-1159 
-1260 
-1209 
-1118 
-1157 
-1289 
-1258 
-1110 
-1121 
-1211 
-1214 
-1085 
-1044 
-1220 
-1203 
-1105 
-1084 
-1089 
-1099 
-1056 
-948 
-1003 
-1155 
-1031 
-937 
-979 
-1105 
-1047 
-957 
-1002 
-1176 
-1213 
-1137 
-1174 
-1294 
-1263 
-1115 
-1203 
-1618 
-1716 
-1548 
-1459 
-1481 
-1525 
-1480 
-1381 
-1467 
-1558 
-1417 
-1243 
-1327 
-1353 
-1388 
-1260 
-1243 
-1391 
-1326 
-1179 
-1196 
-1333 
-1407 
-1237 
-1216 
-1298 
-1416 
-1327 
-1260 
-1326 
-1432 
-1395 
-1330 
-1377 
-1456 
-1418 
-1283 
-1232 
-1366 
-1336 
-1228 
-1253 
-1368 
-1329 
-1159 
-1213 
-1338 
-1312 
-1193 
-1166 
-1272 
-1333 
-1263 
-1211 
-1322 
-1418 
-1349 
-962 
-955 
-1168 
-1152 
-1131 
-1192 
-1255 
-1165 
-1124 
-1124 
-1248 
-1223 
-1104 
-1069 
-1234 
-1229 
-1102 
-1084 
-1174 
-1248 
-1108 
-1042 
-1127 
-1273 
-1203 
-1172 
-1195 
-1309 
-1341 
-1237 
-1217 
-1361 
-1387 
-1194 
-1113 
-1370 
-1298 
-1193 
-1156 
-1173 
-1143 
-893 
-644 
-665 
-782 
-786 
-798 
-1147 
-1462 
-1489 
-1378 
-1361 
-1434 
-1294 
-1204 
-1274 
-1335 
-1282 
-1161 
-1212 
-1269 
-1301 
-1181 
-1150 
-1249 
-1255 
-1155 
-1083 
-1176 
-1284 
-1155 
-1047 
-1146 
-1239 
-1161 
-1068 
-1112 
-1242 
-1192 
-1094 
-1117 
-1265 
-1246 
-1126 
-1087 
-1182 
-1175 
-1091 
-1086 
-1159 
-1199 
-1058 
-975 
-1076 
-1178 
-1076 
-941 
-1008 
-1101 
-975 
-892 
-954 
-950 
-992 
-866 
-914 
-989 
-970 
-916 
-968 
-1114 
-1202 
-1071 
-1080 
-1174 
-1245 
-1226 
-1248 
-1574 
-1596 
-1406 
-1292 
-1394 
-1444 
-1338 
-1252 
-1316 
-1385 
-1296 
-1180 
-1150 
-1294 
-1348 
-1248 
-1189 
-1298 
-1306 
-1254 
-1184 
-1269 
-1347 
-1283 
-1218 
-1291 
-1342 
-1234 
-1155 
-1187 
-1372 
-1364 
-1211 
-1160 
-1277 
-1232 
-1184 
-1217 
-1300 
-1273 
-1152 
-1159 
-1310 
-1292 
-1171 
-1132 
-1241 
-1318 
-1195 
-1172 
-1218 
-1284 
-1223 
-829 
-888 
-1121 
-1070 
-1020 
-1151 
-1185 
-1160 
-1026 
-1015 
-1098 
-1192 
-1055 
-1063 
-1171 
-1138 
-1049 
-1027 
-1113 
-1131 
-1083 
-1006 
-1122 
-1217 
-1209 
-1071 
-1137 
-1261 
-1227 
-1052 
-1066 
-1277 
-1269 
-1148 
-1097 
-1216 
-1288 
-1103 
-1016 
-1051 
-1005 
-753 
-504 
-577 
-736 
-808 
-999 
-1305 
-1532 
-1457 
-1281 
-1269 
-1322 
-1256 
-1163 
-1142 
-1247 
-1268 
-1130 
-1160 
-1322 
-1282 
-1125 
-1047 
-1154 
-1221 
-1134 
-991 
-1117 
-1186 
-1076 
-1009 
-1047 
-1167 
-1122 
-1022 
-1052 
-1245 
-1208 
-1080 
-1063 
-1164 
-1143 
-1028 
-1009 
-1083 
-1180 
-1023 
-952 
-1075 
-1098 
-1049 
-920 
-985 
-1039 
-957 
-868 
-971 
-1000 
-957 
-876 
-905 
-1001 
-975 
-858 
-867 
-994 
-1020 
-932 
-948 
-1133 
-1445 
-1492 
-1290 
-1351 
-1392 
-1249 
-1212 
-1250 
-1378 
-1319 
-1144 
-1182 
-1301 
-1252 
-1085 
-1137 
-1278 
-1256 
-1155 
-1140 
-1210 
-1261 
-1134 
-1128 
-1197 
-1275 
-1151 
-1136 
-1199 
-1250 
-1230 
-1147 
-1195 
-1274 
-1230 
-1184 
-1217 
-1320 
-1332 
-1180 
-1094 
-1220 
-1223 
-1098 
-1095 
-1187 
-1272 
-1128 
-1052 
-1207 
-1101 
-699 
-711 
-918 
-1030 
-975 
-919 
-1072 
-1149 
-1111 
-1000 
-1050 
-1134 
-1117 
-1023 
-1034 
-1220 
-1191 
-1079 
-1018 
-1149 
-1191 
-984 
-962 
-1045 
-1044 
-983 
-933 
-1062 
-1151 
-1045 
-964 
-1111 
-1239 
-1088 
-1039 
-1111 
-1213 
-1171 
-1043 
-1064 
-1109 
-1227 
-1137 
-963 
-939 
-888 
-641 
-566 
-707 
-818 
-951 
-1131 
-1333 
-1446 
-1375 
-1147 
-1185 
-1166 
-1044 
-982 
-1043 
-1134 
-1112 
-1013 
-1035 
-1116 
-1178 
-1040 
-1029 
-1124 
-1214 
-1077 
-1059 
-1121 
-1224 
-1165 
-1061 
-1078 
-1143 
-1125 
-1019 
-1032 
-1101 
-1005 
-886 
-954 
-1100 
-1048 
-884 
-944 
-1076 
-1065 
-983 
-961 
-1030 
-1025 
-981 
-904 
-1000 
-1072 
-974 
-874 
-891 
-1022 
-922 
-758 
-823 
-983 
-941 
-827 
-758 
-884 
-876 
-780 
-887 
-1039 
-1272 
-1240 
-1131 
-1266 
-1368 
-1203 
-1115 
-1183 
-1289 
-1231 
-1122 
-1258 
-1369 
-1267 
-1103 
-1154 
-1271 
-1282 
-1109 
-1107 
-1218 
-1186 
-1030 
-1025 
-1127 
-1072 
-1007 
-1026 
-1112 
-1215 
-1087 
-956 
-1013 
-1085 
-1118 
-1088 
-1105 
-1252 
-1211 
-1099 
-1086 
-1212 
-1204 
-981 
-724 
-876 
-892 
-848 
-808 
-914 
-958 
-866 
-850 
-969 
-1043 
-996 
-919 
-1056 
-1126 
-1037 
-992 
-1075 
-1182 
-1132 
-1045 
-1119 
-1188 
-1171 
-1044 
-1033 
-1173 
-1205 
-1040 
-965 
-1075 
-1091 
-983 
-866 
-1029 
-1064 
-912 
-800 
-970 
-1024 
-1031 
-924 
-1040 
-1143 
-1109 
-1051 
-1065 
-1143 
-1195 
-1053 
-979 
-1202 
-1177 
-1094 
-1018 
-1087 
-960 
-758 
-651 
-684 
-752 
-580 
-565 
-911 
-1198 
-1223 
-1194 
-1241 
-1268 
-1170 
-1006 
-1049 
-1147 
-1118 
-1004 
-1020 
-1206 
-1186 
-1028 
-1027 
-1081 
-1108 
-975 
-932 
-1034 
-1063 
-1019 
-962 
-1018 
-1095 
-1020 
-864 
-909 
-1097 
-1074 
-944 
-906 
-1017 
-1045 
-926 
-949 
-1094 
-1074 
-902 
-928 
-951 
-1022 
-918 
-902 
-924 
-996 
-890 
-798 
-926 
-960 
-883 
-804 
-795 
-884 
-872 
-749 
-801 
-1225 
-1338 
-1091 
-941 
-1016 
-1120 
-1019 
-983 
-1113 
-1150 
-1079 
-1013 
-1168 
-1249 
-1166 
-1067 
-1182 
-1319 
-1272 
-1056 
-1134 
-1285 
-1231 
-1091 
-1056 
-1232 
-1244 
-1067 
-990 
-1103 
-1161 
-1017 
-954 
-1087 
-1124 
-1014 
-929 
-1030 
-1152 
-1097 
-1007 
-1015 
-1184 
-1145 
-1019 
-1105 
-1236 
-1153 
-1062 
-1089 
-1177 
-1130 
-786 
-713 
-914 
-882 
-831 
-875 
-881 
-1006 
-875 
-863 
-943 
-1073 
-937 
-820 
-938 
-1086 
-1038 
-911 
-1032 
-1139 
-1115 
-940 
-915 
-1076 
-1088 
-966 
-934 
-1091 
-1126 
-951 
-895 
-1010 
-1071 
-977 
-848 
-999 
-1136 
-1091 
-951 
-956 
-1065 
-1012 
-909 
-942 
-1034 
-1092 
-1016 
-1008 
-1159 
-1081 
-914 
-762 
-741 
-731 
-635 
-567 
-674 
-1017 
-1185 
-1210 
-1302 
-1341 
-1207 
-968 
-960 
-1035 
-1030 
-909 
-897 
-997 
-1015 
-917 
-926 
-1044 
-1077 
-1001 
-976 
-1152 
-1191 
-1019 
-923 
-1062 
-1140 
-1071 
-1001 
-1118 
-1103 
-971 
-859 
-930 
-1048 
-978 
-869 
-862 
-954 
-934 
-828 
-806 
-902 
-945 
-794 
-796 
-918 
-983 
-878 
-813 
-878 
-980 
-866 
-733 
-862 
-967 
-802 
-782 
-818 
-823 
-718 
-694 
-815 
-1145 
-1185 
-1059 
-953 
-1112 
-1187 
-1006 
-1003 
-1119 
-1194 
-1044 
-1017 
-1103 
-1199 
-1159 
-1091 
-1140 
-1238 
-1076 
-1038 
-1117 
-1183 
-1158 
-1039 
-1016 
-1107 
-1086 
-952 
-968 
-1093 
-1135 
-994 
-900 
-1076 
-1113 
-1011 
-911 
-1028 
-1169 
-1126 
-1001 
-1051 
-1165 
-1176 
-1004 
-999 
-1142 
-1071 
-991 
-957 
-1072 
-1062 
-978 
-909 
-1021 
-937 
-602 
-574 
-741 
-814 
-780 
-793 
-879 
-945 
-894 
-821 
-876 
-1055 
-1010 
-883 
-901 
-1026 
-1031 
-900 
-925 
-954 
-945 
-860 
-784 
-932 
-1036 
-884 
-781 
-906 
-1015 
-909 
-847 
-950 
-1042 
-982 
-880 
-963 
-1102 
-1052 
-908 
-794 
-763 
-660 
-468 
-513 
-587 
-696 
-964 
-1088 
-1282 
-1318 
-1191 
-1006 
-1030 
-1058 
-949 
-905 
-958 
-1029 
-987 
-854 
-896 
-1000 
-949 
-834 
-851 
-1047 
-1043 
-898 
-880 
-980 
-1018 
-921 
-958 
-997 
-1032 
-923 
-820 
-948 
-1018 
-953 
-874 
-908 
-1023 
-921 
-743 
-793 
-934 
-848 
-731 
-730 
-791 
-810 
-658 
-675 
-854 
-822 
-710 
-666 
-804 
-888 
-745 
-662 
-768 
-824 
-759 
-670 
-744 
-884 
-813 
-753 
-708 
-912 
-1210 
-1126 
-1119 
-1119 
-1143 
-979 
-942 
-1079 
-1163 
-1072 
-895 
-1040 
-1053 
-976 
-963 
-1030 
-1125 
-1085 
-967 
-1007 
-1155 
-1102 
-951 
-979 
-1148 
-1129 
-961 
-963 
-1049 
-1066 
-916 
-855 
-916 
-1004 
-954 
-863 
-916 
-1039 
-921 
-806 
-952 
-1060 
-964 
-890 
-996 
-1118 
-1041 
-820 
-572 
-736 
-799 
-654 
-684 
-832 
-956 
-774 
-698 
-843 
-946 
-862 
-762 
-765 
-854 
-798 
-754 
-844 
-938 
-842 
-805 
-885 
-947 
-934 
-786 
-791 
-932 
-948 
-914 
-900 
-907 
-873 
-694 
-528 
-517 
-541 
-543 
-533 
-767 
-1130 
-1174 
-1117 
-1104 
-1106 
-1000 
-856 
-881 
-968 
-887 
-765 
-838 
-967 
-906 
-815 
-816 
-975 
-1028 
-839 
-831 
-958 
-1004 
-868 
-811 
-899 
-1006 
-944 
-874 
-920 
-918 
-859 
-804 
-880 
-906 
-835 
-650 
-745 
-852 
-838 
-759 
-719 
-836 
-865 
-774 
-703 
-784 
-879 
-722 
-655 
-707 
-817 
-747 
-691 
-641 
-747 
-683 
-552 
-595 
-724 
-700 
-610 
-623 
-803 
-735 
-602 
-652 
-836 
-1213 
-1158 
-1009 
-1105 
-1098 
-1067 
-945 
-1019 
-1125 
-993 
-918 
-970 
-1121 
-1063 
-939 
-991 
-1041 
-1007 
-896 
-869 
-988 
-997 
-882 
-931 
-982 
-1022 
-892 
-824 
-891 
-929 
-824 
-769 
-906 
-970 
-920 
-808 
-866 
-1007 
-967 
-808 
-824 
-946 
-997 
-834 
-800 
-925 
-931 
-767 
-509 
-602 
-664 
-592 
-615 
-670 
-766 
-658 
-596 
-628 
-735 
-734 
-634 
-714 
-845 
-835 
-676 
-651 
-885 
-859 
-740 
-712 
-858 
-893 
-786 
-742 
-835 
-928 
-883 
-784 
-840 
-819 
-596 
-461 
-450 
-499 
-479 
-383 
-582 
-955 
-1076 
-960 
-890 
-967 
-950 
-824 
-756 
-852 
-938 
-806 
-800 
-882 
-897 
-810 
-833 
-935 
-982 
-834 
-778 
-876 
-878 
-830 
-693 
-688 
-800 
-842 
-697 
-682 
-826 
-787 
-632 
-616 
-711 
-759 
-749 
-687 
-734 
-778 
-720 
-718 
-796 
-819 
-760 
-614 
-672 
-761 
-733 
-564 
-570 
-671 
-627 
-523 
-477 
-580 
-597 
-523 
-419 
-503 
-639 
-590 
-842 
-1062 
-1015 
-912 
-828 
-910 
-1016 
-973 
-897 
-992 
-1021 
-995 
-893 
-925 
-965 
-959 
-890 
-908 
-968 
-956 
-889 
-812 
-927 
-935 
-777 
-654 
-827 
-942 
-847 
-721 
-795 
-1033 
-933 
-810 
-837 
-955 
-972 
-849 
-870 
-1012 
-1021 
-891 
-790 
-914 
-957 
-793 
-733 
-799 
-927 
-728 
-468 
-410 
-521 
-488 
-460 
-570 
-723 
-715 
-598 
-619 
-805 
-788 
-663 
-679 
-844 
-854 
-724 
-737 
-862 
-879 
-749 
-652 
-751 
-826 
-719 
-622 
-694 
-780 
-711 
-599 
-597 
-717 
-700 
-561 
-567 
-561 
-460 
-305 
-279 
-400 
-528 
-677 
-963 
-1179 
-1207 
-1022 
-849 
-886 
-933 
-830 
-709 
-693 
-756 
-682 
-581 
-662 
-778 
-684 
-537 
-621 
-722 
-754 
-575 
-618 
-761 
-764 
-693 
-692 
-803 
-817 
-781 
-746 
-785 
-864 
-719 
-605 
-698 
-843 
-738 
-509 
-556 
-684 
-663 
-515 
-537 
-625 
-571 
-512 
-533 
-602 
-563 
-445 
-425 
-545 
-623 
-569 
-475 
-550 
-647 
-594 
-535 
-513 
-683 
-670 
-720 
-923 
-1011 
-948 
-770 
-750 
-841 
-897 
-726 
-737 
-846 
-845 
-806 
-736 
-858 
-911 
-816 
-749 
-832 
-940 
-816 
-761 
-855 
-937 
-840 
-733 
-771 
-923 
-882 
-738 
-782 
-890 
-903 
-700 
-610 
-765 
-891 
-697 
-584 
-755 
-779 
-705 
-694 
-701 
-787 
-780 
-675 
-717 
-825 
-722 
-355 
-409 
-616 
-594 
-511 
-564 
-699 
-737 
-682 
-586 
-646 
-649 
-579 
-573 
-688 
-710 
-589 
-474 
-547 
-649 
-663 
-529 
-596 
-751 
-745 
-624 
-660 
-786 
-780 
-632 
-694 
-867 
-884 
-731 
-680 
-764 
-688 
-453 
-308 
-289 
-404 
-247 
-126 
-396 
-821 
-898 
-814 
-868 
-850 
-739 
-672 
-693 
-726 
-716 
-597 
-606 
-775 
-845 
-690 
-671 
-841 
-882 
-695 
-570 
-658 
-802 
-740 
-614 
-678 
-765 
-685 
-551 
-642 
-698 
-651 
-551 
-570 
-682 
-717 
-543 
-537 
-662 
-712 
-596 
-551 
-654 
-682 
-509 
-516 
-627 
-653 
-535 
-484 
-529 
-603 
-499 
-375 
-440 
-556 
-480 
-348 
-399 
-497 
-517 
-458 
-666 
-869 
-886 
-713 
-698 
-758 
-789 
-748 
-686 
-816 
-891 
-781 
-630 
-770 
-936 
-887 
-680 
-721 
-866 
-815 
-695 
-719 
-889 
-879 
-726 
-664 
-758 
-820 
-730 
-626 
-724 
-801 
-691 
-597 
-719 
-851 
-711 
-601 
-741 
-837 
-721 
-670 
-686 
-794 
-795 
-703 
-707 
-752 
-818 
-686 
-635 
-738 
-751 
-676 
-573 
-353 
-413 
-425 
-350 
-434 
-571 
-527 
-385 
-465 
-662 
-644 
-484 
-536 
-675 
-686 
-519 
-498 
-661 
-701 
-628 
-598 
-679 
-742 
-612 
-550 
-692 
-680 
-563 
-479 
-572 
-685 
-656 
-482 
-575 
-753 
-614 
-382 
-305 
-356 
-289 
-79 
-113 
-345 
-620 
-830 
-896 
-1037 
-941 
-736 
-715 
-747 
-769 
-654 
-515 
-543 
-723 
-594 
-476 
-538 
-638 
-584 
-425 
-530 
-671 
-575 
-447 
-520 
-690 
-723 
-649 
-579 
-693 
-768 
-599 
-593 
-628 
-711 
-703 
-541 
-593 
-645 
-513 
-398 
-432 
-584 
-590 
-408 
-354 
-455 
-411 
-308 
-308 
-433 
-481 
-344 
-318 
-494 
-489 
-419 
-358 
-423 
-508 
-426 
-410 
-465 
-543 
-538 
-730 
-887 
-894 
-788 
-715 
-678 
-793 
-734 
-573 
-570 
-681 
-769 
-660 
-602 
-755 
-781 
-675 
-604 
-660 
-823 
-724 
-618 
-624 
-788 
-759 
-670 
-679 
-841 
-827 
-633 
-589 
-754 
-749 
-526 
-499 
-639 
-684 
-603 
-514 
-637 
-658 
-527 
-473 
-624 
-763 
-657 
-514 
-608 
-772 
-695 
-614 
-444 
-402 
-481 
-353 
-360 
-506 
-543 
-463 
-414 
-482 
-512 
-454 
-395 
-453 
-578 
-465 
-416 
-472 
-561 
-522 
-452 
-534 
-666 
-609 
-487 
-479 
-659 
-697 
-578 
-570 
-685 
-570 
-344 
-203 
-230 
-194 
-56 
-109 
-399 
-691 
-784 
-784 
-831 
-797 
-716 
-567 
-482 
-574 
-553 
-488 
-435 
-514 
-607 
-516 
-453 
-648 
-654 
-585 
-506 
-552 
-723 
-602 
-524 
-590 
-674 
-588 
-505 
-549 
-601 
-528 
-388 
-413 
-504 
-504 
-404 
-340 
-431 
-507 
-408 
-344 
-508 
-515 
-431 
-379 
-433 
-557 
-460 
-440 
-523 
-550 
-473 
-316 
-283 
-400 
-379 
-261 
-262 
-361 
-338 
-244 
-278 
-358 
-339 
-330 
-325 
-404 
-502 
-434 
-445 
-673 
-1096 
-931 
-780 
-835 
-915 
-822 
-732 
-757 
-821 
-808 
-671 
-650 
-717 
-669 
-562 
-561 
-645 
-659 
-518 
-448 
-570 
-639 
-558 
-470 
-563 
-660 
-557 
-475 
-644 
-754 
-696 
-664 
-639 
-778 
-710 
-617 
-613 
-729 
-685 
-576 
-557 
-619 
-635 
-529 
-471 
-584 
-631 
-454 
-359 
-434 
-577 
-529 
-413 
-468 
-585 
-551 
-427 
-517 
-674 
-594 
-247 
-307 
-459 
-432 
-378 
-389 
-572 
-618 
-489 
-435 
-529 
-535 
-439 
-353 
-382 
-439 
-337 
-194 
-110 
-99 
-56 
66 
-90 
-330 
-586 
-639 
-770 
-844 
-765 
-576 
-547 
-686 
-677 
-567 
-493 
-640 
-712 
-537 
-389 
-461 
-577 
-511 
-436 
-428 
-471 
-420 
-342 
-386 
-494 
-501 
-356 
-341 
-460 
-499 
-441 
-428 
-508 
-571 
-479 
-447 
-618 
-602 
-460 
-415 
-543 
-591 
-445 
-316 
-309 
-416 
-329 
-172 
-221 
-403 
-339 
-86 
-110 
-272 
-312 
-128 
-134 
-334 
-374 
-270 
-247 
-309 
-414 
-404 
-432 
-417 
-554 
-531 
-437 
-487 
-579 
-526 
-408 
-398 
-556 
-522 
-296 
-341 
-568 
-517 
-515 
-712 
-777 
-804 
-638 
-575 
-702 
-769 
-596 
-545 
-640 
-729 
-717 
-642 
-595 
-672 
-725 
-618 
-554 
-636 
-619 
-506 
-495 
-561 
-590 
-514 
-475 
-538 
-592 
-556 
-500 
-494 
-600 
-564 
-469 
-520 
-690 
-675 
-560 
-555 
-705 
-640 
-518 
-529 
-632 
-660 
-444 
-414 
-574 
-583 
-455 
-411 
-522 
-631 
-497 
-412 
-478 
-608 
-526 
-404 
-471 
-586 
-578 
-438 
-455 
-428 
-172 
-188 
-188 
-270 
-227 
-20 
79 
-47 
-35 
-12 
-248 
-623 
-769 
-684 
-506 
-519 
-620 
-438 
-293 
-396 
-479 
-461 
-335 
-375 
-442 
-416 
-395 
-430 
-505 
-504 
-392 
-379 
-530 
-595 
-471 
-399 
-478 
-550 
-480 
-354 
-460 
-494 
-409 
-341 
-405 
-501 
-408 
-265 
-272 
-395 
-391 
-301 
-292 
-361 
-397 
-215 
-186 
-401 
-438 
-248 
-220 
-325 
-375 
-247 
-198 
-300 
-394 
-336 
-285 
-350 
-338 
-291 
-164 
-229 
-364 
-319 
-221 
-316 
-429 
-430 
-320 
-312 
-473 
-556 
-385 
-360 
-494 
-541 
-466 
-381 
-540 
-683 
-504 
-351 
-461 
-648 
-577 
-438 
-430 
-540 
-525 
-386 
-379 
-527 
-658 
-663 
-614 
-655 
-710 
-618 
-462 
-549 
-671 
-563 
-485 
-608 
-708 
-656 
-527 
-553 
-671 
-636 
-567 
-563 
-660 
-712 
-564 
-468 
-578 
-577 
-454 
-350 
-433 
-556 
-457 
-308 
-376 
-513 
-388 
-330 
-402 
-528 
-489 
-431 
-467 
-556 
-576 
-502 
-588 
-696 
-635 
-514 
-480 
-618 
-687 
-582 
-439 
-485 
-535 
-424 
-320 
-449 
-509 
-377 
-163 
-142 
-183 
-45 
135 
96 
-119 
-369 
-523 
-691 
-861 
-829 
-635 
-521 
-668 
-670 
-530 
-424 
-521 
-599 
-504 
-346 
-398 
-553 
-445 
-288 
-279 
-429 
-451 
-310 
-346 
-479 
-531 
-445 
-397 
-462 
-507 
-415 
-402 
-517 
-602 
-451 
-369 
-466 
-519 
-436 
-352 
-387 
-454 
-316 
-271 
-310 
-399 
-302 
-141 
-105 
-308 
-325 
-140 
-126 
-248 
-275 
-167 
-165 
-292 
-348 
-230 
-173 
-250 
-366 
-344 
-260 
-337 
-488 
-440 
-349 
-385 
-499 
-460 
-363 
-384 
-456 
-418 
-310 
-331 
-492 
-506 
-337 
-251 
-387 
-508 
-399 
-292 
-378 
-487 
-411 
-308 
-432 
-561 
-522 
-377 
-417 
-585 
-588 
-427 
-397 
-491 
-486 
-350 
-351 
-433 
-461 
-332 
-310 
-385 
-433 
-345 
-252 
-370 
-513 
-388 
-285 
-413 
-579 
-488 
-381 
-430 
-583 
-548 
-466 
-490 
-473 
-393 
-351 
-397 
-497 
-411 
-289 
-256 
-371 
-383 
-242 
-187 
-351 
-496 
-436 
-350 
-392 
-503 
-435 
-366 
-409 
-548 
-566 
-439 
-458 
-573 
-520 
-332 
-192 
-182 
-104 
49 
112 
14 
-325 
-501 
-608 
-669 
-667 
-496 
-377 
-412 
-514 
-487 
-376 
-339 
-564 
-549 
-395 
-328 
-489 
-503 
-352 
-392 
-459 
-568 
-399 
-265 
-336 
-498 
-432 
-321 
-370 
-369 
-261 
-225 
-334 
-368 
-342 
-177 
-210 
-385 
-355 
-207 
-198 
-326 
-390 
-238 
-215 
-293 
-340 
-254 
-208 
-262 
-304 
-266 
-136 
-126 
-239 
-155 
-57 
-114 
-264 
-171 
-61 
-136 
-248 
-181 
-117 
-131 
-212 
-346 
-280 
-239 
-314 
-337 
-295 
-266 
-383 
-512 
-410 
-283 
-417 
-567 
-499 
-311 
-403 
-509 
-481 
-353 
-338 
-456 
-466 
-372 
-276 
-317 
-417 
-301 
-224 
-338 
-418 
-390 
-235 
-310 
-388 
-358 
-295 
-335 
-458 
-458 
-433 
-431 
-447 
-439 
-390 
-422 
-498 
-459 
-357 
-288 
-407 
-498 
-359 
-242 
-260 
-339 
-240 
-181 
-213 
-354 
-328 
-219 
-273 
-443 
-474 
-337 
-412 
-494 
-523 
-395 
-387 
-529 
-557 
-484 
-353 
-362 
-321 
-157 
-14 
153 
85 
130 
64 
-310 
-610 
-611 
-475 
-502 
-557 
-461 
-323 
-367 
-503 
-468 
-329 
-344 
-462 
-518 
-434 
-359 
-457 
-492 
-325 
-266 
-337 
-464 
-380 
-271 
-218 
-328 
-287 
-226 
-236 
-303 
-276 
-145 
-218 
-376 
-307 
-206 
-218 
-401 
-417 
-273 
-272 
-285 
-383 
-278 
-215 
-274 
-360 
-178 
-125 
-186 
-250 
-145 
-28 
-41 
-151 
-154 
-34 
-50 
-178 
-139 
-40 
-33 
-207 
-321 
-227 
-205 
-333 
-346 
-339 
-298 
-412 
-553 
-438 
-319 
-313 
-451 
-368 
-289 
-311 
-405 
-357 
-218 
-270 
-365 
-349 
-230 
-172 
-348 
-334 
-221 
-190 
-353 
-397 
-311 
-206 
-320 
-431 
-377 
-314 
-362 
-436 
-377 
-299 
-441 
-531 
-454 
-320 
-257 
-395 
-427 
-321 
-191 
-292 
-398 
-283 
-145 
-226 
-330 
-204 
-93 
-216 
-318 
-289 
-223 
-244 
-433 
-370 
-248 
-321 
-495 
-433 
-330 
-340 
-460 
-456 
-280 
-264 
-364 
-333 
-237 
-249 
-266 
-310 
-208 
-4 
6 
21 
60 
152 
119 
-185 
-429 
-485 
-566 
-709 
-570 
-373 
-369 
-399 
-398 
-261 
-293 
-429 
-465 
-225 
-195 
-302 
-345 
-263 
-164 
-260 
-371 
-363 
-191 
-208 
-331 
-306 
-244 
-282 
-378 
-366 
-259 
-230 
-333 
-397 
-234 
-121 
-286 
-395 
-247 
-129 
-287 
-351 
-143 
-90 
-210 
-284 
-194 
-56 
-70 
-171 
-132 
-3 
-42 
-243 
-186 
-34 
-5 
-98 
-163 
-42 
15 
-158 
-250 
-177 
-99 
-228 
-344 
-297 
-198 
-268 
-473 
-399 
-211 
-236 
-386 
-318 
-232 
-221 
-333 
-352 
-195 
-117 
-290 
-343 
-220 
-152 
-294 
-386 
-315 
-165 
-311 
-432 
-387 
-265 
-300 
-466 
-431 
-324 
-289 
-386 
-362 
-234 
-252 
-372 
-347 
-232 
-239 
-280 
-272 
-169 
-161 
-276 
-350 
-281 
-198 
-287 
-394 
-345 
-231 
-331 
-370 
-311 
-243 
-290 
-389 
-341 
-219 
-192 
-353 
-422 
-274 
-186 
-306 
-419 
-283 
-190 
-289 
-298 
-229 
-201 
-316 
-347 
-232 
-109 
-112 
-123 
11 
180 
191 
68 
-32 
-175 
-355 
-607 
-650 
-427 
-373 
-369 
-384 
-282 
-180 
-237 
-342 
-241 
-125 
-222 
-319 
-223 
-120 
-183 
-343 
-290 
-158 
-172 
-310 
-283 
-237 
-272 
-331 
-371 
-219 
-194 
-294 
-349 
-292 
-224 
-223 
-281 
-216 
-100 
-113 
-239 
-184 
20 
10 
-169 
-100 
32 
-8 
-142 
-170 
-72 
-31 
-95 
-128 
-73 
-85 
-166 
-192 
-94 
-58 
-181 
-261 
-128 
-100 
-115 
-258 
-203 
-70 
-90 
-224 
-237 
-113 
-73 
-208 
-255 
-137 
-110 
-336 
-320 
-217 
-174 
-337 
-437 
-319 
-281 
-370 
-453 
-349 
-230 
-299 
-411 
-342 
-187 
-204 
-298 
-265 
-135 
-127 
-251 
-194 
-60 
-85 
-248 
-266 
-173 
-188 
-313 
-384 
-334 
-225 
-284 
-418 
-380 
-277 
-300 
-470 
-378 
-227 
-170 
-291 
-312 
-140 
-125 
-248 
-232 
-32 
-18 
-167 
-255 
-132 
-56 
-192 
-264 
-272 
-246 
-347 
-377 
-330 
-242 
-306 
-433 
-341 
-238 
-269 
-395 
-330 
-144 
-3 
19 
164 
318 
406 
317 
126 
-60 
-214 
-450 
-581 
-357 
-200 
-290 
-414 
-310 
-172 
-264 
-371 
-438 
-271 
-273 
-307 
-369 
-264 
-240 
-315 
-287 
-134 
-88 
-203 
-200 
-54 
33 
-148 
-249 
-93 
65 
-91 
-252 
-215 
-79 
-148 
-290 
-248 
-176 
-236 
-310 
-242 
-130 
-178 
-254 
-248 
-187 
-86 
-107 
-142 
-21 
83 
38 
15 
80 
176 
122 
57 
128 
170 
50 
-80 
-46 
38 
-66 
-240 
-277 
-162 
-245 
-408 
-419 
-239 
-230 
-358 
-405 
-327 
-256 
-249 
-236 
-169 
-104 
-119 
-190 
-105 
24 
-38 
-155 
-173 
-42 
-99 
-249 
-270 
-177 
-217 
-346 
-352 
-249 
-276 
-415 
-530 
-371 
-200 
-295 
-346 
-258 
-196 
-272 
-291 
-217 
-123 
-77 
-176 
-159 
-38 
-27 
-172 
-219 
-102 
-87 
-220 
-270 
-221 
-179 
-259 
-336 
-273 
-296 
-356 
-497 
-384 
-244 
-282 
-333 
-255 
-150 
-187 
-266 
-194 
-58 
-5 
-165 
-141 
76 
276 
191 
186 
324 
342 
85 
-315 
-459 
-532 
-631 
-641 
-522 
-366 
-361 
-436 
-392 
-225 
-166 
-264 
-263 
-96 
-87 
-171 
-181 
-41 
-29 
-109 
-149 
-79 
-22 
-156 
-229 
-180 
-119 
-238 
-376 
-309 
-186 
-243 
-382 
-368 
-152 
-141 
-258 
-246 
-116 
-90 
-189 
-94 
56 
89 
-26 
-24 
95 
151 
35 
-77 
-21 
79 
-26 
-147 
-67 
23 
-74 
-141 
-85 
-27 
-63 
-169 
-193 
-90 
-102 
-208 
-214 
-92 
-48 
-199 
-237 
-162 
-32 
-161 
-286 
-224 
-19 
-122 
-314 
-271 
-52 
-134 
-339 
-289 
-125 
-187 
-306 
-289 
-232 
-194 
-263 
-275 
-218 
-231 
-271 
-303 
-175 
-114 
-179 
-272 
-205 
-53 
-118 
-237 
-209 
-103 
-120 
-156 
-166 
-90 
-86 
-233 
-244 
-149 
-97 
-264 
-276 
-157 
-139 
-269 
-347 
-233 
-204 
-288 
-333 
-273 
-183 
-205 
-237 
-186 
-49 
-150 
-186 
-137 
-68 
-32 
-87 
14 
182 
326 
164 
43 
108 
-50 
-474 
-611 
-518 
-384 
-426 
-486 
-355 
-167 
-184 
-315 
-185 
-52 
-174 
-269 
-217 
-55 
-36 
-110 
-127 
-39 
-89 
-200 
-213 
-119 
-60 
-147 
-234 
-223 
-147 
-193 
-313 
-265 
-151 
-139 
-220 
-222 
-83 
-40 
-131 
-146 
-64 
60 
10 
-48 
3 
129 
17 
-24 
98 
108 
-22 
-25 
70 
83 
-38 
-114 
-64 
33 
7 
-156 
-101 
21 
-36 
-127 
-130 
-10 
-21 
-167 
-161 
-51 
-7 
-156 
-185 
-53 
-4 
-147 
-238 
-179 
-123 
-159 
-250 
-257 
-147 
-223 
-328 
-233 
-131 
-164 
-265 
-267 
-143 
-115 
-197 
-218 
-53 
-22 
-127 
-217 
-119 
-9 
-116 
-175 
-103 
-21 
-118 
-225 
-182 
-64 
-120 
-247 
-230 
-70 
-89 
-220 
-297 
-144 
-81 
-172 
-206 
-109 
-37 
-188 
-221 
-139 
10 
-143 
-209 
-165 
-27 
-44 
-164 
-129 
-70 
-87 
-200 
-200 
-76 
-45 
-118 
-41 
162 
294 
194 
194 
204 
21 
-297 
-493 
-421 
-226 
-234 
-251 
-153 
-79 
-137 
-175 
-140 
1 
-60 
-172 
-151 
-51 
-25 
-195 
-233 
-40 
-26 
-159 
-195 
-12 
8 
-133 
-236 
-141 
-7 
-66 
-144 
-107 
6 
-34 
-158 
-86 
19 
-27 
-118 
-51 
66 
43 
-46 
-19 
51 
59 
18 
43 
114 
181 
46 
-28 
84 
218 
144 
-15 
117 
157 
99 
-88 
-73 
92 
61 
-84 
-82 
-15 
-7 
-75 
-117 
-27 
71 
-70 
-148 
-69 
15 
-13 
-113 
-66 
-19 
-74 
-197 
-185 
-65 
-165 
-275 
-177 
-26 
-87 
-197 
-184 
-1 
-59 
-135 
-110 
-2 
44 
-80 
-132 
-14 
66 
-72 
-153 
-78 
7 
-51 
-146 
-133 
-9 
-58 
-283 
-189 
24 
-47 
-230 
-182 
2 
2 
-175 
-138 
17 
16 
-96 
-135 
-36 
48 
-25 
-109 
-69 
-24 
-18 
-100 
-122 
-20 
-35 
-141 
-147 
-57 
-62 
-177 
-127 
57 
229 
207 
220 
327 
380 
172 
-177 
-275 
-221 
-219 
-240 
-141 
34 
19 
-85 
-45 
29 
-19 
-92 
-113 
13 
-22 
-124 
-136 
-62 
-21 
-189 
-169 
5 
63 
-84 
-240 
-76 
108 
-43 
-115 
-32 
46 
37 
-33 
-37 
100 
122 
11 
15 
116 
108 
38 
35 
130 
157 
24 
-4 
91 
239 
99 
24 
99 
217 
150 
77 
144 
192 
193 
116 
152 
320 
267 
65 
20 
162 
162 
41 
-2 
59 
81 
-28 
-58 
55 
78 
-72 
-150 
-77 
5 
-3 
-158 
-97 
-7 
-74 
-171 
-82 
57 
86 
-68 
-19 
85 
87 
23 
12 
105 
124 
-28 
-43 
66 
127 
0 
-140 
-76 
-11 
-42 
-166 
-90 
22 
-126 
-205 
-173 
-4 
43 
-77 
-95 
23 
63 
13 
14 
149 
205 
90 
13 
125 
204 
138 
-36 
46 
83 
0 
-146 
-91 
-44 
-87 
-156 
-122 
-22 
-57 
-123 
-62 
61 
59 
-85 
-73 
114 
229 
237 
312 
542 
650 
577 
406 
155 
-5 
-132 
-310 
-213 
8 
-7 
-89 
-87 
-4 
67 
-98 
-128 
49 
73 
-74 
-66 
73 
174 
48 
-18 
101 
139 
57 
-44 
140 
221 
127 
10 
27 
141 
154 
39 
87 
201 
169 
29 
91 
203 
178 
25 
-24 
121 
278 
180 
33 
120 
240 
197 
98 
259 
393 
306 
182 
278 
402 
361 
231 
230 
365 
373 
212 
197 
274 
286 
113 
13 
93 
167 
52 
-8 
35 
142 
44 
-57 
16 
135 
113 
10 
66 
200 
181 
73 
114 
238 
229 
102 
77 
176 
218 
44 
-8 
88 
151 
-13 
-89 
-30 
55 
-19 
-57 
-8 
90 
76 
2 
59 
168 
106 
20 
43 
154 
185 
140 
119 
208 
215 
90 
32 
174 
224 
118 
12 
83 
195 
65 
-63 
-9 
137 
65 
-18 
6 
119 
84 
-4 
33 
134 
69 
45 
163 
226 
231 
95 
52 
163 
238 
275 
289 
481 
643 
581 
447 
417 
278 
-58 
-342 
-356 
-176 
-81 
-110 
-34 
120 
178 
93 
39 
145 
209 
169 
152 
228 
332 
123 
49 
160 
283 
258 
66 
88 
167 
176 
-34 
17 
153 
148 
107 
30 
154 
227 
84 
82 
190 
270 
173 
135 
282 
426 
293 
191 
307 
366 
333 
277 
309 
414 
395 
263 
303 
422 
377 
225 
241 
402 
376 
239 
199 
301 
299 
191 
113 
218 
311 
248 
178 
159 
242 
232 
159 
150 
252 
254 
138 
124 
270 
261 
114 
73 
133 
148 
119 
35 
108 
199 
26 
1 
110 
186 
165 
17 
38 
200 
175 
98 
187 
276 
252 
136 
120 
242 
262 
154 
112 
210 
224 
79 
67 
149 
152 
43 
-14 
75 
189 
146 
62 
157 
268 
191 
61 
104 
278 
315 
149 
127 
221 
259 
134 
21 
195 
272 
121 
6 
146 
197 
131 
192 
438 
578 
536 
421 
454 
375 
92 
-178 
-202 
-11 
47 
-6 
83 
217 
253 
168 
167 
193 
256 
142 
85 
234 
258 
161 
92 
160 
231 
160 
-11 
121 
258 
223 
118 
104 
173 
225 
192 
188 
278 
314 
192 
171 
318 
351 
268 
220 
298 
315 
295 
194 
312 
416 
381 
282 
341 
456 
382 
216 
294 
535 
481 
341 
299 
386 
422 
320 
392 
758 
735 
531 
498 
536 
494 
412 
321 
337 
407 
364 
215 
315 
441 
311 
180 
226 
397 
327 
162 
205 
309 
252 
111 
-13 
-150 
-1 
-57 
-88 
41 
130 
78 
12 
184 
261 
246 
143 
158 
306 
286 
149 
135 
291 
226 
50 
74 
183 
200 
48 
-4 
183 
241 
116 
70 
205 
242 
160 
112 
269 
348 
277 
216 
236 
383 
382 
247 
263 
319 
298 
177 
125 
267 
252 
124 
69 
156 
264 
158 
34 
123 
273 
219 
196 
373 
584 
595 
572 
673 
737 
470 
200 
371 
429 
447 
301 
292 
421 
495 
386 
269 
379 
431 
315 
228 
279 
360 
292 
186 
214 
362 
354 
266 
284 
367 
413 
295 
272 
408 
424 
361 
371 
380 
480 
415 
329 
378 
468 
381 
294 
376 
458 
374 
261 
348 
456 
445 
301 
405 
544 
500 
402 
412 
507 
613 
492 
483 
644 
698 
525 
412 
494 
580 
443 
343 
406 
446 
346 
234 
291 
427 
373 
188 
186 
347 
403 
231 
189 
312 
304 
-100 
-132 
75 
223 
104 
27 
155 
271 
204 
121 
208 
252 
222 
93 
179 
318 
274 
137 
132 
163 
206 
130 
115 
275 
303 
192 
175 
240 
307 
251 
161 
257 
388 
311 
140 
268 
375 
325 
207 
291 
398 
374 
189 
233 
417 
350 
203 
228 
321 
614 
635 
443 
456 
530 
456 
308 
369 
459 
377 
352 
448 
495 
418 
327 
421 
574 
542 
548 
614 
792 
868 
747 
732 
725 
478 
142 
7 
137 
173 
85 
148 
247 
336 
304 
206 
253 
443 
373 
294 
351 
511 
453 
390 
420 
547 
551 
404 
372 
460 
524 
381 
255 
328 
367 
320 
210 
298 
422 
296 
168 
307 
456 
455 
351 
298 
545 
542 
454 
514 
610 
635 
539 
531 
734 
738 
568 
513 
668 
690 
522 
384 
470 
558 
498 
407 
406 
453 
394 
304 
360 
474 
385 
308 
268 
156 
88 
73 
126 
242 
279 
195 
177 
280 
385 
298 
159 
250 
344 
214 
136 
220 
277 
182 
133 
166 
282 
265 
61 
80 
296 
305 
200 
239 
326 
395 
280 
216 
365 
466 
448 
362 
365 
387 
331 
216 
296 
407 
337 
172 
193 
291 
256 
148 
178 
281 
334 
526 
541 
547 
598 
513 
437 
521 
567 
602 
510 
528 
588 
550 
383 
406 
537 
514 
319 
410 
477 
418 
278 
255 
369 
385 
249 
185 
399 
591 
514 
549 
746 
935 
935 
717 
571 
395 
259 
127 
266 
453 
434 
349 
392 
535 
497 
326 
335 
463 
447 
318 
277 
310 
436 
373 
245 
364 
491 
351 
256 
320 
435 
371 
345 
428 
544 
510 
439 
437 
552 
581 
539 
510 
586 
625 
475 
376 
502 
612 
549 
391 
415 
491 
513 
451 
510 
594 
565 
533 
594 
627 
671 
594 
596 
701 
719 
598 
484 
295 
283 
201 
211 
379 
414 
288 
196 
316 
310 
235 
156 
191 
290 
262 
131 
186 
316 
282 
172 
199 
355 
425 
414 
342 
387 
431 
389 
305 
391 
549 
401 
292 
349 
436 
341 
201 
277 
376 
324 
219 
306 
374 
325 
229 
166 
324 
354 
308 
234 
348 
469 
389 
390 
483 
653 
808 
658 
697 
745 
629 
470 
564 
715 
542 
387 
450 
562 
535 
346 
333 
427 
430 
371 
310 
446 
527 
449 
360 
476 
545 
488 
392 
413 
553 
566 
455 
704 
953 
972 
833 
900 
888 
656 
253 
36 
124 
253 
187 
224 
362 
438 
343 
297 
378 
515 
453 
309 
488 
556 
526 
440 
444 
561 
532 
443 
520 
586 
532 
407 
392 
496 
492 
371 
318 
417 
518 
394 
256 
377 
502 
409 
377 
448 
522 
534 
447 
557 
605 
643 
616 
659 
710 
733 
657 
617 
765 
813 
649 
499 
678 
706 
564 
453 
594 
710 
559 
389 
414 
401 
121 
89 
146 
295 
348 
253 
178 
369 
471 
346 
299 
436 
428 
299 
259 
407 
522 
354 
285 
335 
436 
367 
214 
264 
458 
393 
210 
245 
365 
381 
235 
226 
384 
400 
296 
311 
465 
523 
383 
321 
409 
509 
469 
355 
455 
572 
460 
288 
393 
551 
754 
734 
671 
736 
676 
516 
489 
584 
618 
455 
363 
478 
554 
403 
416 
507 
563 
470 
417 
511 
597 
521 
444 
433 
540 
584 
474 
528 
729 
828 
753 
753 
921 
855 
552 
222 
210 
204 
139 
161 
323 
443 
412 
347 
428 
587 
507 
378 
463 
623 
600 
436 
447 
486 
470 
398 
418 
473 
528 
448 
402 
469 
573 
430 
368 
481 
597 
553 
469 
532 
601 
606 
527 
582 
730 
637 
528 
547 
708 
719 
558 
542 
680 
668 
602 
534 
684 
786 
650 
607 
662 
741 
669 
591 
639 
739 
652 
473 
526 
636 
267 
155 
246 
385 
392 
248 
275 
437 
438 
324 
262 
377 
453 
346 
230 
350 
449 
300 
192 
266 
417 
422 
249 
253 
391 
424 
315 
392 
558 
563 
450 
355 
523 
597 
485 
440 
518 
548 
414 
349 
493 
589 
451 
242 
367 
510 
420 
244 
605 
1007 
818 
615 
580 
733 
712 
628 
622 
708 
783 
703 
576 
721 
775 
561 
439 
533 
650 
583 
385 
487 
573 
471 
354 
398 
512 
601 
414 
370 
559 
562 
525 
579 
883 
1009 
906 
897 
974 
937 
630 
224 
207 
486 
469 
399 
461 
543 
536 
418 
430 
512 
476 
399 
382 
535 
556 
452 
364 
460 
560 
527 
525 
588 
667 
613 
541 
665 
762 
719 
570 
643 
670 
626 
491 
446 
580 
670 
475 
397 
606 
653 
525 
492 
622 
720 
599 
506 
678 
778 
774 
695 
786 
883 
823 
708 
808 
874 
784 
719 
599 
394 
437 
263 
247 
379 
434 
360 
334 
373 
386 
389 
292 
349 
446 
426 
321 
380 
507 
485 
378 
357 
576 
514 
371 
403 
547 
564 
406 
380 
488 
496 
376 
399 
486 
514 
437 
376 
471 
513 
380 
266 
447 
637 
535 
381 
435 
565 
533 
512 
797 
845 
856 
699 
634 
741 
768 
595 
533 
660 
709 
596 
520 
617 
717 
637 
537 
593 
653 
623 
464 
495 
609 
597 
503 
460 
612 
660 
595 
571 
672 
701 
582 
494 
573 
702 
662 
682 
882 
1034 
994 
873 
881 
760 
522 
195 
187 
417 
518 
416 
417 
577 
657 
576 
507 
582 
657 
565 
517 
630 
739 
629 
502 
564 
705 
529 
493 
489 
638 
622 
483 
564 
681 
593 
459 
478 
660 
720 
541 
528 
673 
717 
536 
508 
649 
775 
740 
628 
736 
766 
758 
665 
691 
830 
804 
729 
750 
832 
785 
652 
622 
796 
793 
613 
577 
665 
527 
229 
213 
380 
469 
416 
310 
469 
647 
560 
383 
452 
592 
567 
430 
432 
557 
462 
333 
381 
497 
475 
410 
366 
465 
515 
347 
248 
427 
532 
469 
392 
492 
595 
541 
471 
556 
668 
667 
542 
545 
659 
657 
508 
505 
623 
555 
476 
461 
462 
574 
637 
772 
778 
846 
729 
635 
684 
729 
708 
674 
768 
854 
838 
723 
736 
867 
878 
706 
678 
749 
810 
643 
502 
599 
707 
589 
465 
542 
653 
537 
375 
502 
672 
663 
672 
850 
1077 
1164 
1086 
1122 
1053 
796 
425 
343 
509 
621 
551 
468 
614 
751 
634 
547 
635 
707 
608 
515 
555 
584 
563 
410 
508 
655 
704 
550 
534 
641 
765 
610 
576 
748 
809 
682 
691 
817 
893 
851 
664 
721 
835 
733 
580 
633 
811 
765 
562 
640 
794 
788 
582 
631 
863 
834 
779 
768 
907 
990 
886 
879 
988 
1005 
897 
839 
907 
950 
731 
303 
399 
533 
490 
336 
312 
500 
536 
349 
332 
478 
559 
456 
381 
551 
668 
595 
477 
626 
712 
673 
495 
579 
698 
639 
480 
576 
626 
568 
442 
504 
620 
588 
516 
475 
543 
639 
563 
477 
613 
745 
652 
531 
634 
751 
702 
612 
686 
1179 
1124 
889 
869 
982 
927 
800 
795 
908 
960 
764 
707 
823 
827 
698 
612 
696 
794 
660 
607 
722 
785 
753 
618 
676 
821 
798 
808 
987 
1190 
1176 
1051 
1052 
965 
751 
444 
368 
466 
573 
558 
517 
662 
827 
685 
623 
699 
781 
689 
569 
655 
802 
712 
612 
680 
760 
797 
676 
630 
834 
867 
793 
699 
819 
927 
822 
766 
863 
944 
851 
729 
830 
902 
842 
663 
740 
884 
797 
660 
725 
867 
821 
714 
792 
852 
857 
812 
845 
965 
1049 
963 
884 
1024 
1084 
1020 
855 
967 
1063 
916 
756 
799 
850 
584 
282 
312 
449 
464 
330 
300 
493 
572 
431 
405 
592 
652 
585 
529 
689 
772 
666 
620 
729 
827 
747 
654 
699 
803 
766 
559 
590 
691 
736 
540 
447 
534 
641 
512 
461 
637 
741 
577 
604 
742 
879 
743 
651 
818 
1025 
1233 
1058 
1076 
1199 
1085 
904 
916 
970 
895 
707 
731 
798 
736 
618 
586 
685 
805 
657 
550 
683 
807 
752 
711 
948 
1242 
1266 
1187 
1264 
1301 
1115 
741 
536 
593 
655 
547 
603 
721 
704 
575 
544 
777 
788 
617 
513 
641 
813 
694 
613 
700 
816 
745 
677 
765 
890 
877 
785 
807 
936 
938 
769 
767 
891 
930 
761 
719 
861 
890 
760 
705 
813 
857 
796 
668 
744 
904 
944 
839 
829 
982 
991 
870 
912 
1092 
1078 
958 
971 
1114 
1113 
932 
896 
961 
1028 
899 
784 
735 
468 
480 
430 
541 
580 
576 
455 
477 
650 
700 
540 
520 
676 
767 
603 
549 
663 
842 
706 
661 
743 
798 
652 
619 
686 
773 
700 
599 
716 
763 
695 
559 
583 
679 
742 
608 
580 
748 
770 
691 
699 
765 
809 
710 
760 
959 
1331 
1168 
1011 
1058 
1103 
1010 
839 
897 
960 
889 
742 
788 
878 
895 
777 
720 
818 
846 
668 
707 
809 
846 
808 
719 
885 
1131 
1158 
1078 
1189 
1364 
1164 
829 
679 
643 
552 
540 
642 
814 
827 
653 
649 
837 
873 
677 
631 
814 
819 
713 
716 
750 
892 
827 
682 
802 
904 
859 
747 
822 
977 
927 
760 
848 
988 
960 
847 
775 
911 
982 
802 
731 
862 
976 
823 
714 
810 
963 
868 
784 
897 
1021 
940 
894 
989 
1106 
1081 
956 
1030 
1183 
1181 
995 
969 
1124 
1096 
775 
441 
605 
654 
549 
470 
552 
724 
620 
493 
590 
701 
681 
575 
620 
716 
673 
594 
668 
890 
844 
725 
719 
790 
860 
722 
670 
804 
810 
705 
618 
691 
843 
733 
563 
614 
751 
676 
572 
659 
855 
783 
620 
653 
805 
901 
780 
748 
1089 
1367 
1163 
1048 
1111 
1137 
1022 
982 
1010 
985 
877 
800 
853 
963 
849 
657 
745 
878 
816 
716 
752 
822 
902 
790 
824 
950 
1076 
1099 
1061 
1247 
1379 
1351 
1192 
1002 
858 
713 
599 
675 
812 
776 
685 
725 
816 
847 
689 
696 
837 
891 
723 
665 
795 
918 
807 
751 
913 
1004 
918 
863 
946 
1059 
975 
842 
993 
1091 
971 
812 
808 
934 
939 
845 
790 
889 
880 
823 
792 
896 
985 
894 
881 
962 
1118 
1032 
942 
1051 
1176 
1099 
951 
1075 
1238 
1151 
1075 
1028 
1126 
1097 
949 
705 
520 
677 
554 
485 
645 
707 
577 
500 
606 
773 
643 
549 
655 
819 
800 
663 
713 
857 
801 
712 
792 
863 
836 
702 
677 
857 
910 
740 
710 
821 
862 
763 
659 
704 
790 
700 
597 
699 
836 
762 
659 
739 
885 
872 
681 
716 
1089 
1301 
1112 
1143 
1171 
1180 
1008 
972 
1091 
1120 
963 
899 
1007 
1044 
959 
790 
804 
862 
852 
690 
727 
858 
843 
730 
791 
868 
897 
790 
903 
1168 
1288 
1293 
1319 
1441 
1432 
1074 
710 
698 
786 
749 
710 
796 
917 
870 
728 
749 
875 
811 
696 
717 
839 
860 
740 
767 
938 
996 
869 
800 
968 
1050 
953 
852 
988 
1146 
1036 
858 
947 
1108 
988 
837 
845 
958 
887 
753 
824 
918 
984 
867 
841 
989 
1088 
961 
929 
1087 
1178 
1087 
1066 
1188 
1341 
1294 
1112 
1141 
1221 
1167 
1082 
1052 
1139 
830 
446 
528 
660 
681 
548 
527 
683 
758 
597 
602 
720 
850 
750 
701 
817 
945 
817 
761 
830 
873 
883 
774 
767 
910 
856 
730 
684 
793 
847 
716 
643 
799 
864 
708 
601 
784 
905 
830 
677 
769 
957 
904 
753 
818 
956 
957 
858 
1096 
1436 
1335 
1150 
1028 
1196 
1223 
1068 
954 
1085 
1121 
939 
843 
955 
1023 
903 
738 
827 
989 
977 
795 
815 
1005 
941 
812 
810 
1034 
1027 
1001 
1002 
1239 
1442 
1402 
1348 
1478 
1523 
1190 
809 
702 
726 
681 
615 
756 
929 
892 
750 
789 
984 
897 
808 
852 
907 
989 
897 
923 
1088 
1098 
944 
909 
967 
1036 
1003 
915 
1004 
1092 
981 
847 
971 
1069 
976 
840 
915 
1040 
1039 
906 
991 
1094 
1084 
1011 
1003 
1161 
1163 
1074 
1070 
1167 
1277 
1116 
1052 
1155 
1186 
1107 
1106 
1172 
1250 
1197 
1002 
1085 
1232 
1135 
919 
610 
697 
830 
665 
623 
829 
857 
765 
678 
850 
918 
778 
705 
778 
934 
840 
709 
807 
971 
956 
750 
820 
970 
884 
822 
904 
1011 
1036 
881 
787 
957 
946 
889 
814 
942 
1031 
859 
746 
909 
1032 
906 
820 
908 
1056 
1014 
835 
887 
1065 
1079 
1022 
1295 
1386 
1401 
1223 
1157 
1281 
1230 
1092 
942 
1062 
1152 
1012 
882 
998 
1135 
1025 
895 
971 
1083 
1076 
917 
928 
1130 
1193 
1212 
1300 
1513 
1532 
1455 
1271 
1220 
1007 
678 
614 
786 
934 
881 
821 
957 
1086 
1023 
853 
942 
1068 
1071 
920 
974 
1119 
1079 
910 
892 
1086 
1113 
933 
928 
1095 
1141 
1034 
958 
989 
1068 
996 
944 
1038 
1170 
1128 
1031 
1014 
1138 
1139 
925 
990 
1174 
1234 
1069 
1018 
1146 
1261 
1133 
1102 
1285 
1319 
1162 
1083 
1230 
1344 
1163 
1126 
1193 
1284 
1169 
899 
702 
852 
915 
759 
827 
961 
952 
807 
797 
942 
986 
926 
845 
924 
967 
841 
812 
956 
1024 
908 
774 
908 
1043 
971 
845 
895 
1020 
1018 
903 
906 
1056 
1042 
882 
903 
1040 
1017 
903 
884 
1016 
1084 
956 
885 
970 
1081 
1020 
868 
962 
1083 
1082 
1151 
1397 
1483 
1380 
1169 
1151 
1251 
1215 
1154 
1100 
1119 
1206 
1082 
1013 
1104 
1191 
1072 
943 
982 
1124 
1097 
981 
1038 
1171 
1097 
993 
1055 
1255 
1323 
1370 
1392 
1537 
1536 
1414 
1216 
1039 
922 
717 
718 
877 
992 
902 
914 
1010 
1061 
994 
942 
977 
1103 
1133 
962 
957 
1127 
1165 
1064 
1019 
1138 
1198 
1092 
1070 
1142 
1243 
1084 
983 
1128 
1224 
1107 
1001 
1049 
1139 
1040 
1020 
1050 
1237 
1188 
1094 
1159 
1302 
1307 
1159 
1232 
1378 
1451 
1294 
1251 
1377 
1476 
1286 
1216 
1384 
1434 
1294 
1203 
1223 
1292 
1205 
1124 
1086 
1141 
1140 
1013 
870 
747 
794 
731 
829 
978 
1057 
962 
878 
1013 
1090 
1062 
975 
1058 
1193 
949 
866 
976 
1057 
929 
826 
948 
1021 
941 
771 
859 
1010 
992 
904 
888 
1055 
1119 
997 
967 
1124 
1180 
1134 
1045 
1138 
1261 
1117 
1018 
1121 
1205 
1082 
1148 
1445 
1407 
1332 
1192 
1156 
1209 
1185 
1106 
1103 
1221 
1235 
1117 
1005 
1096 
1208 
1134 
993 
1148 
1286 
1171 
992 
1126 
1263 
1202 
993 
987 
1084 
1098 
984 
1029 
1255 
1391 
1262 
1308 
1529 
1559 
1342 
1047 
979 
976 
879 
875 
1025 
1237 
1171 
1022 
1134 
1269 
1205 
1091 
1137 
1268 
1240 
1064 
1061 
1179 
1135 
979 
1042 
1175 
1190 
1047 
1018 
1162 
1226 
1108 
1047 
1143 
1260 
1196 
1037 
1164 
1328 
1330 
1212 
1233 
1410 
1408 
1290 
1302 
1457 
1447 
1289 
1312 
1499 
1502 
1305 
1272 
1417 
1474 
1345 
1197 
1317 
1463 
1366 
1195 
1318 
1410 
1323 
1216 
1214 
1333 
1326 
1185 
1103 
952 
985 
871 
866 
1011 
1067 
980 
927 
1054 
1102 
1012 
883 
968 
1056 
1008 
913 
941 
1044 
1004 
879 
967 
1140 
1099 
1030 
1023 
1166 
1141 
1007 
1008 
1140 
1141 
1055 
984 
1064 
1101 
1042 
902 
988 
1145 
983 
818 
951 
1072 
1020 
906 
994 
1093 
1101 
973 
990 
1112 
1140 
1011 
1032 
1229 
1324 
1210 
1466 
1575 
1548 
1442 
1279 
1304 
1447 
1360 
1259 
1292 
1403 
1243 
1139 
1118 
1238 
1225 
1105 
1120 
1197 
1252 
1137 
1080 
1207 
1278 
1199 
1147 
1277 
1477 
1433 
1342 
1571 
1779 
1696 
1569 
1543 
1368 
1147 
913 
945 
1173 
1224 
1086 
1114 
1306 
1313 
1167 
1122 
1248 
1324 
1206 
1113 
1212 
1324 
1263 
1076 
1240 
1382 
1291 
1248 
1270 
1394 
1359 
1231 
1272 
1421 
1419 
1287 
1188 
1206 
1286 
1225 
1207 
1264 
1303 
1207 
1096 
1280 
1367 
1406 
1222 
1339 
1547 
1484 
1383 
1395 
1565 
1549 
1419 
1469 
1512 
1523 
1399 
1388 
1491 
1505 
1372 
1192 
1274 
1305 
1183 
1052 
1176 
1311 
1110 
939 
1120 
1321 
1231 
1062 
1139 
1345 
1320 
1220 
1203 
1367 
1375 
1303 
1135 
1317 
1389 
1238 
1142 
1183 
1238 
1175 
1081 
1145 
1241 
1121 
1074 
1178 
1243 
1277 
1152 
1144 
1317 
1356 
1210 
1202 
1364 
1365 
1255 
1165 
1336 
1396 
1255 
1163 
1224 
1373 
1234 
1047 
1198 
1310 
1237 
1097 
1070 
1133 
1205 
1142 
1137 
1249 
1385 
1214 
1192 
1357 
1381 
1283 
1219 
1365 
1447 
1213 
1190 
1315 
1385 
1285 
1146 
1189 
1296 
1240 
1138 
1177 
1337 
1269 
1103 
1130 
1267 
1280 
1140 
1142 
1267 
1345 
1196 
1082 
1275 
1402 
1258 
1168 
1274 
1383 
1264 
1134 
1344 
1600 
1624 
1566 
1625 
1755 
1677 
1404 
1115 
1061 
947 
880 
939 
1140 
1242 
1112 
1097 
1245 
1305 
1193 
1135 
1212 
1344 
1270 
1145 
1251 
1351 
1331 
1177 
1225 
1356 
1320 
1195 
1210 
1332 
1306 
837 
767 
935 
1058 
970 
921 
1076 
1175 
1151 
1055 
1154 
1217 
1158 
1123 
1263 
1430 
1380 
1225 
1350 
1483 
1472 
1307 
1317 
1512 
1510 
1310 
1276 
1435 
1493 
1370 
1308 
1366 
1401 
1263 
1178 
1261 
1381 
1296 
1111 
1214 
1321 
1322 
1221 
1196 
1356 
1386 
1224 
1204 
1288 
1356 
1255 
1180 
1235 
1275 
1145 
1162 
1239 
1335 
1201 
1053 
1127 
1240 
1197 
1083 
1162 
1220 
1203 
1056 
1091 
1329 
1304 
1131 
1146 
1291 
1309 
1208 
1213 
1303 
1397 
1210 
1137 
1269 
1335 
1197 
1053 
1244 
1323 
1200 
1054 
1155 
1283 
1159 
1014 
1019 
1209 
1183 
1097 
1190 
1378 
1278 
1188 
1219 
1313 
1371 
1286 
1237 
1346 
1422 
1325 
1165 
1265 
1330 
1251 
1069 
1070 
1209 
1142 
1002 
1034 
1141 
1095 
1000 
1011 
1135 
1230 
1150 
1061 
1214 
1368 
1423 
1420 
1557 
1713 
1687 
1638 
1770 
1683 
1332 
1019 
968 
1055 
1045 
966 
1031 
1208 
1224 
1002 
1017 
1178 
1242 
1088 
1042 
1230 
1373 
1278 
1233 
1318 
1428 
1299 
1323 
1413 
1525 
1418 
1313 
1331 
1460 
1427 
1268 
1252 
1301 
1325 
1176 
1145 
1266 
1293 
1138 
1121 
1294 
1406 
1287 
1169 
1363 
1490 
1434 
1347 
1393 
1548 
1597 
1490 
1512 
1614 
1608 
1468 
1468 
1614 
1612 
1411 
1345 
1460 
1431 
1304 
1228 
1289 
1324 
1200 
1148 
1246 
1305 
1227 
1156 
1192 
1388 
1321 
1191 
1284 
1423 
1365 
1296 
1268 
1335 
1385 
1235 
1191 
1377 
1387 
1183 
1062 
1233 
1288 
1171 
1061 
1158 
1323 
1233 
1107 
1144 
1265 
1278 
1107 
1141 
1306 
1302 
1188 
1262 
1308 
1343 
1280 
1163 
1242 
1343 
1255 
1193 
1254 
1296 
1229 
1134 
1220 
1304 
1243 
1098 
1147 
1271 
1179 
1028 
1141 
1317 
1269 
1101 
1174 
1301 
1350 
1170 
1137 
1357 
1452 
1280 
1216 
1375 
1499 
1373 
1196 
1278 
1429 
1415 
1206 
1255 
1330 
1281 
1145 
1125 
1224 
1194 
1097 
1104 
1245 
1274 
1155 
1135 
1256 
1397 
1362 
1220 
1442 
1734 
1777 
1653 
1743 
1832 
1549 
1160 
1024 
1122 
1093 
1007 
1072 
1217 
1231 
1136 
1111 
1226 
1273 
1154 
1059 
1230 
1313 
1232 
1147 
1315 
1500 
1326 
1227 
1316 
1472 
1364 
1239 
1287 
1401 
1382 
1218 
1259 
1369 
1394 
1216 
1148 
1304 
1339 
1215 
1151 
1273 
1356 
1274 
1226 
1326 
1431 
1395 
1310 
1430 
1550 
1486 
1395 
1485 
1648 
1588 
1434 
1422 
1550 
1596 
1525 
1458 
1529 
1477 
1306 
1204 
1387 
1509 
1299 
1173 
1256 
1324 
1248 
1140 
1205 
1319 
1312 
1218 
1231 
1391 
1396 
1250 
1273 
1369 
1406 
1298 
1301 
1414 
1392 
1250 
1215 
1310 
1335 
1195 
1085 
1168 
1335 
1236 
1148 
1167 
1294 
1262 
1169 
1198 
1367 
1366 
1235 
1177 
1336 
1438 
1321 
1234 
1320 
1378 
1282 
1225 
1326 
1326 
1203 
1151 
1271 
1390 
1301 
1114 
1166 
1231 
1235 
1124 
1135 
1278 
1328 
1192 
1170 
1328 
1309 
1161 
1251 
1377 
1415 
1342 
1287 
1359 
1406 
1336 
1271 
1369 
1389 
1353 
1310 
1307 
1381 
1299 
1126 
1127 
1249 
1275 
1142 
1103 
1226 
1260 
1166 
1166 
1324 
1391 
1250 
1180 
1357 
1520 
1509 
1498 
1714 
1894 
1821 
1669 
1536 
1345 
1110 
877 
864 
1113 
1247 
1124 
1135 
1250 
1316 
1148 
1110 
1303 
1375 
1318 
1271 
1322 
1418 
1297 
1195 
1325 
1463 
1353 
1249 
1298 
1483 
1417 
1218 
1224 
1322 
1350 
1217 
1171 
1288 
1356 
1240 
1190 
1306 
1425 
1329 
1282 
1409 
1500 
1416 
1279 
1344 
1541 
1495 
1310 
1464 
1680 
1657 
1476 
1410 
1581 
1639 
1435 
1447 
1613 
1644 
1504 
1367 
1430 
1521 
1369 
1307 
1337 
1386 
1320 
1211 
1284 
1375 
1394 
1244 
1207 
1335 
1326 
1241 
1319 
1429 
1411 
1301 
1339 
1432 
1480 
1352 
1242 
1275 
1424 
1297 
1164 
1241 
1375 
1278 
1179 
1234 
1386 
1314 
1145 
1202 
1333 
1312 
1176 
1173 
1359 
1480 
1302 
1246 
1407 
1425 
1358 
1265 
1393 
1517 
1346 
1297 
1344 
1429 
1325 
1159 
1281 
1399 
1256 
1092 
1153 
1271 
1280 
1154 
1155 
1294 
1301 
1206 
1212 
1379 
1454 
1382 
1281 
1390 
1534 
1482 
1360 
1383 
1476 
1426 
1275 
1268 
1385 
1332 
1165 
1111 
1231 
1209 
1122 
1082 
1216 
1296 
1129 
1101 
1303 
1486 
1429 
1433 
1564 
1615 
1453 
1153 
961 
913 
841 
777 
958 
1064 
1056 
932 
1001 
1151 
1161 
1031 
1044 
1250 
1254 
1122 
1097 
1243 
1315 
1255 
1197 
1301 
1422 
1320 
1215 
1283 
1437 
1433 
1349 
1321 
1463 
1450 
1312 
1255 
1461 
1500 
1378 
1324 
1398 
1453 
1375 
1343 
1472 
1444 
1394 
1345 
1473 
1611 
1535 
1403 
1532 
1639 
1513 
1493 
1568 
1648 
1628 
1511 
1484 
1625 
1618 
1455 
1393 
1445 
1525 
1424 
1334 
1399 
1458 
1321 
1256 
1372 
1418 
1313 
1199 
1320 
1461 
1389 
1283 
1355 
1437 
1403 
1257 
1289 
1447 
1447 
1280 
1218 
1394 
1435 
1297 
1266 
1376 
1470 
1366 
1230 
1283 
1412 
1393 
1296 
1320 
1464 
1401 
1296 
1408 
1524 
1424 
1297 
1323 
1426 
1423 
1293 
1291 
1344 
1349 
1257 
1191 
1305 
1380 
1274 
1146 
1263 
1477 
1450 
1276 
1297 
1518 
1504 
1355 
1369 
1535 
1462 
1304 
1350 
1459 
1466 
1302 
1252 
1343 
1367 
1257 
1172 
1313 
1361 
1271 
1162 
1290 
1494 
1548 
1565 
1719 
1854 
1892 
1638 
1447 
1358 
1175 
1045 
1104 
1333 
1414 
1328 
1269 
1367 
1442 
1272 
1134 
1343 
1408 
1212 
1133 
1238 
1393 
1323 
1235 
1276 
1420 
1466 
1315 
1292 
1419 
1490 
1403 
1348 
1496 
1558 
1410 
1320 
1422 
1504 
1383 
1298 
1409 
1461 
1397 
1300 
1411 
1515 
1485 
1329 
1424 
1610 
1634 
1499 
1586 
1707 
1738 
1529 
1549 
1727 
1766 
1617 
1487 
1631 
1659 
1524 
1428 
1497 
1547 
1407 
1241 
1294 
1475 
1429 
1257 
1299 
1423 
1413 
1284 
1315 
1505 
1530 
1365 
1334 
1483 
1551 
1397 
1306 
1379 
1444 
1341 
1282 
1376 
1452 
1365 
1202 
1335 
1458 
1367 
1234 
1304 
1493 
1402 
1228 
1287 
1434 
1459 
1253 
1240 
1389 
1490 
1342 
1263 
1404 
1433 
1294 
1249 
1402 
1519 
1476 
1364 
1413 
1534 
1503 
1325 
1345 
1507 
1453 
1326 
1249 
1431 
1517 
1336 
1246 
1340 
1349 
1175 
1209 
1374 
1418 
1383 
1278 
1330 
1476 
1419 
1272 
1360 
1548 
1527 
1425 
1564 
1815 
1875 
1750 
1689 
1814 
1610 
1211 
998 
1086 
1195 
1175 
1098 
1255 
1397 
1302 
1240 
1273 
1398 
1413 
1289 
1397 
1530 
1476 
1317 
1328 
1536 
1488 
1314 
1336 
1504 
1544 
1346 
1312 
1408 
1391 
1307 
1259 
1367 
1474 
1381 
1323 
1407 
1482 
1404 
1320 
1467 
1609 
1526 
1445 
1514 
1647 
1672 
1496 
1511 
1702 
1717 
1575 
1463 
1604 
1719 
1516 
1405 
1507 
1581 
1481 
1365 
1465 
1579 
1489 
1300 
1390 
1590 
1531 
1389 
1400 
1557 
1543 
1399 
1415 
1584 
1606 
1411 
1366 
1505 
1521 
1400 
1279 
1339 
1496 
1365 
1208 
1329 
1486 
1353 
1171 
1296 
1449 
1429 
1353 
1351 
1458 
1505 
1429 
1324 
1488 
1564 
1436 
1391 
1480 
1573 
1472 
1337 
1393 
1531 
1373 
1271 
1328 
1459 
1364 
1206 
1278 
1396 
1359 
1256 
1340 
1494 
1484 
1340 
1294 
1442 
1562 
1453 
1385 
1451 
1468 
1385 
1343 
1428 
1545 
1418 
1286 
1369 
1493 
1443 
1268 
1291 
1401 
1397 
1336 
1359 
1624 
1746 
1654 
1633 
1755 
1725 
1463 
1161 
1153 
1195 
1138 
1151 
1339 
1405 
1395 
1317 
1379 
1529 
1490 
1309 
1327 
1495 
1498 
1302 
1316 
1536 
1532 
1359 
1270 
1416 
1454 
1358 
1237 
1439 
1469 
1291 
1272 
1412 
1547 
1441 
1331 
1433 
1574 
1554 
1444 
1551 
1709 
1723 
1553 
1506 
1635 
1641 
1515 
1491 
1622 
1629 
1519 
1412 
1472 
1566 
1508 
1411 
1485 
1585 
1487 
1446 
1526 
1662 
1645 
1470 
1464 
1632 
1640 
1504 
1434 
1541 
1535 
1348 
1302 
1483 
1554 
1390 
1282 
1378 
1462 
1339 
1222 
1366 
1462 
1390 
1302 
1345 
1512 
1548 
1360 
1347 
1526 
1510 
1356 
1436 
1539 
1579 
1405 
1306 
1497 
1577 
1430 
1345 
1416 
1530 
1410 
1307 
1383 
1466 
1413 
1331 
1344 
1479 
1413 
1332 
1341 
1436 
1550 
1437 
1389 
1573 
1602 
1451 
1389 
1473 
1535 
1376 
1351 
1474 
1553 
1486 
1346 
1423 
1504 
1405 
1269 
1369 
1522 
1484 
1337 
1362 
1480 
1495 
1433 
1506 
1731 
1882 
1845 
1729 
1850 
1781 
1474 
1129 
1180 
1310 
1299 
1235 
1341 
1494 
1448 
1315 
1322 
1522 
1512 
1320 
1354 
1532 
1473 
1336 
1342 
1442 
1587 
1436 
1378 
1474 
1563 
1466 
1422 
1498 
1587 
1474 
1430 
1516 
1651 
1529 
1409 
1423 
1536 
1541 
1380 
1432 
1555 
1589 
1435 
1371 
1607 
1661 
1544 
1466 
1612 
1713 
1625 
1534 
1650 
1740 
1621 
1551 
1655 
1726 
1732 
1570 
1551 
1649 
1620 
1477 
1394 
1484 
1569 
1402 
1307 
1416 
1492 
1379 
1265 
1403 
1491 
1344 
1257 
1405 
1518 
1463 
1355 
1387 
1574 
1561 
1376 
1387 
1558 
1607 
1470 
1473 
1559 
1603 
1448 
1356 
1468 
1526 
1401 
1354 
1434 
1542 
1363 
1243 
1358 
1453 
1427 
1308 
1350 
1485 
1469 
1354 
1360 
1554 
1556 
1461 
1437 
1572 
1629 
1526 
1434 
1532 
1584 
1446 
1469 
1523 
1616 
1534 
1384 
1427 
1498 
1372 
1234 
1328 
1491 
1413 
1220 
1333 
1556 
1522 
1405 
1430 
1526 
1592 
1488 
1438 
1580 
1714 
1692 
1752 
1903 
2011 
1910 
1741 
1573 
1396 
1137 
935 
1022 
1238 
1251 
1194 
1281 
1483 
1438 
1321 
1322 
1482 
1555 
1437 
1432 
1612 
1704 
1553 
1407 
1546 
1673 
1541 
1438 
1445 
1586 
1551 
1329 
1373 
1507 
1495 
1336 
1330 
1472 
1468 
1332 
1345 
1480 
1580 
1492 
1436 
1548 
1662 
1656 
1574 
1693 
1896 
1762 
1672 
1740 
1881 
1787 
1700 
1691 
1820 
1778 
1592 
1563 
1677 
1636 
1484 
1455 
1467 
1506 
1339 
1337 
1535 
1530 
1417 
1343 
1450 
1592 
1471 
1332 
1454 
1480 
1481 
1450 
1466 
1580 
1620 
1424 
1386 
1533 
1578 
1434 
1290 
1341 
1411 
1318 
1177 
1374 
1497 
1335 
1224 
1350 
1423 
1389 
1309 
1443 
1610 
1568 
1432 
1461 
1594 
1605 
1517 
1505 
1690 
1636 
1481 
1452 
1564 
1571 
1408 
1369 
1460 
1529 
1463 
1324 
1430 
1523 
1464 
1272 
1343 
1527 
1535 
1308 
1308 
1486 
1546 
1377 
1415 
1552 
1567 
1378 
1321 
1442 
1539 
1527 
1522 
1761 
1949 
1893 
1753 
1779 
1751 
1415 
1047 
1083 
1205 
1201 
1200 
1316 
1453 
1503 
1399 
1351 
1439 
1562 
1439 
1333 
1448 
1589 
1447 
1261 
1432 
1623 
1554 
1390 
1447 
1576 
1490 
1360 
1468 
1554 
1486 
1355 
1446 
1627 
1592 
1398 
1449 
1550 
1634 
1505 
1467 
1593 
1677 
1633 
1517 
1588 
1755 
1672 
1601 
1634 
1707 
1693 
1575 
1676 
1767 
1779 
1577 
1617 
1763 
1762 
1604 
1558 
1640 
1607 
1458 
1423 
1561 
1546 
1402 
1329 
1456 
1581 
1460 
1281 
1415 
1565 
1570 
1377 
1406 
1555 
1512 
1420 
1473 
1569 
1524 
1403 
1342 
1490 
1584 
1421 
1378 
1425 
1525 
1432 
1289 
1334 
1533 
1408 
1309 
1365 
1500 
1534 
1409 
1442 
1497 
1558 
1513 
1518 
1646 
1639 
1481 
1459 
1571 
1554 
1426 
1393 
1521 
1546 
1458 
1327 
1403 
1586 
1476 
1281 
1313 
1445 
1467 
1297 
1419 
1524 
1553 
1424 
1409 
1561 
1587 
1491 
1434 
1548 
1624 
1522 
1493 
1717 
1877 
1880 
1758 
1807 
1776 
1453 
1128 
1106 
1257 
1264 
1244 
1308 
1507 
1504 
1365 
1394 
1554 
1611 
1503 
1395 
1513 
1628 
1496 
1378 
1506 
1611 
1514 
1401 
1465 
1614 
1498 
1380 
1365 
1548 
1518 
1445 
1441 
1546 
1580 
1435 
1434 
1620 
1629 
1457 
1452 
1587 
1674 
1543 
1509 
1623 
1730 
1610 
1539 
1626 
1727 
1655 
1516 
1567 
1742 
1699 
1529 
1565 
1719 
1710 
1529 
1526 
1639 
1669 
1550 
1451 
1539 
1636 
1500 
1419 
1576 
1659 
1588 
1441 
1459 
1611 
1524 
1397 
1464 
1544 
1560 
1377 
1367 
1516 
1490 
1397 
1365 
1473 
1529 
1384 
1340 
1462 
1583 
1451 
1337 
1471 
1626 
1543 
1407 
1499 
1594 
1571 
1427 
1480 
1627 
1629 
1405 
1416 
1568 
1494 
1373 
1361 
1527 
1609 
1480 
1339 
1455 
1543 
1485 
1426 
1482 
1543 
1469 
1377 
1520 
1639 
1602 
1416 
1462 
1597 
1601 
1418 
1390 
1577 
1582 
1341 
1334 
1501 
1592 
1467 
1337 
1416 
1515 
1447 
1363 
1623 
1863 
1860 
1738 
1844 
2048 
1906 
1494 
1298 
1369 
1320 
1259 
1389 
1565 
1569 
1430 
1444 
1590 
1598 
1491 
1386 
1517 
1598 
1519 
1382 
1457 
1571 
1497 
1361 
1409 
1598 
1548 
1392 
1446 
1621 
1653 
1447 
1476 
1647 
1618 
1503 
1537 
1698 
1749 
1589 
1462 
1619 
1734 
1566 
1483 
1630 
1743 
1638 
1502 
1591 
1719 
1674 
1528 
1555 
1733 
1751 
1596 
1535 
1720 
1810 
1659 
1601 
1801 
1847 
1724 
1608 
1644 
1713 
1691 
1523 
1530 
1642 
1611 
1386 
1494 
1551 
1472 
1313 
1366 
1539 
1475 
1324 
1328 
1511 
1539 
1383 
1364 
1579 
1667 
1504 
1459 
1640 
1738 
1593 
1495 
1565 
1624 
1579 
1482 
1463 
1543 
1523 
1349 
1402 
1483 
1404 
1271 
1353 
1451 
1454 
1330 
1325 
1489 
1578 
1499 
1443 
1526 
1661 
1614 
1479 
1571 
1721 
1632 
1457 
1456 
1619 
1600 
1435 
1376 
1493 
1486 
1395 
1339 
1472 
1533 
1437 
1350 
1429 
1578 
1455 
1378 
1542 
1646 
1582 
1452 
1567 
1672 
1622 
1483 
1480 
1580 
1576 
1423 
1444 
1612 
1661 
1651 
1712 
1895 
1926 
1820 
1665 
1518 
1380 
1243 
1206 
1372 
1542 
1504 
1467 
1521 
1599 
1618 
1533 
1546 
1625 
1627 
1468 
1485 
1583 
1606 
1441 
1420 
1546 
1592 
1465 
1413 
1566 
1607 
1495 
1392 
1544 
1648 
1586 
1428 
1527 
1640 
1654 
1541 
1525 
1699 
1671 
1547 
1573 
1726 
1747 
1557 
1500 
1715 
1775 
1655 
1575 
1679 
1773 
1673 
1579 
1610 
1791 
1756 
1611 
1672 
1753 
1727 
1580 
1584 
1719 
1705 
1591 
1531 
1689 
1724 
1555 
1518 
1656 
1687 
1580 
1494 
1600 
1651 
1495 
1401 
1456 
1564 
1492 
1334 
1376 
1513 
1439 
1310 
1331 
1532 
1548 
1414 
1420 
1609 
1644 
1562 
1535 
1665 
1702 
1609 
1563 
1623 
1686 
1592 
1496 
1559 
1577 
1430 
1286 
1326 
1531 
1462 
1238 
1277 
1439 
1430 
1302 
1317 
1467 
1540 
1413 
1413 
1631 
1726 
1642 
1577 
1663 
1753 
1626 
1514 
1608 
1698 
1615 
1443 
1450 
1552 
1482 
1316 
1355 
1497 
1460 
1309 
1317 
1384 
1462 
1407 
1335 
1466 
1593 
1517 
1479 
1638 
1684 
1582 
1550 
1630 
1766 
1670 
1473 
1575 
1683 
1597 
1442 
1447 
1597 
1700 
1588 
1617 
1822 
1882 
1756 
1538 
1365 
1286 
1132 
1082 
1347 
1506 
1482 
1479 
1557 
1704 
1697 
1644 
1631 
1716 
1765 
1571 
1487 
1623 
1626 
1433 
1376 
1503 
1517 
1328 
1303 
1431 
1441 
1372 
1309 
1424 
1533 
1549 
1456 
1551 
1784 
1782 
1602 
1676 
1778 
1794 
1686 
1692 
1834 
1798 
1616 
1596 
1682 
1729 
1584 
1514 
1606 
1684 
1539 
1534 
1604 
1697 
1695 
1584 
1678 
1794 
1795 
1712 
1701 
1839 
1818 
1639 
1696 
1764 
1726 
1538 
1484 
1666 
1647 
1460 
1403 
1488 
1516 
1438 
1304 
1385 
1498 
1401 
1266 
1390 
1571 
1516 
1396 
1434 
1563 
1621 
1502 
1503 
1697 
1724 
1559 
1493 
1682 
1691 
1513 
1407 
1553 
1619 
1518 
1404 
1526 
1616 
1476 
1398 
1485 
1604 
1571 
1407 
1509 
1650 
1590 
1469 
1448 
1598 
1612 
1464 
1440 
1590 
1598 
1486 
1398 
1559 
1648 
1490 
1369 
1497 
1667 
1600 
1493 
1504 
1738 
1648 
1471 
1502 
1723 
1699 
1538 
1460 
1624 
1636 
1441 
1406 
1478 
1498 
1364 
1274 
1427 
1557 
1426 
1377 
1545 
1647 
1598 
1432 
1522 
1794 
1835 
1874 
2011 
2175 
2203 
2062 
1868 
1673 
1510 
1240 
1090 
1278 
1390 
1282 
1265 
1466 
1514 
1398 
1285 
1376 
1635 
1605 
1499 
1525 
1680 
1732 
1612 
1642 
1766 
1767 
1635 
1594 
1722 
1719 
1537 
1419 
1572 
1646 
1510 
1349 
1429 
1589 
1598 
1425 
1471 
1614 
1654 
1485 
1528 
1811 
1768 
1656 
1715 
1861 
1854 
1758 
1790 
1932 
1956 
1826 
1738 
1839 
1926 
1751 
1689 
1730 
1780 
1695 
1584 
1635 
1726 
1673 
1522 
1563 
1744 
1664 
1563 
1578 
1731 
1737 
1524 
1524 
1781 
1854 
1619 
1529 
1655 
1710 
1602 
1457 
1539 
1636 
1515 
1413 
1476 
1603 
1564 
1408 
1446 
1612 
1582 
1463 
1491 
1625 
1666 
1505 
1517 
1655 
1682 
1552 
1473 
1612 
1688 
1613 
1457 
1551 
1698 
1537 
1417 
1498 
1653 
1607 
1455 
1432 
1572 
1628 
1388 
1390 
1553 
1642 
1513 
1486 
1579 
1675 
1579 
1479 
1595 
1703 
1668 
1582 
1664 
1740 
1655 
1523 
1638 
1727 
1619 
1509 
1491 
1573 
1563 
1415 
1380 
1474 
1520 
1468 
1434 
1554 
1622 
1516 
1465 
1591 
1767 
1743 
1704 
1901 
2279 
2190 
2003 
1852 
1710 
1433 
1203 
1243 
1385 
1397 
1346 
1352 
1513 
1559 
1412 
1340 
1480 
1614 
1539 
1439 
1559 
1693 
1562 
1454 
1585 
1754 
1676 
1570 
1611 
1736 
1625 
1511 
1590 
1712 
1674 
1503 
1487 
1613 
1671 
1539 
1492 
1583 
1631 
1538 
1548 
1638 
1757 
1718 
1570 
1671 
1805 
1797 
1677 
1799 
1959 
1930 
1750 
1774 
1874 
1862 
1792 
1742 
1805 
1837 
1667 
1638 
1774 
1787 
1576 
1553 
1655 
1757 
1640 
1512 
1586 
1705 
1682 
1469 
1563 
1744 
1694 
1563 
1557 
1697 
1677 
1529 
1493 
1616 
1607 
1479 
1427 
1562 
1626 
1476 
1416 
1534 
1626 
1525 
1514 
1586 
1739 
1635 
1472 
1578 
1739 
1694 
1559 
1581 
1764 
1724 
1580 
1506 
1621 
1684 
1558 
1401 
1487 
1610 
1513 
1365 
1510 
1637 
1494 
1368 
1428 
1638 
1610 
1471 
1537 
1705 
1690 
1533 
1524 
1680 
1762 
1647 
1607 
1669 
1775 
1634 
1566 
1702 
1754 
1551 
1424 
1572 
1694 
1614 
1464 
1510 
1624 
1547 
1424 
1492 
1616 
1597 
1435 
1461 
1699 
1800 
1662 
1493 
1641 
1735 
1636 
1576 
1769 
1952 
1901 
1894 
1997 
2131 
1939 
1565 
1330 
1326 
1237 
1193 
1331 
1566 
1612 
1471 
1487 
1644 
1693 
1565 
1553 
1699 
1734 
1671 
1580 
1691 
1800 
1699 
1548 
1689 
1778 
1655 
1482 
1563 
1684 
1639 
1480 
1444 
1559 
1623 
1502 
1434 
1553 
1665 
1601 
1591 
1718 
1783 
1680 
1619 
1735 
1894 
1822 
1724 
1864 
1983 
1883 
1775 
1849 
1947 
1948 
1753 
1788 
1850 
1851 
1662 
1655 
1791 
1813 
1606 
1555 
1665 
1709 
1606 
1539 
1682 
1836 
1743 
1546 
1637 
1839 
1798 
1660 
1685 
1844 
1813 
1643 
1597 
1719 
1709 
1527 
1478 
1575 
1643 
1499 
1415 
1506 
1660 
1509 
1347 
1525 
1672 
1614 
1428 
1607 
1822 
1733 
1575 
1639 
1841 
1838 
1634 
1681 
1803 
1793 
1677 
1613 
1692 
1722 
1546 
1469 
1588 
1700 
1524 
1356 
1446 
1536 
1523 
1427 
1503 
1603 
1577 
1497 
1569 
1715 
1736 
1632 
1559 
1793 
1867 
1718 
1648 
1792 
1825 
1668 
1620 
1705 
1810 
1670 
1524 
1602 
1744 
1591 
1477 
1559 
1674 
1597 
1409 
1401 
1624 
1651 
1516 
1552 
1708 
1686 
1606 
1611 
1782 
1844 
1730 
1763 
1989 
2174 
2142 
2006 
2087 
2098 
1759 
1365 
1286 
1331 
1369 
1294 
1427 
1589 
1563 
1447 
1494 
1656 
1706 
1576 
1580 
1701 
1776 
1678 
1694 
1775 
1849 
1725 
1598 
1663 
1813 
1745 
1598 
1608 
1679 
1630 
1505 
1519 
1627 
1630 
1409 
1434 
1688 
1711 
1539 
1538 
1696 
1913 
1753 
1650 
1894 
1984 
1882 
1820 
1908 
1995 
1954 
1836 
1905 
2022 
1958 
1788 
1784 
1906 
1890 
1662 
1657 
1755 
1762 
1619 
1548 
1687 
1746 
1625 
1513 
1742 
1867 
1738 
1700 
1731 
1855 
1833 
1707 
1662 
1812 
1855 
1733 
1672 
1761 
1728 
1551 
1528 
1647 
1653 
1514 
1443 
1535 
1594 
1597 
1493 
1543 
1670 
1646 
1555 
1583 
1762 
1733 
1558 
1678 
1784 
1758 
1699 
1662 
1801 
1800 
1621 
1586 
1690 
1719 
1550 
1491 
1593 
1645 
1498 
1417 
1522 
1637 
1598 
1489 
1514 
1666 
1684 
1527 
1575 
1734 
1756 
1684 
1657 
1774 
1784 
1635 
1643 
1757 
1812 
1663 
1622 
1666 
1728 
1587 
1531 
1525 
1569 
1531 
1410 
1469 
1598 
1571 
1478 
1524 
1608 
1696 
1589 
1585 
1736 
1840 
1747 
1792 
2061 
2132 
2142 
2102 
2201 
2174 
1749 
1345 
1317 
1422 
1426 
1347 
1439 
1575 
1550 
1470 
1573 
1669 
1684 
1522 
1557 
1748 
1794 
1704 
1633 
1763 
1831 
1764 
1669 
1832 
1929 
1788 
1678 
1782 
1863 
1749 
1564 
1638 
1735 
1707 
1587 
1640 
1749 
1698 
1546 
1575 
1765 
1850 
1689 
1671 
1856 
1921 
1865 
1843 
1997 
2102 
1954 
1847 
1997 
2056 
2026 
1901 
1894 
2026 
1974 
1772 
1780 
1938 
1931 
1748 
1671 
1771 
1750 
1635 
1683 
1758 
1753 
1681 
1604 
1720 
1835 
1732 
1657 
1760 
1889 
1783 
1665 
1726 
1840 
1829 
1659 
1691 
1838 
1781 
1619 
1565 
1716 
1761 
1565 
1507 
1648 
1759 
1598 
1446 
1566 
1706 
1653 
1471 
1593 
1780 
1745 
1599 
1698 
1908 
1816 
1672 
1730 
1870 
1807 
1617 
1599 
1797 
1796 
1619 
1572 
1660 
1750 
1659 
1494 
1580 
1741 
1651 
1514 
1575 
1725 
1664 
1589 
1696 
1809 
1779 
1718 
1707 
1856 
1928 
1700 
1690 
1896 
1920 
1760 
1647 
1654 
1797 
1658 
1585 
1642 
1875 
1904 
1909 
2040 
2097 
1892 
1580 
1426 
1460 
1458 
1384 
1496 
1753 
1878 
1761 
1698 
1822 
1960 
1841 
1681 
1800 
1900 
1730 
1586 
1657 
1713 
1603 
1504 
1543 
1679 
1598 
1437 
1562 
1772 
1699 
1585 
1637 
1858 
1877 
1799 
1823 
1944 
1949 
1898 
1825 
1903 
1988 
1863 
1748 
1796 
1879 
1763 
1628 
1721 
1865 
1828 
1656 
1685 
1846 
1820 
1735 
1753 
1910 
2018 
1909 
1834 
1974 
2061 
1857 
1897 
2041 
2087 
1926 
1672 
1749 
1899 
1776 
1566 
1651 
1691 
1593 
1514 
1537 
1686 
1681 
1551 
1572 
1678 
1699 
1673 
1636 
1751 
1781 
1671 
1562 
1788 
1916 
1753 
1657 
1725 
1836 
1780 
1597 
1656 
1786 
1727 
1623 
1612 
1768 
1764 
1614 
1580 
1692 
1724 
1621 
1544 
1655 
1719 
1624 
1545 
1668 
1794 
1724 
1597 
1689 
1801 
1778 
1640 
1714 
1855 
1836 
1712 
1673 
1808 
1880 
1763 
1637 
1798 
1824 
1648 
1572 
1731 
1743 
1570 
1483 
1631 
1706 
1624 
1535 
1554 
1680 
1651 
1631 
1698 
1867 
1954 
1932 
1974 
2275 
2318 
2071 
1972 
1922 
1726 
1428 
1346 
1512 
1632 
1581 
1519 
1631 
1689 
1564 
1462 
1581 
1770 
1734 
1604 
1665 
1811 
1811 
1652 
1644 
1890 
1900 
1707 
1695 
1860 
1928 
1787 
1683 
1734 
1829 
1734 
1574 
1720 
1827 
1687 
1557 
1699 
1806 
1790 
1617 
1614 
1802 
1907 
1799 
1804 
2009 
2049 
1870 
1861 
2069 
2117 
1930 
1833 
2028 
2102 
1921 
1734 
1864 
1964 
1837 
1656 
1821 
1884 
1818 
1684 
1676 
1835 
1779 
1670 
1648 
1767 
1870 
1746 
1719 
1831 
1904 
1833 
1720 
1824 
1864 
1742 
1632 
1776 
1863 
1717 
1582 
1641 
1747 
1660 
1508 
1554 
1719 
1720 
1603 
1601 
1792 
1789 
1711 
1682 
1846 
1998 
1851 
1659 
1791 
1918 
1817 
1685 
1784 
1876 
1762 
1593 
1665 
1784 
1694 
1571 
1577 
1789 
1750 
1623 
1637 
1797 
1872 
1757 
1722 
1820 
1843 
1711 
1658 
1797 
1899 
1731 
1701 
1792 
1877 
1798 
1607 
1728 
1842 
1811 
1651 
1676 
1907 
1947 
1889 
2004 
2180 
2243 
2051 
1831 
1734 
1657 
1398 
1335 
1504 
1711 
1682 
1558 
1684 
1887 
1786 
1643 
1722 
1928 
1895 
1756 
1842 
1935 
1918 
1769 
1729 
1843 
1909 
1716 
1636 
1767 
1802 
1675 
1612 
1691 
1811 
1717 
1592 
1663 
1904 
1814 
1686 
1829 
1974 
1986 
1853 
1840 
2081 
2151 
1940 
1905 
2074 
2082 
1976 
1944 
2022 
2020 
1910 
1836 
1881 
1911 
1836 
1748 
1860 
1953 
1864 
1723 
1769 
1965 
1973 
1812 
1801 
1960 
2005 
1862 
1883 
1998 
1981 
1871 
1784 
1847 
1868 
1783 
1644 
1711 
1748 
1662 
1573 
1626 
1771 
1689 
1579 
1639 
1706 
1726 
1682 
1728 
1917 
1905 
1775 
1746 
1952 
1995 
1853 
1767 
1852 
2018 
1844 
1648 
1670 
1784 
1711 
1557 
1586 
1737 
1697 
1554 
1580 
1681 
1684 
1545 
1580 
1769 
1847 
1729 
1694 
1956 
2036 
1875 
1787 
1930 
1972 
1822 
1726 
1786 
1897 
1822 
1667 
1671 
1757 
1725 
1600 
1566 
1691 
1719 
1569 
1531 
1734 
1900 
1915 
2018 
2189 
2264 
2209 
1955 
1794 
1696 
1546 
1509 
1646 
1828 
1829 
1637 
1661 
1819 
1828 
1613 
1612 
1773 
1774 
1627 
1550 
1683 
1839 
1655 
1638 
1777 
1797 
1712 
1660 
1774 
1899 
1789 
1681 
1817 
1924 
1834 
1621 
1737 
1932 
1872 
1711 
1734 
1870 
1860 
1741 
1763 
1877 
1904 
1828 
1763 
1915 
2025 
1925 
1882 
1956 
2069 
1978 
1860 
1939 
2025 
1938 
1874 
1901 
1993 
1999 
1820 
1814 
1940 
2003 
1814 
1751 
1921 
1967 
1814 
1745 
1857 
1908 
1789 
1660 
1751 
1866 
1747 
1571 
1671 
1784 
1747 
1596 
1626 
1792 
1828 
1669 
1629 
1784 
1867 
1806 
1713 
1892 
1900 
1783 
1751 
1888 
1932 
1819 
1764 
1789 
1891 
1755 
1600 
1716 
1817 
1793 
1599 
1613 
1768 
1747 
1599 
1634 
1748 
1834 
1690 
1677 
1788 
1823 
1810 
1777 
1891 
2025 
1909 
1800 
1847 
1889 
1795 
1646 
1696 
1848 
1774 
1594 
1581 
1776 
1760 
1546 
1547 
1769 
1781 
1608 
1577 
1759 
1951 
1972 
1956 
2187 
2340 
2223 
2141 
2085 
1919 
1588 
1394 
1503 
1659 
1672 
1582 
1669 
1742 
1787 
1685 
1671 
1789 
1753 
1670 
1631 
1760 
1884 
1734 
1665 
1793 
1901 
1811 
1667 
1756 
1957 
1875 
1751 
1787 
1934 
1862 
1739 
1772 
1931 
1897 
1737 
1732 
1842 
1901 
1789 
1751 
1888 
1945 
1823 
1749 
1933 
2085 
1929 
1815 
1986 
2090 
2021 
1990 
2039 
2131 
2155 
1990 
2013 
2123 
2101 
1923 
1907 
1980 
2006 
1796 
1756 
1821 
1861 
1729 
1599 
1723 
1860 
1760 
1618 
1760 
1916 
1878 
1766 
1782 
1956 
1931 
1825 
1848 
1986 
1962 
1815 
1812 
1925 
1986 
1830 
1686 
1827 
1873 
1731 
1636 
1694 
1768 
1715 
1625 
1727 
1816 
1782 
1623 
1737 
1865 
1913 
1775 
1801 
1951 
1904 
1807 
1798 
1960 
2040 
1911 
1772 
1850 
1945 
1849 
1723 
1798 
1874 
1750 
1627 
1618 
1774 
1739 
1629 
1680 
1776 
1876 
1764 
1716 
1921 
1943 
1776 
1782 
2008 
2202 
2178 
2162 
2346 
2440 
2259 
1994 
1788 
1608 
1463 
1398 
1483 
1637 
1645 
1542 
1620 
1830 
1706 
1636 
1733 
1866 
1890 
1796 
1798 
1932 
2021 
1895 
1848 
1891 
2015 
1961 
1789 
1913 
2005 
1913 
1719 
1749 
1847 
1822 
1686 
1680 
1849 
1849 
1694 
1693 
1890 
1927 
1742 
1847 
1981 
2026 
1966 
1848 
2033 
2152 
2106 
2014 
2107 
2280 
2134 
2004 
2073 
2162 
2079 
1900 
1956 
2096 
1982 
1787 
1750 
1845 
1871 
1680 
1665 
1785 
1813 
1726 
1658 
1757 
1953 
1924 
1778 
1871 
2037 
1984 
1840 
1890 
2037 
2011 
1861 
1843 
1898 
1922 
1781 
1687 
1786 
1802 
1681 
1598 
1658 
1756 
1679 
1575 
1739 
1864 
1795 
1722 
1773 
1916 
1891 
1797 
1893 
2065 
2013 
1887 
1956 
2079 
2024 
1840 
1771 
1856 
1941 
1778 
1686 
1733 
1841 
1756 
1582 
1676 
1782 
1680 
1638 
1696 
1797 
1793 
1693 
1775 
1945 
1934 
1793 
1821 
1969 
1995 
1875 
1956 
2222 
2341 
2243 
2176 
2243 
2090 
1719 
1443 
1435 
1614 
1565 
1507 
1594 
1764 
1718 
1595 
1693 
1894 
1857 
1667 
1721 
1867 
1904 
1813 
1778 
1901 
2006 
1881 
1774 
1879 
1999 
1908 
1757 
1843 
1962 
1866 
1731 
1812 
1933 
1825 
1682 
1725 
1923 
1877 
1745 
1748 
1953 
1948 
1824 
1842 
2011 
2109 
2023 
1954 
2081 
2207 
2074 
1997 
