46015.29044095164,46038.22333076278,46068.532296244186,46102.12696816051,46188.51646048027,46241.132466928066,46332.39463953908,46328.14780809257,46333.2887093173,46383.401320386096,46419.745256870425,46431.345812242726,46488.99096119296,46558.21431377105,46586.265753062464,46573.43585174511,46517.69060107358,46504.39131312267,46496.00940895193,46451.19416131904,46440.44297223604,46493.215440895015,46500.43505435408,46514.00256323845,46540.198807740075,46572.38531975572,46537.315432705334,46582.33184603832,46649.52118987098,46664.65332086722,46695.05169332644,46701.690161429666,46682.57941992038,46611.500872552504,46605.912936438675,46685.08281529937,46699.14206256176,46701.48899572957,46763.04569995948,46842.03676486454,46952.163809795835,47073.75729963271,47145.28288188969,47145.48404758979,47163.27603617621,47210.393513488,47289.85396502662,47329.01422131231,47311.13282574807,47265.78113624825,47220.65296419299,47215.73558041282,47211.6452111775,47227.53730148522,47171.702643835866,47044.29770044061,46958.35524300996,46949.43689697229,46923.26300421513,46881.33113161697,46849.43519227925,46777.79785129998,46704.282963786485,46679.76310011901,46648.51536137049,46592.904221165685,46558.25901725996,46545.31735722034,46552.31345323485,46542.94807230808,46551.039403800896,46546.010261298456,46477.412757565115,46406.267154963876,46332.79697093928,46297.928249589,46318.42479925451,46336.14973260758,46367.48687833391,46435.99497508943,46433.53628319935,46438.43131523506,46520.30575517485,46588.724444952546,46579.53787798141,46553.207523013065,46550.99470031199,46622.676744780154,46724.86892042982,46801.937735311716,46840.092163096924,46943.55838818054,47106.547308748646,47181.09037650709,47231.91824339846,47309.32233444719,47410.82160601874,47501.033246640356,47524.793150996346,47523.74261900695,47564.288683448875,47623.654916722175,47629.309908069365,47621.196224832085,47611.65202994967,47617.351724785774,47610.80266366037,47562.14291598117,47510.890365945146,47461.202438021,47388.201640629966,47284.89187775754,47269.37976710556,47238.53435975723,47193.00385630177,47154.33533839409,47110.07888437258,47035.75933405868,46932.315460719525,46817.22632851915,46710.2732313005,46586.958657140574,46477.904495943134,46284.15957500453,46111.67116304293,45908.04677105508,45694.45350104017,45547.04374635741,45388.145195024634,45247.843295078674,45127.03211629774,44986.86432681851,44894.953953618286,44838.180522701805,44746.82894311297,44674.83397422242,44605.72238036661,44520.89751015872,44434.12803818322,44305.136120931646,44237.96912884345,44219.640698390096,44222.12174202463,44208.26366046234,44144.42707829799,44115.816845395195,44107.25612726881,44086.40194969201,44062.887914525025,44037.719850268346,44026.47692280733,43992.837547402094,43937.11464847501,43858.14593531441,43814.67179234884,43775.39977734086,43763.86627720193,43769.543620293574,43767.75548073715,43786.598001312974,43783.51346057814,43774.63981802938,45639.021174791,45586.02518868747,45563.6063889988,45470.980759976,45370.42026167158,45273.860725624654,45200.81522474471,45174.306055820714,45147.08163107415,45116.347982448104,45049.806839204655,45002.71171363732,44941.49028557423,44859.21351423425,44815.15822591284,44750.38287048136,44644.681470952215,44527.3124608174,44369.4197379851,44237.96912884345,44101.73524638835,43951.41976492641,43793.41528337184,43628.01237440257,43406.77480778394,43190.49932843439,42976.16845085245,42766.10675646148,42558.12377430484,42268.31105569733,41947.92115067496,41661.05886233555,41436.9826241711,41226.29508093537,41019.250872045865,40818.35339288156,40578.76504406513,40303.860939009304,40036.84699974621,39832.686165891435,39605.07835210304,39367.926343432235,39138.061003453855,38913.96241354495,38745.36320511856,38572.96420013478,38420.48059946068,38220.208969141124,37992.444693141544,37835.82601974321,37737.634806351045,37576.366970106006,37429.27013984563,37286.46484452067,37176.29309610046,37104.007554532,37025.552931493876,36925.88650296766,36790.47963505741,36692.19901468742,36655.02806365825,36639.091269861616,36596.935879818906,36546.867972239015,36480.08095980656,36489.78161690016,36469.97797131276,36489.491044222246,36501.158654827916,36507.39479153095,36517.922463169394,36515.2179020903,36540.05069018015,36566.60456259306,36576.59579236458,36615.19725503889,36691.081427464655,36796.04521942678,36880.132482067645,36937.57646531778,36994.99809682347,37034.963015909554,37083.421597888664,37164.17845060569,37226.785686825,37309.442437820726,37445.7880789981,37519.2582630227,37598.025810483196,37632.000462055265,37661.25889554726,37705.828273991145,37776.772710892285,37882.004723787875,38007.71093460452,38078.521261038935,38178.88059364326,38279.6869611367,38323.116400613355,38364.73534878914,38471.46492856323,38489.726303783216,38546.9467695888,38646.814363815116,38720.686879239904,38787.29507771672,38873.997494458854,38982.73873123393,39103.34874431476,39183.300934231396,39184.41852145416,39231.42424004367,39319.08778179739,39376.42000632525,39420.51999813557,39570.16492726385,39646.47378283427,39622.33389882254,44009.86957667704,44151.08789814567,44305.29258314283,44499.70805641509,44689.40731160728,44816.34286836897,44949.00047171122,45070.30338887017,45240.087239752684,45486.872850283726,45643.111544026324,45757.95480703769,45910.01372456714,46090.325247088105,46235.79040000324,46342.11764837714,46516.841234784275,46676.00800705052,46825.161197800786,46967.541809981085,47051.293796455124,47112.694038473855,47221.36822001555,47353.15410532404,47488.24804881192,47591.08842505079,47649.76175424597,47731.12210406329,47843.1937507622,47929.87381575988,47942.74842056614,47965.9718830552,48067.67232032685,48120.69065817483,48125.78685591064,48117.87433837347,48143.86941717499,48105.71498938978,48049.50035208468,48002.628743961905,47951.934987537265,47924.35293487942,47861.16455330426,47752.758592696024,47631.32156507034,47564.713366593525,47527.20713939752,47366.27457931931,47180.59863812908,46984.39502530039,46791.27595320654,46603.945982926605,46429.28945175284,46233.935205213456,46063.749022930744,45841.371517344895,45581.5101363075,45278.0852053267,44961.293931161636,44678.097328912896,44446.30973891136,44203.43568366,43950.52569514819,43670.07835746746,43340.21131279604,43042.910759795996,42772.87933503143,42448.756688685025,42143.63302512563,41854.22263791831,41544.203942323205,41268.204601789075,41034.83003793121,40815.76059052475,40597.51815766313,40340.562503404915,40135.55230326084,39952.96090280544,39723.94492911636,39526.1766941758,39356.79517469349,39167.699416601594,38992.28292611634,38853.79151747126,38676.83275661859,38532.75341185968,38415.09382904695,38321.64118547931,38293.276821765525,38206.864977701305,38138.08866001233,38093.139301912706,38046.82648740131,37979.32421914628,37942.5555995173,37917.83457014973,37941.773288461365,38019.222082999004,38051.14037408118,38074.63205750371,38106.7962177749,38125.81755230636,38195.532643262464,38278.68113263621,38340.751926988596,38418.67010815979,38487.44642584878,38554.792231892614,38653.60929412953,38775.850984555604,38875.00332295935,38936.67178591154,38962.08571935722,38990.60654528219,39058.421737959594,39083.723912683,39136.83165750881,39224.98693764054,39327.849665623864,39359.72325321713,41776.32680849157,41630.01228928713,41438.413135816234,41247.46218293455,40973.85447905713,40718.59755737753,40524.20443584972,40333.54405564595,40119.05671585283,39871.64525647703,39619.76344821018,39418.50834113459,39262.359054369816,39034.952406281525,38832.08797360516,38624.03793621516,38380.31451467449,38178.612372709795,38071.927496424614,37959.47587006997,37839.96109246744,37762.020559551784,37718.211140419386,37600.372743651,37452.60536105697,37404.370296522415,37328.061440952,37296.634888247834,37307.47548430866,37267.30939952248,37264.001341343086,37297.59601325941,37309.28597560954,37356.984598277166,37450.32548312253,37556.920952429886,37649.770098897236,37764.50160318633,37865.844412546685,37984.95685874902,38137.97690129005,38312.61108071936,38484.42894034731,38612.482084331765,38739.015309693255,38906.22870996341,39068.569429942305,39272.8196707749,39463.79297540104,39663.706977809314,39888.45376830742,40095.31916324129,40261.81730768887,40457.23860946162,40682.231269148746,40990.931211820985,41236.30866245135,41438.547246282964,41627.397135185856,41766.13441301995,41965.08729041664,42201.0099531424,42354.56643755036,42465.87812493779,42583.94003915072,42734.99312817969,42886.33678988657,42994.92156445045,43125.92513870301,43266.11527992669,43384.51247030646,43484.62593372178,43537.42075412521,43625.55368251249,43702.19781424973,43738.854675156435,43777.299675619564,43742.11802984691,43699.582660148466,43646.34080485592,43635.880188450836,43678.92964827176,43594.95414435317,43445.108049524795,43300.20169022104,43207.37489549815,43057.68526288096,42941.970281835835,42881.44175785086,42848.204713845815,42773.88516353192,42661.411185432815,42547.03730905501,42429.89181636475,42322.75990519046,42241.73483153997,42191.06342685979,42145.711737359976,42057.02001536131,41981.828747013664,41927.67047019845,41876.79789981817,41831.245044618256,41734.19377019331,41627.41948693031,41560.74423322013,41584.30297187602,41600.28446916157,41571.22720136967,41550.618892981875,41547.37789003586,41559.69370123073,41609.962774510714,41658.68957742328,41620.98218452719,41579.05031192903,41622.27858570559,41669.10549033946,45783.838127116935,45777.24436250262,45788.57669694146,45786.2074120292,45711.86550997085,45627.35356418533,45560.36538605278,45466.733928529495,45351.84596202922,45190.600477528635,45014.848710876555,44860.71108111276,44731.67446037227,44547.652548271726,44348.9678918085,44150.99849116785,43954.392546938965,43697.950982803224,43528.9717947211,43399.59989781379,43209.11833156566,43049.70569011041,42916.15401698995,42766.88906751741,42660.517115654606,42634.90201650882,42541.02468979653,42399.22522297206,42324.48098951352,42250.38495664418,42167.88466785964,42104.22689965092,42067.83825967768,42027.828637102684,42036.5234656958,42025.101724279135,42043.832486132684,42131.89835928659,42230.69306977905,42310.824073651325,42387.82583329986,42498.802244520455,42612.72908600916,42708.23809006668,42797.1533295099,42933.02958405371,43025.364640398584,43152.6354733271,43309.3212019588,43502.641439752755,43729.64575644085,43951.732689348784,44158.41927032701,44345.816295840305,44519.04231536893,44759.07769907447,44981.67872210488,45192.27685836278,45463.29175988338,45713.60894603836,45876.01672125062,46115.09097994459,46394.644247847114,46680.076024541384,46896.68678005777,47108.60366923853,47347.09678257666,47621.10681785427,47923.43651335675,48236.3832874755,48560.70709952201,48817.72980901359,49050.61263449343,49300.773358437225,49574.470469292464,49787.415538718175,49940.03324985901,50121.88704274739,50369.85729573456,50658.28420618585,50889.91533397619,51074.518391432575,51253.77938196414,51490.64081795703,51779.335949341774,52018.4772632691,52207.21539344972,52408.76107320322,52683.53106779231,52942.92306219615,53102.447462373675,53261.614234639914,53457.080239901574,53690.38774852607,53926.22100427401,54122.223451402606,54280.29498819054,54508.036912445656,54774.93909298648,54926.238051204455,55043.02591598343,55136.50091129552,55328.59180314444,55510.959686155285,55687.94079875241,55857.14350427908,56010.69998868704,56162.98242366105,56356.28030971054,56528.85812864997,56706.01805520273,56809.28311458625,56885.97194981241,57043.14941682213,57198.6505029977,57348.96598445964,57453.63920374384,57506.590486358466,57589.73897573221,57659.99050855524,57695.976817128285,57749.3304311431,57767.16712321844,57786.16610600545,57836.435179285436,57893.00744450182,57975.35127107517,58005.81669876775,57978.50286704337,57951.25609055234,57956.03936386578,57951.54666323026,57944.28234628229,57932.74884614335,57877.383575127555,57849.66741200297,57869.71692677939,57763.72495457232,57662.71742137879,57598.18793513632,57528.67400988031,57445.346706550925,57296.86406813432,57207.92647694665,57169.012089849966,57072.787829969864,56949.60736627667,56905.88735412209,56792.541657989226,56650.406914997926,56491.39660494288,56320.60692555987,56179.63447328025,55978.580531904765,55802.337026874666,55655.173141380925,55481.14245905191,55260.01665115555,55135.87506245078,55035.9404129911,54941.616051389705,54786.65140708106,54618.566288777154,54486.154554623914,54333.13451208288,54148.86673079333,54019.248964697006,53867.05593670082,53747.33999339819,53626.5064628728,53424.49139648574,53202.3597600889,52940.95610868408,52714.778806540824,52479.52669614872,52197.09005321146,51941.27433792047,51660.983462450924,51314.19614722683,50994.119166626835,50678.42312794008,50356.42389731693,50006.12735821335,49693.49350851697,49426.3678105316,49133.559958167076,48810.46549206561,48442.913406242544,48141.544835751636,47882.84574542591,47555.973834511504,47262.6071885356,47036.80986604808,46768.18660118421,46535.504941404455,46312.52393871832,46095.82377622411,45932.09724808899,45803.127682581864,45625.81129381792,45446.70676549754,45250.436097435486,45126.09334303062,45003.85165260454,44854.7878688321,44735.09427727393,44604.49303442157,44485.29118124142,44339.53545564836,44231.53182644032,44087.564240403684,44001.17474808392,43942.38966016647,43882.12935711496,43838.99049031622,43827.993432044204,43815.409399915865,43736.12776233289,43661.674101552264,43569.897838818775,43517.70651551563,43462.27418926647,43445.82330534736,43430.69117435112,43390.68155177612,43416.67663057764,43436.5026279095,43444.5045524245,43496.02532339398,43551.77057406552,43580.24669650158,43581.09606279088,43574.81522259894,43625.888958679316,43635.00847041708,43659.997720718115,43723.78959939356,43791.51538509314,43759.977073666705,43752.95862590774,43805.127597466424,43813.95653652627,43804.5911555995,43796.321010151034,43851.95450210029,43957.36532895152,44026.00753617377,43995.31859103663,43963.93674182138,43936.73466881927,43948.06700325811,43961.00866329773,43964.40612845494,43914.09235168605,43876.58612449004,43815.67762084933,43739.5252274901,43675.77805230356,43663.39518587532,43606.84527240339,43560.55480963645,43555.12333573381,43628.57116801395,43664.84804926492,43690.79842457753,43708.99274456415,43729.198721551744,43773.70104476226,43804.25587943267,43855.039042835124,43907.52093881618,43932.33137516158,43963.04267204317,44029.98614668681,44055.24361792131,44088.123034015065,44150.5738080232,44224.22280600343,44242.819457390244,44315.686144314546,44374.29241827636,44435.67030855064,44443.26990166544,44437.57020682934,44436.340860884295,44488.085149298335,44527.5583300064,44595.038246516975,44638.802962160466,44691.82130000846,44720.76680907808,44684.42287259375,44681.94182895921,44677.113852156865,44749.9134838478,44847.85882805095,44939.6574425289,45031.120780840014,45077.00891220676,45122.427656939944,45227.033820990786,45310.67404874254,45367.24631395892,45366.73222383645,45408.79820690134,45519.43934195511,45632.04743052095,45667.76551816053,45704.57884127842,45745.750754565095,45767.61076064238,45769.95769381019,45793.33761851044,45840.1198196554,45900.17895700681,45938.33338479202,45939.27215805914,45969.91639970737,45997.76667329868,46008.27199319268,46042.78308663167,46077.74121495977,46047.25343552273,46020.29723170963,46022.13007475497,46063.54785723065,46092.918049444925,46153.46892517435,46169.18220152643,46187.778852913245,46228.749600499825,46198.1053588516,46137.733297077815,46121.32711664762,46105.010343195245,46063.01141536372,45900.402474451366,45837.035278920564,45751.78572556803,45631.26511946501,45494.24892595398,45334.322194376255,45160.87265740307,44959.058756716106,44776.75792893862,44533.70505973161,44272.45787053798,44023.95117568388,43827.83696983301,43595.267068775545,43316.83138809579,43047.98460578735,42781.57416362455,42529.20061697967,42350.72193750405,42150.83028684024,41987.88606976105,41830.50743705123,41646.28435925059,41447.10796440935,41317.11021865728,41128.28268149885,40953.55909509172,40858.318311967654,40721.436228923354,40618.662907917846,40480.663237650784,40335.8686370693,40282.5597265434,40258.30808380939,40257.70458670909,40234.90580736468,40195.3879231677,40201.75817033746,40220.95831882457,40232.51417070797,40241.05253708989,40328.42550616569,40393.916117419736,40380.46036725764,40357.058090812934,40341.83655283887,40365.06001532794,40422.43694334471,40469.04033053402,40593.02545702761,40719.98336553376,40814.486541090795,40933.129600659566,41051.39268057259,41108.68020161155,41158.25637081342,41278.195831560595,41402.44917898765,41488.95043002968,41631.84513233246,41804.42295127189,41924.00478410778,42058.6293409621,42150.22678973994,42276.60355289025,42388.58579261134,42452.4223747757,42545.89737008779,42670.12836577039,42790.246640473204,42910.00728726474,43011.21598615837,43059.65221639302,43064.033158306265,43133.681194029,43188.62178190015,43235.67220397857,43252.61482627569,43281.00154173393,43323.246338754456,43313.00923979393,43348.81673441133,43423.18098821414,43443.81164834638,43463.32472125587,43518.68999227166,43529.08355344338,43571.842440586384,43636.3495750844,43648.44186883472,43686.79746232003,43724.84013138296,43763.17337312381,43764.35801557994,43814.515330137656,43893.95342993181,43957.00770104024,43998.76075968275,44040.022079947244,44124.08699084366,44232.492951451895,44300.41990285157,44351.65010114314,44438.017241718444,44538.15305687822,44657.62313099184,44735.965995307684,44788.11261512192,44853.89379905388,44983.84684131704,45122.919395317964,45165.8123929277,45242.121248498115,45389.08396829176,45478.84857402427,45530.52580720494,45625.431314162175,45742.80032429699,45811.0625518635,45883.817480065525,46039.430324963374,46171.93146609444,46265.60762710663,46356.31100610626,46490.91321121612,46598.89448867971,46678.31023672941,46786.269162448545,46932.20370199725,47048.298662698115,47165.19828619937,47256.03577566574,47266.02700543726,47307.64595361304,47448.84192333722,47549.71534606402,47615.31771604034,47670.414766122674,47671.71116730108,47660.64705379571,47688.54203087593,47725.087133060355,47770.70704349364,47788.499032080064,47793.259953649045,47822.406628418765,47819.70206733967,47856.29187301301,47854.481381712125,47886.53378326104,47919.77082726608,47875.55907673348,47908.729065505155,47988.79301414407,48009.7813021876,47975.359615726426,47987.250743776654,47963.73670860967,47935.97584199618,47863.42207949425,47747.036546115465,47686.9550570196,47613.77544567292,47486.81753716678,47334.445695214956,47126.730933991785,47009.89836572389,46818.61213667538,46532.97919428101,46267.1722492185,46058.58576996157,45817.03046763307,45573.9552466816,45341.318290390765,45151.41786949848,44979.44354765935,44786.48093777668,44568.70789154863,44391.16798534012,44220.71358212395,44025.18052162892,43805.90990852236,43630.53812152602,43496.89704142774,43303.465044911514,43128.31677535972,43046.129410997564,42946.30652026016,42860.453469807326,42831.776181671165,42768.856021029475,42714.831854681004,42694.491767226675,42676.230392006684,42652.470487650695,42628.57647282797,42584.54353625102,42628.64352806134,42723.079648385006,42790.268992217665,42854.75377497122,42950.73216566231,43057.14882101403,43151.02614772632,43227.335003296736,43254.9617594435,43340.41247849613,43527.13895167577,43695.17936649077,43880.497679769716,44076.36601643157,44264.925332656545,44401.539194767385,44592.57955462689,44742.269187244085,44853.44676416478,45036.507551253744,45248.759716601344,45508.554042405376,45759.11709774937,45970.76576599667,46167.08113754763,46376.94166623851,46625.42600934816,46842.75202068711,47063.90018032792,47282.38848237854,47534.2702906454,47772.40577607224,47956.53944689506,48061.9949772352,48176.570019313105,48288.84283171211,48367.833896617165,48476.77629909233,48564.28337863486,48605.14236749916,48667.90606592966,48700.71842679005,48758.900017607215,48846.854132038854,48894.19512679519,48925.33110682143,48988.631247118865,49002.198756003236,48991.559325642505,49043.39302103437,49045.538788502075,49007.7643403726,49008.01020956162,48999.62830539088,48970.07929922096,48922.06775213096,48902.86760364385,48890.90942036026,48882.34870223388,48896.16208030726,48906.287420545515,48888.584838936906,48867.64125438229,48897.592591952394,48931.34372607991,48984.45147090572,49020.68364866777,49036.106352341936,49103.3403996635,49159.37622301296,49179.04575813362,49196.45776706431,49287.16114606395,49409.24637427883,49513.20433774046,49660.032947067375,49783.90631483869,49858.62819655278,49859.566969819905,49891.41820566871,49884.645627098755,49922.621240928325,50005.747378557615,50098.30595234704,50185.99184584521,50266.18990495085,50311.519242706214,50301.751530379246,50326.33844928008,50397.88638328152,50442.20989253639,50479.447898798935,50528.53232962279,50583.13764132711,50610.74204572941,50619.682743511534,50673.08106101526,50744.2266636165,50734.50365477844,50684.94983732103,50655.91492127359,50640.53692108833,50612.284316096826,50607.25517359438,50566.709109152456,50535.014335514825,50526.923004022006,50522.13973070857,50555.68969913599,50542.680983863,50534.41083841454,50529.985193012384,50485.54992503523,50443.68510767044,50449.56361646219,50403.13904322852,50325.24321380177,50282.797251081145,50302.511489690725,50283.44545167035,50247.99558496423,50147.01040351515,49982.97095095766,49724.65184028767,49499.592125367184,49292.32439903312,49047.75161120315,48824.27887013899,48623.33668748578,48412.29151633877,48192.46210962083,47981.64045591837,47709.75383636401,47394.50483256637,47141.70660277684,46848.87639866786,46539.12592400622,46285.05364478274,46052.371985002996,45865.95843624573,45683.456442768154,45502.09438825779,45276.20765879246,45089.34707514609,44961.226875928274,44834.268967422126,44737.24004474164,44634.24320629158,44525.43491428315,44442.0405557204,44387.904630649646,44323.464551385,44344.16226675061,44340.02719402638,44332.58406312276,44308.35477213321,44320.223548438975,44344.47519117298,44347.64913888564,44396.66651447613,44451.60710234727,44497.8528616253,44563.3211211349,44634.37731675831,44671.14593638729,44777.89786790584,44941.82556174106,45069.56578130314,45236.7791815733,45350.25898817289,45475.16053618915,45594.00476145801,45681.3330270449,45839.628081277384,46017.16798748589,46153.35716645207,46265.69703408445,46355.81926772824,46495.29415312936,46655.556160873915,46803.01061904557,47002.9469731983,47152.323681393114,47370.11907936562,47543.1215814497,47627.54412025739,47735.39128725425,47836.443523936694,47886.578486749946,47903.990495680635,47983.897982108356,48101.08817828753,48180.59333331506,48309.96523022238,48390.7220829394,48466.762717576355,48470.56251413376,48429.144731658074,48443.06986845373,48490.18734576552,48479.65967412707,48520.80923566929,48518.5517094793,48489.27092424285,48514.23782279943,48518.775226923855,48515.37776176665,48551.29701510633,48593.69827433804,48576.174506685085,48587.73035856848,48619.69335313956,48628.522292199414,48641.039269094385,48691.48715633001,48698.41619711115,48664.57565600582,48646.29192904138,48652.77393493342,48719.56094736588,48754.74259313853,48710.12851120574,48718.152787465195,48759.525866451964,48816.165186901715,48839.366297646324,48887.64606566979,48898.57606870843,48903.35934202187,48931.00844991308,48969.56520909849,49003.517508926096,49043.61653847892,49066.72824224571,49051.819628694015,49051.43964903828,49104.50269037518,49109.151853221876,49152.424830487354,49222.83282552157,49315.525509777726,49377.261027963286,49437.40957229252,49508.44341617148,49538.23829153041,49546.79900965679,49552.11872483716,49590.831946233746,49609.6074115762,49651.44987719654,49714.54885179387,49753.150314468185,49764.192076229105,49762.18041922813,49766.20373323008,49802.41355924768,49837.30463234242,49885.09266198787,49999.868869765865,50044.57235867648,50024.76871308908,50005.99324774662,50022.69000085473,50034.17879750476,50005.725026813154,49995.01854121906,49990.79406151701,49948.79513368549,49928.05271483096,49894.70391210364,49829.213300849595,49773.11042226678,49707.84332845728,49583.94760894151,49432.64865072354,49276.74523314777,49176.140031354436,48999.56125015751,48751.41218321469,48484.13002301813,48235.82449386412,47997.9795811152,47698.68972285864,47438.69423135451,47208.62772567603,46967.02771985862,46691.408358980225,46441.73937341444,46164.086003790624,45894.18868949279,45647.55954117293,45446.77382073091,45273.97248434693,45032.90892039644,44844.21549370474,44658.04781413649,44447.47202962304,44228.0896577942,44013.669373234436,43870.97583663176,43733.266739042614,43608.72281893764,43505.39070432076,43384.423063328635,43274.385425375156,43218.37195377016,43199.88706110562,44892.11528207246,45078.70764478536,45215.701486551945,45359.87023828867,45512.91263257416,45693.7829487065,45893.22756448121,46069.62753172249,46163.48250669033,46286.86413608362,46447.774344417376,46584.92464839514,46686.938010089165,46844.026070121065,46974.62731297342,47060.77093610417,47147.003966212746,47216.62965019103,47306.08133150117,47425.05966723677,47511.963249679,47596.519898953426,47695.67223735717,47862.43860273822,47984.90381060884,48089.57702989305,48220.670011123424,48301.67273302946,48392.39846377355,48497.2952005023,48582.79062304385,48668.75543221896,48791.980599401075,48881.946370833684,48915.921022405746,48957.98700547064,49015.185119531765,49073.210248137744,49110.828234056025,49186.98062741526,49360.94425451091,49472.188886664975,49525.52014893534,49571.609446002185,49623.64430709414,49698.18737485258,49763.3427099398,49895.53092664849,50006.48498612463,50050.11559130139,50040.414934207794,50100.317609348014,50167.55165666958,50199.69346519631,50227.29786959862,50265.40759389491,50320.48229223279,50391.292618667205,50456.89498864353,50506.58291656768,50527.21357669993,50560.048289304774,50613.51366204186,50678.73605236245,50711.14608182265,50712.375427767685,50746.5288932954,50784.81743154734,50819.283821497425,50859.78518245044,50903.95222949413,50957.41760223122,51012.69346626919,51092.91387711929,51136.36566834041,51117.18787159776,51123.20049085623,51181.51619214013,51264.038832669125,51262.83183846853,51226.0408670951,51247.69970747229,51276.71227177528,51251.43244879633,51227.76195141816,51251.879483685436,51280.84734449951,51291.59853358252,51264.57527453605,51262.74243149071,51207.84654710848,51169.312139667534,51144.81462774451,51151.56485457002,51216.362561745955,51275.505277574695,51224.09626532749,51119.84772918794,50977.35535828536,50839.10981882928,50700.68546541756,50594.4923275104,50415.67837186794,50123.45166485926,49870.116993202806,49666.202028537045,49385.084138522645,49100.03234148411,48868.66943462723,48633.59613819077,48356.09923077813,48074.13197447443,47818.003334761066,47491.01966512438,47148.81445751363,46850.731593457655,46513.17554869361,46176.69238766342,45855.25195065164,45607.79578778694,45356.71864232048,45078.05944419616,44853.64792986488,44698.25860241158,44574.36288289582,44453.328186670326,44332.65111835612,44170.064529188225,44098.44953995342,44030.96962344285,44012.551786011674,44027.8403792191,44065.92775177095,44091.63225789455,44105.535042945754,44135.8663601716,44221.49589317988,44341.99414753845,44462.73827108601,44624.00610733105,44758.89888511883,44862.92390381383,44971.10634697752,45164.515991749286,45367.1569069811,45523.932042590626,45699.77321622053,45941.14970459339,46186.32598952365,46419.23116674795,46638.054744965404,46871.921047201286,47061.66500588239,47214.95326935688,47338.357250494635,47486.281095299855,47650.2981961129,47861.075146326446,48055.24475040969,48205.426121404904,48383.346007269145,48516.383590267134,48632.0762195678,48787.53260225447,48941.804342485,49083.82732675401,49225.98442148977,49413.82848189217,49581.82419321826,49680.529496732895,49830.33088807236,49941.97785162662,50058.944530361245,50209.17060484536,50357.452077561866,50474.37405280758,50555.220312502424,50626.85765348168,50750.485152063986,50839.24392929601,50869.66465349968,50951.76261088403,51022.05884719597,51102.81569991299,51145.77575275609,51163.299520409055,51189.51811665513,51233.12637008743,51275.88525723044,51353.803438401636,51437.488369642306,51482.795355653216,51505.88470767555,51490.1043760901,51498.06159711619,51542.87684474908,51553.35981289862,51551.862246020115,51585.7251388699,51595.49285119687,51575.10806025363,51654.45675306997,51708.659733374094,51749.29520479384,51762.080402622276,51764.04735613434,51869.525238218936,51953.32192818188,52057.34694687688,52177.15229715733,52336.31906942357,52497.72101613534,52592.17948820347,52685.207448626454,52793.233429578955,52918.53730899541,53092.61269481334,53215.904917228814,53337.56546229905,53443.53508276166,53601.62897129405,53759.27582493733,53889.1171084782,54008.6989413141,54146.184521458694,54249.226063397655,54395.62998957992,54565.19032301788,54721.87605164958,54894.230353144456,55015.04153192539,55127.53786176895,55266.38689832531,55432.527414861615,55522.761407227685,55591.78359410568,55722.09426428012,55831.215480710925,55966.15296198762,56086.09242273479,56144.6539932077,56277.11043084985,56408.382226035865,56492.67065437683,56617.50514715972,56743.121950998546,56803.918695916975,56860.066277988706,56940.55490977227,57042.8141406553,57117.71483632503,57137.25026097897,57181.26084581147,57245.90209077622,57333.29741159647,57356.856150252366,57419.821014382964,57547.7847513896,57602.12184216045,57614.817633011065,57630.26268842968,57575.05387962507,57463.54102653755,57326.25661209305,57178.086898098816,57040.60131795423,56863.553150123735,56634.44776945684,56432.65622051433,56155.15931310169,55839.01623952583,55500.23084881674,55236.12263633283,54933.1670919856,54594.649922209974,54234.22804286815,53895.688521348064,53531.51154893775,53102.67097981823,52685.76624223784,52350.69124110833,51986.78248963148,51629.57926149121,51278.09807993151,50945.16884626971,50565.54681844078,50263.4629921273,49972.15270664128,49647.314804472306,49320.50994879126,49057.31815783002,48834.73948654407,48552.30284360681,48321.67754431695,48077.61884660946,47826.27348020953,47655.170876404154,47453.37932746164,47242.02123189226,47108.15663434943,46953.92959760781,46802.04949403399,46675.98565530606,46520.3281069193,46382.64136107462,46290.95450531894,46263.05952823872,46165.42710845794,46114.241613655286,46076.08718587008,46020.31958345408,45970.09521366301,45951.11858262045,46002.75111231222,46014.73164734026,46008.29434493713,45945.86592267346,45947.72111746325,45994.36920814148,46047.25343552273,46104.13862516149,46139.5884918676,46152.57485539614,46202.86628042058,46277.0740720122,46315.74258991988,46371.55489582478,46407.585907886736,46468.62852199418,46534.76733383743,46545.295005475884,46514.315487660824,46475.15523137513,46450.74712642993,46487.694560014555,46493.707179273035,46535.303775704364,46567.44558423109,46550.45825844506,46511.38740913718,46522.56328136483,46510.18041493659,46510.38158063669,46524.731400577,46475.892838942156,46421.37693421566,46405.820120074764,46371.17491616904,46324.30330804626,46363.30710212077,46348.085564146706,46265.49586838435,46218.66896375048,46224.30160335322,46201.12284435306,46189.92462038095,46171.484431205325,46187.37652151305,46159.28037873273,46046.02408957769,45954.784268711126,45825.12179912589,45699.34853307588,45588.662694533195,45505.6930191151,45460.47544008201,45375.98584604095,45264.45064120897,45194.646143275044,45129.356697721094,44977.14131798045,44859.12410725643,44789.00668490013,44706.7522653046,44584.08589173388,44411.88805245019,44281.778547975846,44222.74759086938,44159.35804359413,44092.12399627257,43999.56542248314,43873.88156341095,43758.434803299286,43668.334921399946,43656.46614509418,43625.196054601205,43555.30214968946,43511.313916601415,43495.48888152705,43544.55096060645,43551.72587057661,43583.35358898087,43539.99120473757,43488.00104713453,43487.08462561186,43479.015645863496,43512.699724757644,43569.5849143964,43583.91238259225,43669.6089708339,43768.582495282,43812.01193475866,43816.97402202774,43750.41052703983,43772.695216261774,43850.72515615525,43897.73087474476,43964.6296458995,44024.80054197318,44118.99079310785,44216.824378588724,44268.72512921395,44260.387928532116,44249.43557374902,44335.042755012844,44386.2282498155,44419.66645952064,44487.07932079784,44521.568062492384,44544.72446974808,44540.25412085702,44550.781792495465,44643.005090118066,44681.4947940701,44647.944825642684,44578.050920730944,44547.00434768252,44486.65463765319,44392.26322081843,44330.17007472159,44216.37734369962,44067.04533899371,43888.79017696264,43686.19396521973,43486.39172153374,43314.39504795016,43080.86402188111,42812.46427446178,42573.45707100118,42392.07266474637,42217.79611322834,41998.10081697712,41758.64657862742,41542.795782422516,41360.58436162286,41168.359359307215,40930.98383319186,40645.26148381967,40420.51469332155,40176.768920036426,39976.43023448351,39834.16138102548,39674.23464944776,39520.6781650398,39390.12162567635,39273.467871364104,39167.0959195013,39077.532479468886,39043.49077266345,38985.39858882411,38860.13941289657,38827.32705203618,38889.666067322025,38969.90882991658,39005.87278674517,38975.92144917505,38920.019736292335,38904.641736107085,38974.960324163476,39055.985397813965,39130.439058594595,39221.745934694525,39348.74854668958,39494.168996115804,39571.148404019885,39636.19198038483,39710.91386209892,39814.424790671444,39927.03287923728,40052.67203482056,40217.493798434,40398.386466310796,40583.74948307866,40773.91812490441,41010.9807265974,41270.21625879005,41442.123525395815,41571.115442647395,41752.00811052419,42011.42245667249,42252.441317134064,42409.48467367705,42573.747643679104,42792.012428285176,43055.13716401305,43283.66139932411,43471.12548007077,43659.34952012891,43800.1878619418,43960.31575921962,44140.292005573756,44292.19446089202,44382.20493581354,44494.96948659056,44580.04022598746,44680.55602080298,44849.98224377421,44939.2551111287,45009.01490557372,45047.32579557011,45106.557918376675,45168.13697435105,45210.85115800514,45297.79944393629,45411.793340658354,45434.81563744732,45508.598745894284,45609.136892454255,45715.08416117241,45762.8498390734,45785.022769573065,45792.55530745451,45806.078112849966,45814.460017020705,45911.73480889021,45945.262425573164,45933.32659403403,45953.97960591073,45961.08746064752,45942.42375402734,45903.50936693065,45935.47236150174,45985.316751637074,46030.10964752551,46093.901526200956,46174.23369577333,46234.44929533593,46291.6250576526,46408.837605576235,46494.53419381788,46588.925610652645,46755.82608650042,46946.017080070626,47050.1538574879,47200.91637383895,47360.68664320548,47532.43744760007,47727.43406622816,47908.41614108279,48127.50794023371,48330.61824209908,48510.41567449757,48688.11204291726,48904.40987401127,49190.13222338346,49405.49128121034,49590.541373555825,49808.76145467299,50020.141901986826,50235.43390458035,50498.42452984149,50770.557018584856,50974.80725941745,51136.723296251694,51253.64527149741,51375.819906690114,51530.00223994282,51651.483971057416,51745.87538789218,51915.48042481905,52062.264330657046,52114.634467915836,52181.08620418146,52236.49617868617,52185.28833213906,52126.41383724378,52131.59944195741,52127.53142446654,52042.885368214294,51939.10621870831,51886.80313668289,51857.45529621307,51834.634165124204,51808.7284933005,51793.99869370445,51743.461399491,51619.1857003195,51473.16175379298,51315.15727223841,51125.30155483503,50939.089171777865,50712.77775916788,50456.62676771006,50161.092002522,49834.756533474516,49506.56586963724,49198.134147898454,48918.82674918494,48603.845966320754,48188.25998166323,47743.28145304698,47313.45740717142,46897.31262890252,46446.56735021679,45966.42952757234,45495.14299573219,45042.05078387866,44567.32208339239,44074.980208275345,43638.763563485576,43236.074535378764,42850.64105399144,42461.25131383554,42065.088995109676,41684.17056610234,41337.51736134498,41037.10991586565,40734.42259245188,40462.15599324179,40223.64052815921,39988.52252823383,39740.23935082428,39477.896926152345,39222.036507372446,39028.515103878395,38871.6729130355,38705.13006509901,38588.47631078676,38510.87105403794,38452.55535275404,38363.48365109965,38283.88908909429,38207.44612305715,38156.64060791023,38120.184912703626,38147.96813106157,38195.17501535118,38256.46349864763,38265.56065864094,38298.41772299024,38374.234840182646,38450.65545447534,38565.74458667572,38702.246690064276,38795.45346444291,38935.35303298867,39105.338049571285,39291.34926692835,39504.33903984297,39677.72152158279,39879.62482924758,40035.23767414542,40227.797952627894,40449.37079541335,40648.05545187658,40866.27553299374,41078.17007043005,41289.237593321515,41498.09229351191,41701.62727852193,41870.71822532633,42004.761636824805,42191.66692396008,42410.06581903289,42628.33060363896,42816.17466404136,42998.94487845241,43204.31270650777,43369.939132921594,43531.8775215003,43675.39807264782,43785.279248390114,43926.765790792204,44074.51082164179,44251.76015517237,44397.73939820998,44565.37748162478,44718.59868986591,44914.89170967242,45186.59951527113,45420.17524482909,45704.064751155944,46008.316696681584,46272.33550218767,46499.161004920126,46778.82603154493,47150.513190092235,47470.2548945254,47751.372784539795,47996.45966249224,48298.498785316806,48555.34268085274,48823.60831780533,49076.853582483964,49295.78891942369,49628.94167053005,49877.381310150784,50083.95613240673,50281.70201560283,50470.75307020582,50649.09763921471,50756.38601260019,50896.0620637014,51105.341447036444,51303.91434477739,51461.449439698394,51571.48707765187,51625.91357540055,51683.51402086187,51791.16002215863,51935.37347738427,52146.709221209196,52308.08881617652,52441.5287305747,52607.825709322184,52785.63383646415,52937.75980922697,53106.291962419986,53293.018435599624,53480.504868090735,53676.77553615279,53912.541736667365,54075.150677579724,54276.40578465531,54450.503522217696,54581.39533774798,54734.66124947801,54843.76011416437,54894.05153918881,54985.380767033195,55101.922762623166,55240.86120615736,55313.77259657057,55390.372024818906,55483.42233698635,55571.152933973426,55601.707768643835,55634.073094615116,55646.14303662098,55690.73476680932,55783.76272723231,55792.79283199225,55789.17184939049,55822.38654165108,55838.36803893662,55799.967741962406,55808.30494264424,55784.3662243326,55747.41879074798,55723.12244452506,55732.19725277391,55712.572421142155,55687.94079875241,55694.37810115553,55676.07202244664,55661.1410571505,55635.52595800471,55637.3811527945,55605.753434390244,55523.543718283625,55455.05797327256,55401.39143483537,55362.5664547165,55260.28487208902,55206.7300923741,55127.157882113206,55053.531235877424,55023.84811924078,54938.330344954775,54846.554082221286,54734.46008377792,54610.96669566235,54508.26042989021,54348.914843668324,54234.473912057154,54138.29435566597,54075.709471191105,53959.41334479015,53855.05304992832,53746.13299919761,53628.56282336269,53457.639033512954,53276.61225516943,53100.54756409497,52931.76954171295,52725.95467876848,52405.54242200166,52082.179734966725,51800.97243797451,51504.92358266396,51141.774790498595,50758.66589053463,50310.78163513919,49883.9750747651,49445.3220898297,48991.26875296459,48536.455456788004,48119.97540235226,47750.90339790624,47374.365910812136,46964.65843494635,46548.33484272181,46105.81500599563,45650.21939876311,45258.23685625039,44810.17378689931,44416.47016006353,44074.66728385297,43705.8187968515,43345.86630414323,42997.11203540707,42686.869822367415,42432.954005355125,42165.60478992519,41907.53154844422,41695.614659263454,41465.81637451844,41259.82269761833,41084.92029725556,40909.95084165941,40754.67327292839,40680.04079819212,40583.61537261193,40519.68938346975,40489.469824966174,40429.67890854823,40391.2339080851,40313.449837380635,40265.706511224096,40255.44706051911,40238.95147311109,40199.45594065857,40245.88051389224,40286.314819611885,40312.55576760242,40385.95889639365,40489.000438332616,40505.09369434043,40486.38528423134,40507.798255419526,40532.85456095393,40668.95433294229,40771.66059871443,40829.52926510922,40926.73700174534,41002.174139282004,41075.1972884175,41166.52651626188,41312.3492970883,41401.57746095389,41553.81519243899,41694.02768540713,41772.527011934166,41873.51219338324,42019.513788165306,42139.274434956846,42160.62035091166,42176.42303424156,42256.24111369147,42319.67536445563,42377.20875468359,42401.23687997304,42377.83460352834,42370.726748791545,42362.38954810972,42308.8347683948,42282.70557912655,42277.58702964628,42291.9815530755,42312.3886957632,42331.05240238338,42320.882358656214,42363.462431843574,42367.75396677899,42383.735464064535,42373.83364127084,42335.12041987424,42295.06609381033,42220.075991162776,42197.38897054064,42179.06054008729,42124.20935919397,42058.383471773086,41993.11637796359,41924.518874230256,41860.65994032144,41832.22852137429,41834.82132373111,41807.50749200672,41780.39482598243,41753.79625008062,41717.20644440728,41689.42322604934,41655.40387098835,41625.6760508628,41577.44098632825,41527.84246538192,41533.586863706936,41597.62461157139,41641.61284465943,41627.33007995249,41615.95304202474,41627.33007995249,41617.83058855899,41634.34852771146,41634.23676898918,41633.45445793324,41648.83245811849,41678.15794684386,41736.518351616665,41816.4705415333,41858.380062387,41887.50438541226,41925.904682386485,41937.32642380315,41982.14167143604,42046.84997163415,42119.47078936944,42207.67077299008,42308.454788739065,42375.46531861607,42444.08517409387,42525.22200646663,42580.76609143807,42667.714377369215,42746.23605564071,42800.103759777994,42891.67885681139,43032.53955036873,43211.241747288914,43336.14329530517,43428.99244177252,43574.85992608785,43698.0627415255,43815.52115863814,44006.02507663072,44114.05105758322,44170.80213675525,44194.383227155595,44284.1031293992,44410.30107859386,44515.823664167365,44601.184976242184,44665.6921107402,44778.74723419514,44871.57402891803,45003.315210737615,45192.902707207526,45343.911092747585,45470.35491113125,45566.355653566796,45718.92866121873,45875.81555555052,45984.8026615146,46102.17167164942,46230.62714703407,46333.55693025076,46523.18913020958,46677.39381520675,46789.39840667229,46889.71303578771,47007.953763956284,47165.24298968828,47309.74701759184,47407.78176877282,47524.234357384965,47632.08152438182,47738.60993845582,47863.69030042771,47936.95931875221,47943.50837987762,48040.89493046939,48149.09972537753,48237.45617120936,48322.258689672795,48369.53262919577,48418.728818741896,48422.26039436584,48390.140937583565,48341.70470734891,48302.32093361866,48235.66803165293,48136.40393452692,47973.37031046991,47816.103436482364,47649.98527169052,47403.04319894829,47152.949530237864,46894.362198634415,46610.56209928538,46308.098293316165,46003.60047860152,45721.00737345307,45417.98477387247,45111.02826726774,44747.812419869,44398.40995054364,44066.44184189342,43762.905152190346,43425.32675568185,43101.494682013355,42824.42245774537,42612.21499588669,42381.34382740782,42136.63692911112,41869.71239682584,41670.08896709549,41481.46259563716,41273.859593136265,41069.855221492675,40924.25595811081,40708.53927237264,40595.730018106704,40550.51243907362,40487.525223198565,40406.52250129253,40348.13974477527,40350.285512242976,40366.66934092872,40470.35908345689,40592.17609073831,40630.37522201243,40634.30912903656,40710.327411929065,40801.410770584436,40882.435844234926,40943.63492055356,41058.50053530938,41239.59436888628,41430.83589444589,41567.472108301175,41727.421191623354,41933.526627245745,42162.408490468086,42353.09122241631,42608.973992940664,42818.029858831156,43052.25378897831,43325.705030644545,43587.66747566074,43827.211120988264,44032.15426589898,44222.43466644701,44393.53727025238,44561.890609489754,44767.95134162323,45038.87683616601,45298.40294103658,45456.98856794698,45607.84049127585,45842.89143596786,46113.30284038816,46332.95343315046,46487.18046989208,46641.11693395578,46793.57818288543,46892.79757652254,47065.53185767315,47177.17882122741,47254.02411866476,47339.63129992859,47387.53108829631,47419.00234448938,47463.39290897762,47534.69497379005,47593.41300647414,47625.823035934336,47720.57208068038,47804.435825876695,47830.18503548921,47859.01878583655,47890.89237342982,47915.50164407511,47943.910711277815,47977.10305179394,48014.251651078666,47986.826060632004,47951.26443520361,47985.03792107558,48007.389665530885,48009.624839976415,48066.26416042616,48081.9997885227,48163.76246974021,48219.66418262293,48267.76513669075,48312.669791301465,48319.79999778271,48357.060355789705,48414.124359384106,48455.698604070974,48450.177723190514,48403.59668774566,48347.33734695165,48297.38119809404,48313.94384073542,48315.93314599194,48388.12928058259,48481.93955206151,48497.384607480126,48456.81619129374,48412.11270238313,48430.17291190301,48415.33135358469,48389.80566141673,48428.31771711323,48477.089223514704,48549.28535810535,48607.95868730053,48648.70591744255,48666.02851939542,48702.573621579846,48719.67270608815,48752.060383803895,48858.4323356667,48970.74985155462,49055.23944559568,49076.11597491694,49043.571834990005,49045.98582339118,49014.89454685385,49006.22207000519,49044.44355302377,49064.15779163335,49032.70888718473,48981.433985404256,48919.81022594097,48890.37297849333,48905.16983332275,48934.36121158138,48979.13175572536,48995.18030824427,49021.60007019044,49025.28810802557,48957.383508370345,48871.463402684145,48900.140690820306,48988.497136652135,49070.57274229202,49054.211265350736,49081.413338352846,49088.54354483409,49076.294788872576,49064.31425384453,49012.525261941584,48961.8091537725,48924.97347891015,48951.54970306751,48952.86845599037,48904.11930133335,48869.45174568317,48813.55003280044,48737.732915608045,48705.72521754804,48695.10813893177,48722.22080495606,48741.39860169871,48681.7417957475,48649.59998722077,48621.83912060728,48560.0588989328,48492.2437062554,48413.2302896059,48417.07478965221,48433.25745263785,48443.136923687096,48419.62288852011,48430.9328712145,48410.23515584888,48354.86988483309,48229.208377505354,48157.14635338144,48163.47189706229,48145.36698405349,48132.69354494733,48141.56718749609,48148.160952110404,48178.06758619161,48223.0839995246,48234.75161013027,48257.75155517478,48176.145336168454,48086.8501170695,47978.75708088363,47845.02659380753,47684.742234318524,47482.0566155978,47248.34677557311,47038.709764326784,46794.47225266365,46525.35724942175,46278.63869412407,46031.897787081936,45762.98394954013,45422.94686114155,45112.32466844615,44777.853164416934,44445.52742785543,44121.80711290921,43798.31031540756,43481.47433775358,43213.09694207871,43000.8000732422,42719.45866578325,42429.26596752,42137.016908766855,41858.96120774284,41607.749951809645,41369.23448672706,41183.536193792366,40970.54642087775,40725.6607086254,40508.17823507527,40365.663512428226,40270.46743279308,40159.75924250594,40090.73705562795,40049.72160455246,40005.06281913076,39967.109557045645,39939.28163519879,39871.89112566604,39800.43259864242,39833.513180436275,39917.04164946576,39991.85293815767,40039.5515608253,40047.575837084754,40113.80405590583,40209.58128089682,40304.285622153955,40432.38346962732,40490.34154299993,40509.608746720405,40587.214003469235,40685.0028854612,40793.00651466924,40915.33761207314,41094.57625086025,41299.31823007086,41489.35276142988,41643.110411537935,41817.90105317844,41996.53619486525,42108.76430377535,42286.773596617415,42444.19693281614,42568.718501176656,42754.08151794452,42930.90616833045,43096.68905695547,43194.88027034763,43255.006462932404,43346.35804252125,43432.14403774071,43514.800788736444,43608.67811544873,43670.21246793419,43720.21332028071,43795.91867875084,43877.860173924,43875.69205471183,43879.73772045824,43895.942735188335,43986.132024065504,44135.48638051586,44218.3890007006,44252.11778308365,44221.94292806899,44199.6805905915,44157.03346217078,44140.917854418505,44116.2638802843,44145.656424243025,44222.88170133611,44256.36461453016,44294.31787661528,44292.127405658655,44326.45968514201,44298.31883887277,44288.93110620155,44273.84367869421,44296.84362373872,44368.10098506224,44429.85885499226,44477.51277417097,44526.12781836127,44551.407641340214,44582.7224353221,44614.97600257111,44703.71242805868,44727.718201603675,44763.86097238791,44819.29329863707,44883.71102615727,44929.37564007946,44912.79064569362,44924.14533187692,44959.63990207195,45064.64839752298,45147.41690724098,45206.76078876982,45254.079431781705,45314.9432319335,45386.44646244603,45471.94188498758,45568.322607078866,45651.40404121924,45726.796475266994,45832.69904049624,45868.573590347005,45909.812558867045,46003.33225766805,46107.5807938076,46230.89536796753,46293.23438325339,46300.72221764591,46357.093317162195,46390.799747800804,46389.41393964457,46425.556710428806,46430.09411455323,46525.69252558858,46572.5417819669,46581.7954041714,46621.69326802412,46678.77962336298,46729.6298419988,46775.87560127683,46822.18841578822,46855.15723885981,46891.23295441067,46941.39026896838,46997.56020278457,47029.72436305575,47013.98873495922,47024.11407519747,47029.59025258902,46994.743882983195,46971.56512398304,46935.534111921086,46939.35626022294,46916.49042564517,46893.98221897867,46902.34177140496,46919.3738006799,46926.28048971659,46899.70426555923,46882.247553139634,46894.65277131233,46926.235786227684,46897.223221924694,46888.93072473177,46905.29220167306,46839.3545555299,46713.782455179986,46733.362583322836,46742.70561250515,46792.572354384945,46807.100988280894,46791.76769158455,46778.20018270018,46741.65508051575,46712.44135051267,46722.20906283964,46796.23804047562,46796.93094455373,46799.769616099555,46792.37118868485,46867.98714017715,46912.8247395545,46896.66442831331,46915.90928028933,47010.09953142399,47017.38620011642,47015.3968948599,47009.92071746835,46953.81783888553,46944.564216681036,46910.41075115332,46781.55294436848,46639.32879439936,46544.84797058678,46458.8161061783,46285.12070001611,46114.733352033305,45966.56363803907,45824.048915392035,45672.615846707326,45464.52110582842,45236.98034727339,44979.97998952628,44808.050371176054,44691.150747674794,44477.13279451523,44236.695079409496,44067.33591167163,43918.093313943544,43770.95178019426,43643.703299010194,43550.04948974246,43455.94864558562,43351.208371068045,43290.21046044952,43240.678994736554,43217.343773525216,43226.99972712991,43191.34869472369,43139.26913014283,43081.087539325665,43090.43056850798,43162.11261297615,43171.72386309193,43196.444892459505,43293.94320177355,43372.91191493415,43451.61240716129,43589.05328381697,43736.70890768873,43856.46955448027,44014.89871917948,44169.572790810205,44317.00489723741,44573.24529567305,44854.49729615418,45088.520060601244,45275.22418203642,45471.13722218719,45706.52344304603,45945.64240522891,46189.67875119195,46454.99395787644,46674.912771572206,46940.071516045515,47166.941722266885,47445.466809924466,47754.390270041265,48004.34982828496,48245.011060835255,48544.32327083627,48864.467306669634,49132.95646106678,49322.23103311432,49470.28898838627,49645.25844398242,49893.474566158606,50190.41749124736,50441.002898335806,50632.87027274016,50835.57824320534,51026.260975153564,51120.92061292179,51212.1380820439,51303.15438546591,51425.64194508099,51554.81267628821,51673.99217772391,51795.38450186068,51903.45518630209,52004.507422984534,52042.01365018054,52085.398386168294,52163.920064439786,52138.260261805095,52092.953275794185,52088.72879609213,52039.64436526828,52006.474376496604,51945.8117420449,51857.52235144644,51808.25910666694,51775.133821384174,51718.00276255641,51611.92138337152,51518.33462933715,51495.42409127046,51508.83513794364,51454.47569542834,51372.93653165538,51301.299190676116,51249.979585406734,51180.04097700608,51120.67474373278,51090.67870267376,51052.39016442182,51004.75859698756,50955.04831731896,50906.947363251136,50821.40723722068,50682.55820066431,50522.89969002005,50386.10701395357,50277.20931496732,50199.29113379611,50143.12119997993,50090.52754527659,50062.856085640924,49987.75422427109,49926.666906674734,49887.104318988844,49828.18512060465,49820.6078792343,49784.62157066126,49737.906424749664,49661.77638313489,49604.39945511812,49505.336523692196,49439.55533976023,49332.22226288584,49237.853197795535,49236.243872194755,49219.97180223129,49190.13222338346,49178.375205799966,49116.639687614406,49070.32687310301,49074.10431791596,49078.95464646276,49026.98684060417,48988.564191885496,48948.26399663258,48871.597513150875,48838.13695170128,48770.925256124174,48733.1508079947,48666.36379556225,48571.32417813828,48473.535296146314,48425.8813769676,48354.17698075497,48278.96336066286,48236.91972934243,48205.649638849456,48184.05785370563,48184.68370255038,48187.745891540755,48204.956734771346,48223.68749662489,48281.846735697596,48337.03319275775,48369.08559430666,48380.14970781204,48375.9699315989,48374.829992631676,48439.40418236306,48493.316589989256,48500.26798251486,48500.33503774823,48491.5955056662,48501.40792148208,48474.16114499106,48458.224351194425,48449.708336556956,48425.16612114503,48328.8077507982,48283.61252350957,48236.09271479758,48068.901666271886,47833.64955587978,47654.5003240705,47498.82042393928,47272.218438651376,47008.13257791193,46730.79213271048,46374.39356737061,45934.26536730115,45527.128342047734,45082.865069254054,44559.521324577494,43998.69370444938,43370.11794687724,42746.32546261853,42127.76328656236,41522.83567462393,40955.23547592586,40315.30503217042,39699.69328638235,39131.064907439344,38489.14515842738,37833.85906623114,37214.425172141215,36656.771499725764,36081.549356168434,35438.44496470034,34773.189994477034,34154.44900446523,33570.44262533696,32990.77248463303,32491.903900135032,32072.518118920103,31572.1519675436,31067.784853909598,30568.33512405576,30138.44402294684,29678.69099124563,29222.871866568552,28820.294597184016,28415.01276672039,28000.365555329987,27689.072810300924,27413.98989128946,27064.319201030637,26748.712569321702,26501.748144835015,26282.92456661756,26034.172002574447,25746.147423523358,25431.099585425807,25189.946614497498,24990.881978378533,24852.748197644734,24718.548323935072,24585.331926981442,24450.372093960297,24256.291896854866,24074.303993499758,23906.755317062776,23806.10541178053,23757.468015845778,23701.745116918697,23584.800789928533,23509.967149492164,23462.134416357807,23390.67588933419,23328.403929281703,23347.04528415743,23300.84422836831,23192.59472997126,23114.497734844415,23018.295826708774,22985.706983292937,22931.92868613347,22850.56833631615,22842.454653078876,22817.644216733483,22767.799826598148,22743.145852463946,22736.97677099428,22739.949553006834,22721.01762545319,22717.0613666846,22658.276278767145,22639.724330869238,22679.376325532954,22695.648395496417,22699.425840309363,22693.86025593999,22722.939875476346,22717.2625323847,22703.627968266963,22740.30718091812,22754.94757353635,22730.986503480257,22702.264511855188,22687.981747148246,22733.467547114797,22792.297338521166,22816.19135334389,22831.256429106765,22882.464275653874,23014.31721619573,23141.1633659796,23246.998875975478,23352.722627249077,23440.25205853606,23527.245047956116,23653.867680295432,23754.718751277775,23826.132574812484,23937.712483133375,24026.00187373184,24145.516651334365,24224.731233683975,24371.11280812178,24480.435190252687,24620.64768322083,24826.082566509554,24999.88973139402,25064.106293214118,25163.45979731796,25313.305892146338,25506.58142645138,25707.680071315775,25874.759361119195,26013.87661860903,26139.538125936764,26306.237436084444,26520.031871799456,26728.35013012292,26885.92992853283,27029.271665724715,27257.415921380034,27484.420238068134,27642.60353357834,27827.810088135015,28042.878573283982,28251.755625218826,28428.62497909367,28611.931635371642,28779.547367041992,28956.997866272675,29168.7359414978,29365.90067933806,29551.308399594833,29737.3196169519,29938.26179960511,30115.980519769255,30304.070449360664,30452.083701143707,30600.63339479368,30793.528949442978,31011.52551311559,31225.565818019608,31414.438058666954,31573.716589655472,31696.919405093126,31891.334878365386,32148.826974490523,32368.87989865302,32580.059180266762,32819.62517733874,33031.25149384159,33252.66787441586,33451.486641345815,33609.44641941147,33798.54217750337,33952.85862122281,39620.61281449948,39915.94641398745,40293.17680515967,40581.469605144215,40802.394247340475,41037.22167458793,41299.67585798215,41496.70648535567,41712.02083969365,41939.58394999313,42112.58645207721,42261.13614572718,42377.34286515032,42594.40065555581,42776.768538566655,42955.62719769802,43194.187366269514,43310.595251392755,43346.42509775461,43390.45803433157,43490.2138698356,43646.60902578939,43804.211175943754,43928.08454371507,44044.8947602385,44108.23960402484,44169.013997198825,44256.56578023026,44343.715231861504,44430.50705558146,44485.80527136389,44537.05782139991,44594.546508138956,44680.533669058525,44675.66098876727,44698.638582067324,44763.39158575435,44886.05795932507,44971.776899311175,45120.63951738352,45249.34086195718,45310.65169699809,45349.52138060587,45476.52399260092,45600.330305138865,45676.61680896483,45770.02474904356,45869.26649442512,45922.50834971766,46002.7064088233,46113.54870957717,46260.15380145953,46408.01059103139,46481.748995989445,46564.22693302953,46642.63685257875,46782.73758682461,46875.72084375869,46937.501065433156,47040.184979460835,47113.588108252065,47181.91739105194,47254.314691342675,47387.82166097423,47487.91277264509,47621.91148065466,47784.00633144454,47916.28395513105,48003.79103467358,48061.19031443481,48125.67509718837,48166.31056860812,48214.657391864945,48275.52119201675,48314.43557911344,48359.89902733553,48435.00088870536,48460.72774657342,48509.9015843751,48592.938315026564,48646.80601916385,48693.96819996455,48797.45677679262,48864.80258283646,48918.06678987346,48935.16587438177,49027.1209510709,49050.94791066026,49070.88566671439,49100.546431606585,49169.07688010656,49149.6532141749,49118.941917293305,49155.75524041119,49207.097197425035,49243.08350599808,49285.57417220762,49267.13398303199,49235.23804369427,49172.630807474954,49077.45707958425,48955.841238002926,48804.207003618125,48666.408499051155,48526.397171783115,48331.93699502194,48110.09593130302,47833.76131460206,47491.48905175794,47094.991456865246,46812.44305520571,46555.12977303622,46265.026481750785,45950.224512842244,45602.54312783994,45221.17766394349,44823.361316127935,44445.81800053335,44149.858552200625,41385.43950145716,41446.37035684232,41518.052401310495,41510.564566917965,41526.38960199233,41571.249553114125,41600.23976567266,41598.80925402752,41566.3098175895,41553.4575645277,41503.233194736626,41421.44816177466,41373.28015247347,41264.96359884305,41065.02724469033,40865.67203589345,40757.8695723855,40520.78461894806,40275.004836917506,40041.451459104,39820.370354696555,39637.33191935205,39429.55010289551,39182.56332666437,38915.974070545926,38645.80853531462,38421.55348319453,38208.36254457981,38003.59821362474,37783.075902828685,37584.614763810016,37423.41398279834,37300.12176038286,37206.69146855968,37096.58677537284,37003.111780060746,36959.45882313953,36926.69116576805,36903.82533119027,36890.63780196164,36905.83698819125,36947.7688607894,36960.57641036229,37051.95034169559,37124.77232513098,37172.60505826534,37281.18983282922,37342.63477833686,37475.31473342356,37711.03623044923,37920.11444808417,38129.192665719114,38209.21191086911,38394.10554100342,38632.330433408075,38902.183044216996,39116.379811332205,39303.039229278475,39534.26802566863,39788.65322931448,40031.504932821386,40255.58117098584,40455.696339094204,40689.406179118894,40950.809830523714,41166.16888835059,41385.014818312506,41627.35243169695,41853.3285681401,42045.732384411385,42209.72713347997,42373.38660638173,42630.43166761776,42946.97707259382,43205.76556989737,43415.112008465774,43574.34583596538,43763.50864929064,43945.56360787912,44032.534245554714,44126.67979320047,44258.93506514253,44449.55074185738,44674.14107014431,44792.78412971308,44860.93459855731,44929.062715657084,45060.64743526548,45219.85891102063,45357.41154639859,45449.388974832174,45573.17293562567,45675.767442675526,45722.92962347622,45865.3772908899,46002.304077423105,46032.56833941559,46104.4291978394,46213.930393925955,46306.08663631519,46374.63943655961,46437.62665243467,46439.92888211356,46404.94840204101,46416.01251554638,46404.47901540745,46352.332395593214,46354.76873573884,46362.23421838692,46346.52094203484,46384.18363144203,46386.7987855433,46331.70173546097,46277.25288596784,46177.74291965281,46122.82468352612,46079.55170626065,46098.304819858655,46189.20936455839,46246.83216176417,46234.136370913555,46275.174173733496,46338.83194194221,46419.29822198132,46501.887917743676,46596.41344504517,46684.16639377671,46722.521987262015,46767.58310408391,46786.02329325954,46797.82501433194,46874.46914606919,46900.91125975982,46929.946175807265,47019.82254026205,47099.77473017869,47069.24224725273,47040.69906958331,47050.01974702117,47014.61458380397,46976.638969974396,46904.28637317257,46827.70929666869,46752.47332483212,46717.850472670856,46775.45091813218,46833.92308162726,46800.35076145539,46700.79609165146,46638.12180019877,46650.07998348236,46629.38226811675,46609.533919040434,46548.98304331101,46487.0240076809,46425.42259996207,46405.93187879704,46354.12053514964,46233.24230113534,46131.09482897459,46030.33316497006,45904.38108496441,45718.03459144051,45511.616231395754,45299.095845114694,45011.495949208256,44611.69029613618,44236.76213464286,43875.42383377837,43449.7572123715,42988.17133762495,42554.547495192,42131.69719358649,41653.123993053916,41167.889972673656,40645.61911173095,40152.85255346925,39657.87317250647,39166.20184972308,38665.29925647965,38218.4208295847,37778.605553937625,37292.7009812237,36820.38626913861,36406.49901705969,36031.54850382191,35691.44436018996,35323.44523947778,34982.17880513416,34700.72563895293,34448.262685330235,34165.1107865704,33914.61478645978,33825.52073306093,33604.037297253286,33400.457608754354,33415.5897397506,33418.070783385134,33300.25473836121,33215.76514432015,33213.57467336353,33253.226668027244,33279.48996776223,33331.189552687356,33438.41087083946,33565.48053806788,33703.99429845742,33803.30309907235,33922.884931908244,34088.51135832207,34223.650005298856,34404.654431897936,34530.897084581506,34695.85295866167,34895.52109188093,35053.30205599094,35208.06553459949,35405.63260383995,35630.15587689351,35822.246768742414,35996.053933626885,36224.84638987141,36419.66419454387,36555.36163513203,36692.69075306544,36898.84089217674,37106.66741212218,37244.488268433604,37380.00689506613,37591.789673780164,37809.29449907476,38001.5195013904,38135.2499884665,38241.86780951832,38347.72567125865,38496.364771886445,38675.29048625118,38781.41656892497,38910.65435536556,39028.649214345125,39066.73658689697,39163.81021306637,39322.95463358815,39430.220655229175,39487.50817626812,39540.92884551631,39620.501055777204,39670.79248080164,39662.12000395299,39665.04808247663,39667.14914645543,39698.95567881533,39718.66991742491,39734.182028076895,39750.901132929466,39783.13234843402,39769.85541222756,39733.73499318779,39781.5900780666,39822.8513983311,39843.39265148553,39880.02716064777,39941.8297340667,39950.34574870417,39913.53242558628,39932.91138802903,40002.78294119632,40020.954909438486,39992.411731769054,39944.08726025668,39890.286611352756,39807.652212101486,39787.73680779181,39793.92824100593,39776.62799079752,39736.0819263556,39774.54927856318,39784.56286007915,39806.62403185655,39817.93401455093,39884.25164034982,39898.33323935667,39899.47317832389,39936.44296365297,39946.367138191126,39958.034748796796,39957.05127204076,39923.68011756898,39912.95128023044,39978.374836251125,39976.9890280949,40003.27467957434,40002.268851073844,40035.26002588988,40036.26585439037,40029.06859267576,39990.2883160458,40000.34660105069,40028.44274383101,39977.86074612865,39976.05025482777,40056.13655521114,40141.0731841413,40156.09355641527,40182.356856150254,40218.90195833468,40244.8970371362,40234.21290328657,40233.452943975084,40276.23418286254,40378.64987595676,40411.70810600616,40440.9441877537,40499.97514486017,40609.856320602456,40661.868829949955,40725.63835688095,40778.74610170676,40841.688614092905,40910.37552480406,40925.32884184466,40885.81095764768,40906.15104510201,40885.00629484729,40840.012233258756,40744.10089780103,40607.77760836812,40474.47180443666,40379.99098062408,40244.159429569176,39994.15516783657,39776.06919718614,39595.37769500944,39372.28493360102,39180.9987045525,39021.653118330614,38868.96835195641,38745.13968767401,38610.42572384187,38523.11980999944,38477.209326888245,38454.902285921846,38453.292960321065,38455.528134766595,38495.04601896358,38508.591176103495,38538.162534017865,38555.30632201509,38615.007831455216,38703.05135286467,38777.72853108985,38829.04813635923,38887.40854113204,38945.61248369366,39030.03502250135,39050.57627565578,39122.28067186841,39213.40873401269,39275.79245278746,39315.46679919562,39371.07793940043,39423.8057045705,39481.40615003183,39551.05418575456,39640.08118392005,39759.66301675594,39857.921285381475,39970.55172569177,40151.04206216837,40314.58977634785,40508.17823507527,40751.02993858218,41012.27712777581,41293.26090732347,41534.52563697405,41748.38712792243,42016.33984045265,42319.31773654434,42534.386221693305,42701.28669754109,42881.218240406306,43101.919365158006,43375.97410392453,43597.3904844988,43735.45720999923,43875.937923900834,43997.82198641563,44114.43103723897,44262.86897216666,44444.02986097692,44618.86520610633,44740.77162036558,44848.70819434025,44910.98015439274,44936.75171574971,45022.69417318037,45077.1877261624,45136.129276291045,45225.44684713446,45253.028899792305,45302.694475972,45327.01317393937,45365.77109882487,45464.27523663941,45473.797079777374,45462.62120754972,45487.11871947274,45534.280900273436,45560.566551752876,45582.73948225254,45601.82787201737,45611.8191017889,45648.74418362906,45663.250465780555,45652.25340750854,45608.712209309604,45587.96979045508,45564.612217499285,45567.80851695639,45589.24383988904,45554.03984237192,45553.88338016074,45592.842470746335,45612.80257854493,45597.98337197106,45523.10502804578,45383.965418811495,45259.041519050785,45152.73662242134,45135.07874430165,45177.48000353337,45112.9505172909,45037.82630417661,45036.10521985355,45071.97976970432,45056.04297590769,44998.57664091309,45017.06153357763,45053.56193227314,45116.79501733721,45171.288570319244,45207.87837599259,45182.620904758085,45139.81731412617,45142.499523460814,45120.95244180589,45069.96811270334,45071.55508655967,45094.599735093085,45080.20521166387,45012.56883294211,44968.75941380971,44984.45033841734,45000.85651884753,45000.74476012526,44968.357082409515,44890.1483285604,44804.36233334093,44672.017654421055,44592.378388926794,44639.67468019422,44711.93787001823,44691.26250639707,44658.9418839147,44707.19930019371,44748.14769603583,44769.56066722401,44790.68306573428,44856.8889328109,44962.29975966213,44988.9206873084,45031.29959479566,45098.48893862831,45131.994203566814,45152.11077357659,45199.42941658848,45236.95799552894,45236.51096063983,45200.3681898556,45184.789023970254,45193.34974209664,45142.09719206062,45016.50273996624,44889.67894192683,44798.34971408245,44724.49955040211,44488.26396325397,44245.076983580235,44018.787922714706,43758.85948644394,43494.75127396003,43204.60327918569,42874.870344981,42498.668134053725,42180.021665098866,41968.03772068473,41710.9479559598,41506.854177338384,41190.71110376252,40889.02960884925,40610.772742125126,40341.92595981669,40087.428997448565,39848.31003526569,39708.67868765339,39561.224229481726,39449.577265927466,39300.71464785512,39131.26607313944,39034.55007488133,38963.42682402454,38885.44158761997,38823.2143310564,38775.225135710854,38711.254443079764,38647.19434347085,38620.171084424386,38612.325622120574,38662.61704714502,38674.75404438425,38718.89873968348,38785.68575211594,38919.97503280342,39016.48986536144,39119.68786951159,39262.02377820299,39448.83965836044,39628.480628547746,39695.6699723804,39752.75632771925,39801.68429633192,39877.25554433531,39947.90940855854,40046.1006219507,40168.83405075479,40305.24674716553,40500.936269871745,40694.54708034362,40832.859675033054,40989.455996686935,41162.10087085973,41239.99670028647,41320.485332070035,41478.489813624605,41652.699309909265,41821.70084973584,41995.93269776496,42121.23657718141,42290.70750364155,42525.51257914455,42662.86404882241,42805.17760576935,42942.46202021385,43105.272126826305,43296.44659715254,43424.25387194799,43548.19429495267,43616.05419111898,43713.59720392194,43786.97798096872,43875.98262738975,43951.48682015977,44015.43516104641,44074.86844955307,44144.87411318709,44206.60963137265,44257.54925698629,44294.653152782106,44345.43631618456,44351.82891509878,44350.353699964726,44379.32156077881,44363.94356059356,44412.446846061575,44464.41465192016,44482.340750973315,44498.0540273254,44545.79735348193,44552.54758030744,44498.09873081431,44464.70522459808,44541.975205180075,44651.47640126663,44606.571746655914,44570.83130727188,44638.668851693736,44637.21598830414,44600.693237864165,44614.126636281806,44618.462874706136,44593.8759558053,44564.88574324676,44494.83537612383,44510.928632131654,44517.030658367956,44449.193113946094,44394.49839526396,44355.96398782301,44319.21771993849,44313.76389429139,44291.00981843589,44284.81838522177,44341.23418822696,44375.83468864378,44370.0232350854,44303.12446393067,44225.04982054828,44171.4279856,44192.706846321445,44186.78363404079,44175.94303797997,44156.96640693741,44108.99956333632,44112.44173198244,44083.8538508241,43939.014546753715,43866.036101107136,43836.75531587069,43812.10134173648,43776.42795758581,43723.23080578218,43699.582660148466,43689.88200305486,43678.57202036047,43634.203807616694,43579.330274978915,43531.922224989205,43455.05457580741,43441.64352913422,43405.16548218316,43361.17724909511,43326.68850740058,43220.6518317046,43107.86492918312,43059.13812627055,43047.9622540429,43002.47645407635,42971.943971150395,42908.04033375267,42834.458391005806,42754.103869688974,42702.4266365083,42666.84265933546,42601.66497250378,42536.777858350026,42432.30580476592,42408.74706611002,42383.84722278681,42306.71135267155,42276.1788697456,42250.22849443299,42146.49404841591,42006.52742463678,41895.57336516063,41843.11382092402,41758.199543738316,41637.34366146847,41501.2438894801,41316.573776790356,41098.867785795665,40847.902399051476,40528.3171568295,40197.6901528466,39905.865777238105,39592.963706608265,39246.399908828724,38902.76418957284,38519.38706867541,38172.465642984585,37805.53940600627,37407.61129946844,37030.40326004067,36668.97555219836,36290.04642844754,35972.20462229307,35633.508638561805,35325.12162031193,35009.02325022498,34676.40694098556,34381.31921068659,34173.22446980768,34010.10143877285,33849.88413451721,33708.73286828195,33559.95965718742,33407.386649535496,33238.31805447555,33054.31849411947,32915.424754074185,32850.492936431525,32777.559194273854,32712.470914420002,32719.33289996778,32800.6932497851,32880.44427400163,32990.52661544402,33071.5069856056,33155.46013777973,33246.23057201273,33347.77454707319,33418.40605955196,33535.4174417755,33643.84575412819,33758.4207962061,33886.85391984629,34009.788514350475,34263.45846217376,34496.67656382043,34786.89161382814,35154.30958918448,35559.03262603672,35941.00158703346,36276.523623052075,36604.84839735608,36926.98173844597,37219.99075651059,37532.13286782895,37835.356633109644,38051.07331884782,38268.444033675674,38453.69529172126,38611.61036629801,38763.49046987182,38963.60563798018,39208.8042746549,39506.7753799886,39836.01657581527,40059.93635176854,40189.62117309823,40215.77271411094,40241.16429581217,40329.27487245499,40487.368760987374,40611.7338671367,40668.41789107536,40737.797705864636,40773.73931094877,40798.16976763842,40846.494239150794,40920.187940619944,40994.32867697819,41039.099221122175,41104.254556209395,41154.948312634035,41246.88103757871,41351.01781499598,41409.758199424534,41433.13812412478,41501.71327611367,41570.958980436204,41600.03859997256,41640.674071392306,41704.37654308994,41781.49006146075,41823.4219340589,41874.67448409492,41911.95719384637,41953.799659466706,42012.517692150795,42066.675968966,42228.90493022263,42356.35457710679,42414.87144409078,42538.36483220635,42715.16713084783,42859.44764130684,42950.79922089568,42998.76606449677,43087.9718766179,43153.97657799442,43214.77332291286,43267.121108427185,43319.71476313052,43325.59327192227,43326.599100422754,43367.68160673161,43446.89618908122,43505.502463043034,43475.104090583816,43442.53759891243,43448.7066803821,43518.913509716214,43553.536361877486,43581.00665581306,43571.775385353016,43640.39524083081,43720.30272725853,43758.65832074384,43835.414211203366,43839.661042649874,43870.03706336464,43929.93973850486,43951.77739283769,43952.000910282244,43995.363294525545,44040.71498402536,44061.52445811325,44161.682625017485,44232.492951451895,44213.963355298445,44165.862401230625,44181.26275316033,44269.70860596998,44326.05735374181,44412.446846061575,44504.04429483942,44562.605865312325,44555.00627219752,44549.82066748389,44550.647682028735,44533.21332135359,44540.63410051276,44644.4356017632,44643.09449709589,44670.02834916453,44743.453829700215,44840.8850837809,44864.197953247785,44830.87150226492,44777.60729522792,44706.10406471539,44707.19930019371,44729.886320815844,44734.513131918095,44714.7541898196,44706.975782749156,44738.558797664504,44771.974655625185,44778.903696406334,44729.59574813792,44705.567622848466,44702.57248909146,44676.063320167465,44664.17219211724,44634.44437199168,44637.126581326316,44629.75050565607,44647.22956982012,44601.8778803203,44584.39881615625,44634.042040591485,44686.970971461655,44730.601576638415,44736.6588993858,44743.453829700215,44809.61499328792,44858.76647934514,44844.77428731612,44821.30495563805,44725.01364052459,44561.130650178275,44382.026121857896,44246.23927429191,44085.91021131399,43869.232400564244,43650.989967702626,43420.47642713504,43172.32736019223,42895.456301624334,42555.86624811486,42227.94380521105,41905.11756004305,41526.434305481234,41154.50127774492,40850.02581477473,40499.21518554869,40108.70785817002,39759.81947896713,39486.547051256544,39280.754540056536,39021.653118330614,38697.26225105074,38434.51749497861,38225.93101572168,38058.382339284704,37915.912320126576,37760.38888220655,37637.677805146915,37525.740268914735,37399.54231972007,37290.33169631144,37215.900387275266,37230.25020721558,37197.571956821914,37157.00354063553,37170.88397394228,37166.72654947359,37160.78098544848,37145.73826143006,37137.7139851706,37127.54394144344,37148.219305064595,37211.65355582876,37310.068286665475,37381.236241011175,37431.41590731334,37459.467346604746,37443.61995978594,37446.12335516493,37439.97662543972,37412.55103499306,37418.69776471827,37441.38478534041,37453.722948279734,37469.05624497608,37486.17768122884,37603.546691363656,37713.04788745021,37826.03595567178,37907.3963054891,38039.31630126433,38140.32383445786,38175.550183719424,38251.94844626766,38379.97923850766,38499.7398852992,38578.39567403742,38647.55197138214,38660.94066631087,38717.64704199399,38687.203966045854,38656.537372653176,38692.74719867077,38680.11846305352,38635.86200903202,38636.0184712432,38617.69004078985,38612.95147096532,38614.40433435492,38592.63373525545,38581.7037322168,38612.83971224305,38616.57245356708,38602.7143720048,38567.21980180977,38572.65127571241,38532.1946182483,38476.650533276865,38488.876937493915,38535.45797293878,38554.14403130341,38489.07810319401,38446.9227131513,38467.70983549474,38452.22007658721,38465.36290232693,38542.431717208834,38633.671538075396,38702.3360970421,38694.40122776046,38683.40416948845,38776.968571778365,38847.62243600159,38869.99653220136,38907.279241952805,38973.485109029425,39023.77653405387,39041.859095318214,39109.048439150865,39185.02201855445,39275.01014173152,39435.54037040954,39616.54479700861,39731.589225720076,39815.58708138312,39926.58584434818,40034.54477006731,40094.425093463076,40199.634754614206,40291.96981095908,40368.59159095187,40441.70414706518,40520.44934278123,40666.11566139646,40864.46504169286,40963.99735975234,41103.31578294227,41313.66805001117,41460.56371457144,41582.38072185287,41690.20553710527,41818.99628865675,41946.2000663519,42009.32139269369,42036.09878255115,42019.13380850957,42077.94124817148,42149.71269961747,42228.88257847817,42323.31869880184,42464.4252615482,42565.23162904163,42662.41701393331,42722.54320651808,42760.11648894745,42847.04242313414,43011.70772453639,43078.58414394667,43067.98941707485,43091.54815573074,43147.80749652475,43157.37404315163,43125.50045555836,43043.402498174015,42993.98279118333,42962.82445941263,43006.16449191147,43029.18678870044,42991.41234057097,42936.94113933339,42910.94606053187,42886.56030733112,42860.00643491822,42825.85296939051,42746.45957308526,42679.180822274786,42608.772827240566,42539.25890198456,42547.8419718554,42602.38022832635,42543.192809008695,42494.71187528514,42457.898552167244,42465.83342144888,42440.508894981016,42371.10672844729,42320.815303422845,42288.33821872929,42268.51222139743,42248.86503802121,42221.55120629683,42228.189674400055,42165.001292824905,42084.91499244154,42063.43496601999,42062.60795147514,42035.98702382887,42000.26893618929,41964.573200294166,41940.96975814936,41918.43919973841,41865.66673107943,41861.308140910645,41854.06617570713,41861.75517579975,41844.65609129144,41873.84746955007,41881.447062664876,41856.92719899741,41798.9691256248,41773.577543923566,41791.682456932365,41810.59203274155,41768.01195955419,41689.57968826052,41572.09891940343,41435.23918810358,41250.25615099146,41000.83303461469,40747.47601121378,40468.68270262274,40185.84372828528,39867.286666308246,39530.5799878335,39276.79828128794,38971.406396795086,38601.865005715495,38266.007693530046,37957.59832353572,37630.56995041012,37278.32880953894,36929.23926463595,36599.21575775334,36343.28828374008,36108.05852509243,35888.65380151913,35673.63001985908,35518.575968572615,35328.832009891514,35115.32814685442,34994.87459598477,34835.08197487378,34696.523510995336,34577.56752700419,34467.39577858398,34376.44653039533,34274.1425960234,34211.35654584844,34197.16318811932,34150.939780585744,34113.61236734538,34168.6647139388,34228.58974082348,34254.29424694708,34327.83148620504,34414.69036515836,34528.59485490261,34700.3903627861,34823.74964043494,34923.8407521058,35011.07961071487,35164.59139163392,35323.37818424442,35485.40597980094,35622.80215296771,35787.46745436996,36022.31723336187,36236.37989001034,36395.792531465595,36649.73070022234,36859.34535972421,37027.87751291723,37234.40763168426,37421.89406417538,37633.14040102249,37903.55180544279,38139.630930379746,38360.466165598176,38624.61908157099,38910.69905885447,39171.119233503254,39389.13814892032,39533.888046012886,39698.173367759395,39841.559808440186,40042.07730794875,40251.75902268398,40452.16476347027,40554.759270520124,40687.57333607356,40854.85379157708,41035.45588677596,41192.99098169697,41338.47848635656,41442.32469109591,41508.97759306164,41571.7636432366,41680.81780443404,41837.41412608792,42024.90055857904,42141.26374021337,42164.576609680254,42249.17796244359,42392.36323742429,42522.24922445408,42651.0176242611,42754.953235978275,42827.305832780105,42916.60105187906,43011.260689647286,43171.00860726936,43352.39301352418,43529.53058833249,43659.505982340095,43736.41833501081,43822.20433023028,43939.05925024262,44065.81599304867,44204.35210518266,44374.962970610024,44492.264925511474,44574.36288289582,44741.28571048805,44879.30773249957,44977.54364938065,45030.76315292873,45145.2040845399,45288.97050487644,45457.435602836085,45623.46436065011,45724.829521754924,45740.69926031819,45760.9499407947,45812.13543559735,45862.20334317724,45915.556957192064,46018.889071808946,46106.820834496124,46187.68944593542,46269.38507191957,46313.66387768553,46404.52371889636,46460.76070794591,46575.134584323714,46688.14500428975,46807.43626444772,46950.286263261594,47075.344273489034,47172.82023105863,47247.27389183926,47311.73632284836,47411.4921583524,47520.948650950035,47600.856137377756,47685.39043490773,47748.35529903833,47776.51849705202,47782.17348839921,47850.368660732354,47911.321867861974,47977.9747698277,48017.60441274696,48085.553715891096,48064.498372614195,48087.87829731444,48136.87332116048,48145.85872243151,48121.696486675326,48137.3650595385,48222.05581927965,48321.632840828046,48438.75598177385,48508.71694191897,48556.63908203114,48605.67880936609,48676.04210091139,48758.4082792292,48813.52768105599,48846.787076805485,48853.917283286726,48939.0997814059,49034.16175057433,49133.403495955885,49210.1146829265,49324.66737325995,49458.129639402585,49646.37603120518,49886.94785677765,50091.75689122163,50170.61384565996,50151.503104150666,50119.51775783512,50077.42942302578,49959.45691579067,49861.98095822107,49869.066461213406,49905.835080842386,49872.66509207071,49831.448475295125,49806.705094183104,49791.125928297755,49754.71493658006,49693.47115677252,49620.15743495911,49526.90595709157,49383.78773734424,49196.27895310867,49024.818721392,48773.89803813673,48505.6994564175,48209.67295285141,47877.61543722337,47539.83587501477,47188.66761787744,46855.44781153772,46499.76450202042,46164.30952123518,45873.043939238065,45551.80466792639,45190.06403566171,44772.734614936664,44367.05045307284,43993.46339624684,43629.62170000335,43216.47205549146,42825.1600653124,42435.70326992313,42075.013169647835,41797.896241890936,41504.64135463731,41236.934511296095,41004.38696198308,40754.58386595057,40535.31325284401,40372.77136716501,40250.596731972306,40095.40857021911,39990.80240616827,39906.31281212721,39801.03609574272,39693.94888805734,39597.47875898823,39582.16781403635,39554.228133467215,39474.41005401732,39442.916446079784,39494.83954844947,39528.4789238547,39507.78120848909,39529.14947618836,39588.135729805916,39613.39320104042,39632.36983208297,39674.815794803595,39776.69504603089,39879.62482924758,39929.648033338555,40042.99372947142,40171.49390834498,40271.04857814891,40388.6858092172,40457.529182139544,40549.037223939566,40698.59274609003,40832.99378549979,40914.42119055047,41048.77752647132,41203.49630159096,41328.46490484058,41390.736864893064,41474.31003741146,41585.0629311875,41723.53198808813,41810.32381180809,41895.66277213845,42046.89467512306,42072.75564345785,42117.12385620164,42253.558904356825,42345.11164964577,42349.91727470366,42354.52173406145,42378.48280411754,42447.03560436197,42454.478735265584,42404.567289896884,42452.35531954233,42529.357079190864,42579.87202165986,42538.56599790645,42518.02474475202,42482.84309897937,42416.4137144582,42288.584087918294,42077.20364060446,41848.41118435993,41641.83636210398,41526.54606420351,41549.233084825646,41598.96571623871,41684.081159124515,41689.9373161718,41635.39905970086,41607.61584134291,41651.157039541846,41646.35141448396,41650.330024997005,41624.06672526202,41643.95977782724,41642.9315975823,41625.94427179626,41604.173672696794,41540.47120099917,41467.24688616358,41512.57622391894,41515.43724720922,41440.20127537266,41402.695048176654,41412.32865003689,41377.34816996434,41297.619497492255,41217.577900597804,41151.461440499006,41081.947515242995,41048.10697413766,40996.42974095699,41016.367497011124,41034.919444909036,41035.053555375765,41045.603578758666,41066.144831913094,41042.40727930156,41071.17397441554,41096.74437007241,41060.10986091016,41068.670579036545,41149.78505966486,41186.86660371621,41187.00071418294,41207.363153381724,41180.876336202185,41181.502185046935,41274.46309023656,41329.11310542979,41395.47543471759,41390.49099570406,41434.56863576992,41473.12539495533,41497.04176152251,41541.477029499656,41614.388419912866,41631.19693174326,41646.7313941397,41615.90833853583,41596.79759702654,41616.064800747015,41605.782998297575,41634.39323120037,41720.648613053396,41782.47353821678,41756.21023848179,41762.9604653073,41752.20927622429,41746.375470921455,41777.60085792552,41788.4638057308,41751.002282023706,41743.96148252028,41775.92447709137,41816.64935548894,41819.08569563457,41871.20996370434,41944.65779598449,41961.66747351497,42015.33401195217,42003.39818041303,41989.69656106193,42005.5662996252,41986.991999982834,41994.971572753384,42035.94232033996,42038.401012230046,42022.307756222224,42043.78778264377,42069.31347481173,42120.320155658745,42099.64479203759,42132.43480115352,42173.96434235148,42132.703022086986,42098.95188795947,42034.042422061255,42006.59447987014,41939.673356970954,41864.95147525686,41740.0499272406,41580.816099740994,41419.749429196054,41220.371868654714,41024.52588373731,40782.12121511951,40496.06358958049,40212.48700767601,39947.79764983626,39722.13443781548,39416.31787017797,39098.54311925687,38758.662493069474,38509.507597626165,38271.6850366217,38005.40870492563,37703.03430593423,37439.820163228535,37197.05786669944,36950.384014890675,36719.35638420062,36508.73589619826,36256.63057048686,36007.9003581882,35871.35355131073,35773.542317574305,35638.98481595336,35493.81023571613,35317.74554464168,35135.48942035311,35067.517765464516,35080.97351562661,35076.36905626882,35051.91624783471,35065.148480552256,35035.085384259866,34971.0029329065,34925.78535387342,34975.808557964396,35017.82983754037,35072.94923936716,35206.61267120989,35356.7940422051,35467.43517725887,35584.290097271216,35739.03122413531,35926.80822930434,36148.738700001086,36386.76242670565,36605.876577601026,36882.077083835255,37199.02482021151,37407.79011342408,37494.8501580775,37550.03661513765,37643.24338951628,37795.43641751247,37934.68778546903,38085.67381926463,38270.38863544329,38420.234730271666,38545.0468713101,38680.878422365,38722.89970194098,38765.77034780626,38820.42036299949,38881.95471548494,38941.18683829151,39006.43158035655,39071.87748812169,39189.96175407908,39340.74662217458,39458.92029510978,39521.25931039564,39602.99963986869,39695.55821365812,39829.378107712044,40057.58941860073,40247.89217089322,40428.27074864754,40618.08176256201,40860.687596879914,41106.37797193265,41374.37538795178,41632.493332921666,41898.635554151006,42110.82066426524,42316.03203010941,42578.48621350363,42883.85574625203,43059.09342278164,43239.71786972498,43363.01009214045,43422.91276728067,43535.81142852443,43758.770079466114,43935.795895552146,44087.51953691478,44184.12377645061,44266.98169314643,44404.042590146375,44587.706874335636,44711.22261419566,44824.836531261986,44918.1997678518,45112.05644751268,45284.5895629632,45373.57185763978,45467.650350052165,45603.54895634043,45657.19314303317,45741.39216439631,45912.71828564624,46042.17958953138,46090.10172964355,46062.02793860769,46027.29332772414,46087.240706353274,46186.90713487949,46278.30341795724,46359.552009052284,46429.892948853136,46514.78487429439,46605.53295678293,46695.677542171186,46789.554868883475,46901.067721971005,47038.97798526025,47166.74055656679,47246.424525549955,47381.36200682665,47467.81855437977,47568.982549784494,47675.28744641393,47787.98494195759,47879.53768724653,47910.271335872574,47860.851628881894,47909.13139690535,47951.15267648133,47951.28678694806,47918.183853409755,47921.469559844685,47968.94466506776,47946.19058921225,47932.0642867165,47934.50062686213,47887.31609431697,47762.25808408953,47650.38760309072,47479.419109752074,47318.50890141832,47173.75900432575,47006.411493588865,46836.87351189536,46732.222644355614,46657.992501019544,46575.581619212826,46393.7501780689,46233.53287381326,46122.60116608157,46020.65485962092,45937.372259780444,45909.49963444467,45909.16435827784,45885.31504694403,45846.53477031407,45886.27617195561,45952.9961291547,46063.05611885263,46196.96541988438,46313.66387768553,46399.42752116055,46442.23111179246,46551.84406660129,46669.4142424362,46773.39455764229,46906.67800982929,47030.01493573367,47164.95241701036,47415.26960316535,47657.87543748325,47800.859546763844,47886.69024547222,47984.05444431954,48069.728680816734,48151.44665854534,48199.838185291075,48102.742207377225,48023.393514560885,47920.88841448884,47726.98703133906,47540.79700002635,47400.204527402464,47236.2991853117,46954.398984241365,46557.63316841521,46222.28994635224,45908.51615768864,45597.08930219285,45271.424385479026,44956.264788659195,44638.40063076027,44316.82608328177,43942.21084621082,43582.2360017581,43239.24848309142,42908.73323783079,42581.637809471824,42323.74338194649,42091.32994310021,41917.32161251565,41729.16462769087,41585.28644863206,41453.67937727921,41305.15203537369,41082.595715832205,40822.242596416785,40630.57638771253,40496.175348302764,40440.76537379806,40366.75874790654,40339.2213987376,40346.68688138567,40352.34187273287,40364.03183508299,40410.32229784993,40367.60811419584,40304.62089832078,40235.15167655369,40187.609516097255,40099.00720107641,39972.3845687371,39841.15747703999,39753.82921145311,39627.22893085825,39443.05055654652,39207.820797898865,39050.531572166874,38969.46179502747,38851.89161919256,38770.57597286415,38747.03958595271,38695.96584987234,38673.792919372674,38713.646079736485,38796.2581272433,38925.406506706066,38980.81648121077,39062.53445893937,39197.04725707141,39453.93585609625,39733.10914434304,39917.2204634214,40071.44750016302,40251.26728430597,40374.49245148808,40512.5144734996,40714.82011256458,40925.373545333576,41017.30627027825,41089.167128702065,41189.99584793995,41254.92766558262,41284.78959617491,41289.68462821062,41353.208285952605,41358.438594155145,41349.85552428431,41319.03246868044,41337.94204448963,41306.11316038527,41274.26192453646,41307.02958190794,41321.02177393696,41327.12380017326,41391.653286415734,41493.46548240966,41621.63038511639,41762.088747273534,41916.85222588208,42066.72067245492,42154.29480723081,42223.18288364207,42330.38185004972,42359.03678644142,42298.35180024526,42263.55013412835,42174.0537493293,42029.90734933702,41811.84373043105,41619.52932113759,41383.49489968955,41130.76372513339,40923.22777786586,40763.68102594388,40610.839797358494,40497.40469424781,40393.60319299736,40228.13322879472,40038.12104918016,39907.3186406277,39837.96117758288,39812.83781681512,39767.664941270945,39770.25774362776,39777.96909546484,39791.06721771565,39818.38104944003,39846.27602652026,39970.99876058087,40108.48434072547,40292.14862491472,40520.69521197024,40775.750967949745,41063.06029117826,41367.17812623717,41741.92747377485,42161.26855150086,42673.7717001166,43175.14367999359,43697.92863105877,44321.274080428375,44946.474724587766,45537.9465863641,46106.03852344019,46680.925390830686,47166.71820482233,47584.718177881026,47889.305399573495,48255.85165689608,48613.010181547426,48973.8567440339,49388.21338274639,49848.21228363661,50157.13574375341,50298.443472199855,50264.3123584166,49793.45050972111,48997.54959315653,48166.221161630296,47556.57733161179,47295.88893602955,47203.777397129226,47298.81701455319,47519.138159649156,47849.89927409879,48381.133184568076,49128.75433310918,50096.65192325735,51181.00210201766,52338.37542991346,53645.348983448624,55229.6853339297,57101.35335938375,59123.29216281082,61227.19481315551,63424.93008672358,65628.25329640547,67832.3141136544,69947.72791239356,72047.62960048075,74163.37867538675,76182.92584215711,78111.81433341674,79984.24231818227,81816.45951467271,83585.80125401035,85368.86696444357,87049.74049922712,88564.78644189674,89984.43513923111,91284.9937421076,92330.45188551568,93017.70097228301,93479.01862609609,94009.939612143,94384.3313317694,94523.09096134795,94530.73525795166,94394.52372724102,94224.65046938068,94079.02885425436,93906.33927659265,93727.65943141693,93573.63356037541,93374.97125565664,93205.00859081848,92970.98582637141,92722.81440768414,92496.12301541842,92247.34809963085,92015.69462009605,91892.11182500266,91753.70982333539,91529.99121308222,91248.69450911219,90983.66987510561,90524.63209922698,89735.23554029889,88463.5777430031,86760.84420214227,84683.07074106584,82336.38344244761,79814.86079869996,77124.35896687019,74244.31434205941,71001.83618090584,67632.93655311306,63922.01053166515,58367.378517076795,50224.41449456388,40101.91292785561,29708.955253238113,21032.00805568791,14591.866981013654,10189.10976518509,7644.60952813739,6652.79557142205,6779.82053516156,7705.942714922752,9406.530488315879,11854.895872461304,14850.811940528387,18432.008437157685,22314.729966489074,26095.125209704067,29521.357062024723,32531.28767386528,35082.13580633829,37155.03658712347,38706.38176278851,39838.81054387218,40465.553458398994,40549.663072784315,40041.987900970926,39095.50328201095,37968.8636027412,36839.87699030364,35831.54509443582,35004.30703214491,34537.043814306715,34326.333919326535,34296.02495384514,34408.14130403296,34613.77735302178,34845.56494302332,34919.50451368147,34801.35319249072,34792.278384241865,34922.27612999393,35071.585782955386,35088.03666687449,35082.98517262759,35091.769408198525,35126.43696384871,35125.1405626703,34972.9028311852,34769.36784617518,34768.56318337479,35055.157250780736,35683.06245601922,36638.733641950326,37677.307448066174,38504.03142023461,39035.511199892906,39266.24825790504,39292.44450240666,39339.606683207356,39399.39759962531,39416.09435273342,39442.447059446225,39549.48956364269,39555.05514801206,39461.35663525541,39306.906081069246,38992.52879530535,38357.515735330075,37288.32003931046,35610.73221096185,33394.377934262506,30980.4118848338,28733.81569788643,27021.090927254074,25929.476431545787,25404.65747173518,25434.251181394004,26179.011306644836,27588.065277107395,29519.188942812558,31759.817213990358,34277.49535769169,36977.63079138169,39847.95240735441,42739.97756719322,45652.74514588656,48468.863781555156,51170.429726890296,53660.43641095596,55887.273655804835,57908.631313876074,59762.1050193435,61329.431692294085,62658.33230713991,63808.24015238764,64777.27768150302,65648.81690130435,66441.94620155648,67092.31490997254,67698.22599866701,68223.49199336673,68604.47747760743,68934.99272286806,69165.7297808802,69278.02494502366,69056.40739874929,68319.35862533553,67070.0302207506,65303.16952504749,63255.727381196906,61541.79561636396,60436.211280371106,60067.40749685854,60547.500616014084,61725.3704935754,63335.903088558094,65089.15157188792,66740.31963829037,68090.29794815755,69255.9414215018,70394.22635963278,71627.12623204305,72962.10652138073,74318.5891888844,75699.63642354446,77001.93846248847,78122.54317075529,79101.84015057566,80016.31707147564,80783.83127258197,81393.34099213374,81876.85392819095,82199.74722859231,82411.28413811733,82550.11082292924,82499.75234267145,82367.05003584028,82161.72691127383,81778.19332816522,81258.47056609041,80552.96010410311,79577.86525224034,78286.94025122408,76733.73988076924,74878.56744272322,72719.63479752956,70276.54442507558,67535.39354031009,64609.237266688026,61649.93335603874,58761.64093752396,56008.4201107526,53520.000400543264,51308.45174890182,49343.17461766894,47495.981752393454,45809.20735707371,44126.433924011464,42284.381959960694,40326.48090439808,38385.58952636594,36452.141279237425,34629.37887065159,32868.21786978458,31279.210004712346,29825.564304061452,28612.982167361042,27568.77572164246,26684.607766223882,25959.316010393624,25398.331928054326,24985.025821331245,24809.81049654609,24895.171808620908,25345.179479739607,26208.3367953702,27446.198755049558,29113.325966993092,31091.231833843212,33355.083567510075,35713.0808488227,38112.428857377636,40613.209082270754,43057.75231811432,45198.2671258768,46730.09922863236,47694.956981534604,47908.14792014932,47311.60221238163,46762.17398192573,46384.4965558644,46086.88307844199,45475.04877746687,44486.07349229736,43020.536663596235,40865.96260857137,36686.65578206251,23595.730792967177,4751.466781075809,-2073.258408696462,-2498.276829514126,-2501.428425482324,-2503.0824545720166,-2506.882251129419,-2509.5197569751454,-2512.1572628208714,-2515.331210533525,-2518.616916968455,-2520.807387925075,-2522.751989692687,-2525.747123449698,-2528.1611118508713,-2531.0221351411506,-2532.6314607419326,-2534.2407863427147,-2536.945347421807,-2537.973527666751,-2539.4710945452566,-2542.1756556243486,-2545.327251592547,-2547.294205104614,-2549.082344661039,-2550.9151877063737,-2554.558522052589,-2557.911283720885,-2559.587664555033,-2560.973472711262,-2563.9462547238177,-2565.689690791332,-2567.1425541809267,-2569.4000803709127,-2571.9928827277286,-2574.786850784642,-2578.229019430759,-2579.3019031646136,-2580.8665252764854,-2583.392272399935,-2586.1191852234824,-2588.84609804703,-2590.477775392267,-2593.517612638189,-2593.9646475272953,-2597.295057451136,-2599.843156319041,-2601.8324615755632,-2605.140519754949,-2607.9344878118623,-2609.968496557295,-2612.9859820587617,-2614.6623628929096,-2616.741075127253,-2618.9762495727837,-2621.3008309961356,-2623.8042263751304,-2626.3970287319457,-2629.61567993351,-2632.14142705696,-2633.9295666133844,-2636.5670724591105,-2639.629261449488,-2642.222063806303,-2644.613700463021,-2647.720592942309,-2652.4591627668337,-2654.2025988343476,-2656.8624564245292,-2658.6505959809538,-2659.678776225898,-2661.578674504599,-2664.5291047726996,-2666.160782117937,-2668.999453663761,-2672.3522153320573,-2675.548514789166,-2678.029558423705,-2680.8011747361634,-2682.4105003369455,-2685.450337582867,-2687.931381217406,-2691.753529519264,-2694.972180720828,-2696.7603202772525,-2699.1072534450595,-2702.77293953573,-2705.455148870367,-2707.332695404613,-2709.746683805786,-2713.0770937296265,-2716.7874833092073,-2661.2433983377696,-2149.276691588961,-956.0064620979384,510.8267677815876,2041.2507106364621,3760.79276332769,6782.3015787960985,12632.73657950599,20902.434993080496,30402.529883686293,39085.31088653933,48114.16394879389,62501.534819785935,82784.44651179868,97560.20129444615,99099.90121124998,99142.83891234863,99185.39663379153,99226.5685470782,99268.09808827617,99309.71703645194,99350.71013578298,99391.43501418055,99432.65163095614,99450.98006140949,98472.01835775595,94619.31522122804,89705.88769982907,85080.14948131437,80653.85587857437,76484.27206090356,72948.60606772972,70433.43131940739,68993.15196194076,68650.14209152962,68696.09727812973,68055.63039250737,65873.47428482465,62045.51452940876,56975.28952065582,50974.62844546181,44122.63412745406,37030.11268736276,30208.22616913631,24197.618567659687,19133.540288631953,15220.219221141246,12435.84006259919,10619.850232583312,9548.41936211817,8879.521057548649,8325.756588668417,7908.4942231767445,7527.48638719158,6929.778388712214,6311.082102189315,5572.1110787524085,4475.333330074946,3308.3711038078195,2387.300418293526,1648.2846913677088,1046.3745649307448,411.62972588893484,-167.99571132608787,-595.6069345005673,-697.8885171280524,-522.5167301317132,-42.803590631913025,671.3793482040583,1566.7678793392038,2565.622635557966,3752.299100434673,5079.143354790611,6683.529220048096,8456.357831520776,10393.739985673426,12506.203354144496,14894.889580594252,17952.228242424517,22186.408601571155,27389.13475145516,33291.761075468195,39642.27165487667,45996.44792037582,52231.53409141709,58287.94041728263,64035.847966176036,69928.03602552843,76470.36927585235,82878.99439084463,88801.08908427824,93699.22801246977,97548.84660826286,99411.75274989042,99615.86888025628,99378.22513320747,97471.33075849185,93091.17115630761,86228.09037305003,77146.10721422521,66332.24383976983,53592.50945955628,38887.81087253224,22507.580817649465,5702.55585939358,-1694.530450645739,-2064.451821381071,-2067.804583049367,-2072.36433891825,-2076.4994116424814,-2080.7462430889896,-2083.9425425460986,-2087.250600725484,-2090.9833420495206,-2094.3584554622716,-2096.995961307998,-2100.5498886763917,-2103.7238363890456,-2105.936659090121,-2108.5965166803026,-2112.08338881533,-2114.8550051277884,-2117.9171941181653,-2119.928851119143,-2122.7228191760564,-2125.6508976997015,-2128.1989965676066,-2132.2670140584723,-2135.195092582118,-2137.9890606390313,-2139.8889589177325,-2140.827732184855,-2001.6434194616581,-1046.754544586485,894.6732753125758,3425.024858120067,6295.502936303966,9312.250830203395,12505.912781466579,15778.901073801646,19080.812523461882,22318.529763046477,25510.984720109074,28693.068467744408,31781.408999134186,34735.19202890302,37660.47658449133,40541.43763082477,43417.32483116684,46172.35614923909,48750.004023314,51324.723818865285,53867.68178554557,56270.06963134642,58584.88334237139,60863.420172145394,63138.22426059536,65324.828365424684,67415.23056211836,69459.23053732283,71410.33666257103,73339.94040965324,75184.56282431637,76953.74810144283,78599.01530730908,80237.30876890526,81824.05910778751,83293.21691909038,84743.48750632853,86219.70846887928,87639.0889452802,89003.79705474342,90240.87670336684,91359.84973428842,92475.78292796409,93536.26144364613,94424.51976830003,95221.13594068718,95984.09038592463,96611.45914929619,97114.1722338405,97596.16525127474,97980.61525590603,98186.40776710604,98236.11804677465,98255.02762258383,98200.44466262397,97991.36644498902,97666.99792945362,97194.8396795797,96658.24135044115,96101.70526524846,95438.84193168188,94723.89903353441,94015.41578953456,93221.57123345986,92460.09200335646,91676.17162181993,90865.83147833723,90017.38161055824,89160.61689384186,88295.9396595883,87394.06912256112,86491.50568145582,85500.31757358523,84461.05086339127,83428.55673176727,82334.88587556909,81111.6419567635,79674.1565673538,77990.57847149116,75984.37529616062,73660.57618386461,71140.57345873993,68602.15289618408,66367.49254077584,71491.2723292437,93294.41556863971,99694.2787998055,91960.86579094718,53439.28825131515,7869.669243057877,-1864.5154672283493,-1918.874909743656,-1922.8982237456114,-1927.972069736966,-1932.2859564168402,-1936.9798227524548,-1941.8972065326222,-1945.9428722790328,-1949.943834536533,-1954.682404361058,-1958.2810352183624,-1962.2819974758622,-1965.8582765887115,-1968.4957824344376,-1971.6920818915466,-1975.0448435598428,-1977.905866850122,-1981.3703872406945,-1984.7007971645353,-1988.6123524442141,-1991.3392652677614,-1993.8426606467558,-1996.7707391704012,-2000.2352595609736,-2003.5880212292698,-2006.15847184163,-2008.5724602428033,-2010.8523381772445,-2013.4004370451496,-2016.0826463797864,-2019.4130563036272,-2021.290602837873,-2023.25755634994,-2027.0797046517976,-2029.6054517752473,-2030.7677424869232,-2033.0476204213644,-2035.6180710337248,-2037.3391553567835,-2039.3731641022164,-2041.0495449363643,-2043.709402526546,-2046.1680944166299,-2048.4032688621605,-2050.191408418585,-2052.0242514639203,-2053.5888735757917,-2056.136972443697,-2040.3119373693394,-1152.1877231821684,2906.643200712586,10184.013567449281,19677.55939692967,31015.079440483983,43701.43785493825,57023.94926833502,70207.79045913107,82706.7741998165,93495.42480652628,99119.72720858184,99748.95116674318,99762.92100702775,98760.42291646278,94057.70529004399,84750.05891919839,71533.80769894215,55870.93453060801,39263.32017938139,23153.076845774278,8420.460929925554,-623.4795598363352,-1950.8379043147452,-1956.6940613620357,-1961.1420585086416,-1964.003081798921,-1966.4841254334601,-1969.7474801239348,-1971.9155993360996,-1975.514230193404,-1978.5093639504153,-1981.8621256187114,-1984.9243146090885,-1986.935971610066,-1989.9087536226218,-1992.9485908685435,-1995.675503692091,-1999.5200037384038,-2001.5093089949262,-2003.6550764626356,-2006.7172654530127,-2009.8912131656664,-2012.5957742447586,-2015.9261841685993,-2018.675448736602,-2021.1788441155963,-2023.324611583306,-2006.2031753305407,-1466.0062153346796,637.4941036098128,4658.125896230447,10337.681810579517,17922.83569846579,27260.4334068815,38488.98869621619,51486.25987604378,66184.69997462035,82375.81191966677,96154.67889960753,99708.85213719036,99796.22510626617,99838.38049630888,99868.08596468998,99867.6165780564,99864.37557511039,99862.02864194258,99860.10639191943,99871.01404321362,99885.29680792056,99881.40760438534,99878.7253950507,99876.11024094943,99873.80801127054,99884.87212477591,99901.16654648383,99896.98677027068,99893.92458128031,99891.06355799003,99888.04607248856,99885.05093873155,99882.23461893018,99893.18697371328,99910.30840996605,99905.8827645639,99902.48529940669,99899.1772412273,99895.95859002574,99892.73993882418,99896.04799700357,99915.67282863532,99914.10820652345,99910.30840996605,99906.9332965533,99903.49112790718,99899.91484879433,99896.53973538158,99896.71854933722,99917.30450598056,99920.41139845985,99915.80693910205,99912.32006696702,99908.6320291319,99904.92163955233,99901.43476741729,99897.50086039316,99430.97525012199,95484.59595258188,86491.66214366701,74653.32891384709,61966.948147648356,49867.166562934704,39102.74524721447,29812.265016110545,22181.62532825772,16175.443372183248,12079.307386792587,9610.668970426199,8932.785264585646,9721.39951245779,12501.330673853241,17167.72671553215,24725.87969611641,35835.34489099323,51987.98948383206,74045.60733385175,94886.1950500244,99843.23082485567,99891.24237194567,99885.90030502086,99882.70400556375,99879.46300261772,99876.1772961828,99873.31627289251,99880.84881077395,99904.29579070758,99902.30648545104,99898.81961331602,99895.98094177019,99893.03051150209,99889.65539808934,99886.45909863223,99886.25793293213,99907.6262006314,99913.97409605671,99909.25787797665,99905.97217154173,99902.75352034015,99899.31135169404,99895.84683130347,99893.03051150209,99904.76517734113,99917.95270656976,99912.81180534505,99909.4813954212,99906.21804073073,99902.75352034015,99900.58540112799,99916.835119347,99924.05473280606,99919.02559030362,99915.40460770186,99911.80597684455,99908.40851168735,99904.89928780786,99901.34536043947,99903.66994186283,99922.04307580508,99920.14317752638,99916.00810480215,99912.36477045594,99908.8778983209,99905.39102618588,99901.77004358413,99904.74282559668,99924.88174735091,99923.25007000567,99918.95853507025,99915.15873851285,99911.5824594,99908.05088377606,99904.38519768539,99911.5377559111,99926.35696248496,99921.61839266043,99917.75154086966,99913.8846890789,99910.30840996605,99906.68742736429,99902.9770377847,99902.55235464005,99921.93131708281,99924.79234037308,99919.91966008182,99916.14221526889,99912.3871222004,99908.69908436526,99905.12280525241,99901.43476741729,99903.75934884064,99924.23354676171,99923.22771826122,99918.95853507025,99915.04697979057,99911.09072102199,99907.51444190914,99903.84875581846,99904.65341861885,99925.70876189576,99927.07221830753,99922.42305546082,99918.75736937016,99914.9799245572,99911.26953497763,99907.64855237586,99903.87110756293,99903.4240726738,99922.95949732776,99925.79816887357,99920.92548858232,99917.30450598056,99913.61646814544,99909.97313379921,99906.35215119745,99903.55818314054,99918.5338519256,99930.24616602018,99924.88174735091,99921.14900602687,99917.4386164473,99913.86233733445,99910.1295960104,99906.44155817528,99903.3793691849,99916.0304565466,99926.44636946278,99921.21606126023,99917.46096819175,99913.8846890789,99910.26370647714,99906.575668642,99902.9770377847,99899.55722088304,99908.6320291319,99927.96628808574,99923.63004966141,99919.65143914837,99916.05280829106,99912.4318256893,99908.78849134309,99905.14515699688,99904.78752908559,99924.07708455052,99926.89340435188,99921.97602057172,99918.19857575877,99914.44348269027,99910.71074136625,99907.46973842023,99834.558348007,94111.12595929217,63618.473841962084,18398.234951285714,-1012.3105063808569,-1882.0839383702205,-1886.8448599392011,-1890.6670082410585,-1894.712673987469,-1898.5348222893265,-1904.525089803349,-1909.6659910280696,-1913.8904707301226,-1918.5619853212818,-1922.5629475787816,-1927.2344621699408,-1635.7453627282814,14423.75951096529,72861.30015388729,99229.76484653531,99880.06649971801,99874.16563918181,99870.09762169095,99866.83426700048,99865.00142395514,99881.0276247296,99891.59999985696,99887.24140968817,99884.53684860907,99882.01110148562,99879.93238925129,99892.67288359081,99902.5300028956,99898.26081970464,99895.31038943653,99892.33760742398,99889.38717715588,99886.50380212115,99889.6777498338,99910.26370647714,99909.50374716565,99905.7263023527,99902.70881685124,99899.53486913859,99896.31621793703,99893.29873243556,99891.7788138126,99910.82250008851,99921.32781998251,99916.29867748007,99912.99061930069,99909.63785763239,99906.24039247519,99902.88763080689,99899.62427611642,99896.51738363713,99906.39685468638,99923.83121536151,99919.31616298153,99915.65047689086,99912.14125301139,99908.65438087635,99905.21221223024,99901.8818023064,99891.55529636804,99027.01217258122,93211.89292811071,81413.85989354372,68727.94851397855,56926.02627587632,46172.35614923909,41551.62472148237,45060.24510386528,50481.951294177925,52274.851772171474,55000.87052594072,61644.948917025205,72456.5547652906,83737.97193026208,92814.12128378407,98686.77391848253,99901.077139506,99909.12376750991,99904.72047385223,99901.34536043947,99898.05965400454,99894.81865105852,99894.03634000258,99913.6835233788,99919.29381123708,99914.46583443474,99911.09072102199,99907.76031109814,99904.40754942984,99901.18889822828,99897.83613655998,99895.48920339218,99910.80014834406,99922.60186941647,99917.41626470284,99913.95174431226,99910.46487217724,99907.06740702003,99903.55818314054,99900.20542147224,99897.6796743488,99913.10237802296,99925.73111364021,99920.32199148202,99916.76806411362,99913.16943325632,99909.52609891011,99906.03922677509,99902.9323342958,99915.60577340196,99929.70972415326,99924.27825025062,99920.61256415995,99916.94687806927,99913.25884023415,99909.70491286575,99906.10628200845,99902.5300028956,99901.05478776155,99918.46679669223,99922.89244209438,99917.97505831422,99914.2870204791,99910.71074136625,99907.08975876449,99903.49112790718,99899.98190402769,99907.22386923121,99926.60283167397,99922.7359798832,99918.84677634797,99915.22579374621,99911.56010765555,99908.07323552051,99905.36867444143,99920.05377054856,99930.5367386981,99925.21702351773,99921.55133742707,99918.01976180312,99914.331723968,99910.68838962179,99907.15681399785,99903.71464535173,99911.91773556684,99926.69223865178,99921.84191010498,99918.17622401431,99914.5328896681,99910.84485183298,99907.24622097568,99903.826404074,99912.34241871149,99929.10622705297,99908.36380819844,97056.32591919016,75427.68274875674,29293.36926858059,343.1886843667846,-1862.8614381386565,-1865.3648335176508,-1869.7010719419804,-1873.9702551329442,-1876.9206854010447,-1876.8536301676788,-1867.0859178407095,-1859.5086764703606,-1865.4095370065615,-1872.6067987211704,-1877.524182501338,-1882.0839383702205,-1885.749624460891,-1888.9459239179998,-1892.1198716306535,-1895.9196681880558,-1900.4794240569383,-1905.262697370374,-1908.3695898496617,-1911.6105927956812,-1915.7903690088237,-1919.0313719548433,-1922.4064853675945,-1924.8651772576784,-1928.776732537357,-1932.4424186280273,-1935.4375523850385,-1942.2995379328179,-1944.8029333118122,-1948.5580263803038,-1952.2684159598848,-1954.8835700611558,-1956.425840428572,-1958.9292358075663,-1961.9467213090327,-1964.807744599312,-1968.160506267608,-1970.0604045463092,-1973.6366836591583,-1976.0953755492421,-1977.9952738279433,-1979.8281168732783,-1981.7280151519794,-1985.1478320536414,-1987.3383030102616,-1989.7299396669794,-1993.2391635464626,-1995.809614158823,-1997.5754019707922,-1999.4082450161275,-2003.0739311067978,-2005.4655677635155,-2007.1643003421188,-2010.6288207326916,-2012.3499050557502,-2015.4120940461273,-2017.3790475581943,-2019.3907045591718,-2022.676410994102,-2026.5879662737807,-2029.06900990832,-2030.968908187021,-2033.6064140327471,-2035.7521815004566,-2038.4120390906382,-2041.0495449363643,-2043.1729606596186,-2046.324556627817,-2048.380917117705,-2050.772553774423,-2054.4382398650932,-2056.226379421518,-2058.1933329335848,-2060.5626178458474,-2063.1777719471183,-2065.569408603836,-2067.514010371448,-2069.6821295836126,-2072.1408214736966,-2074.5101063859593,-2076.544115131392,-2078.645179110191,-2082.2661617119506,-2084.0095977794645,-2086.445937925093,-2088.770519348445,-2091.31861821635,-2093.9561240620765,-2096.9512578190875,-2099.1640805201628,-2102.382731721727,-2105.221403267551,-2108.127130046741,-2110.809339381378,-2112.9774585935425,-2114.743246405512,-2118.028952840442,-2120.509996474981,-2122.5887087093247,-2124.779179665945,-2127.640202956224,-2130.389467524227,-2133.0493251144085,-2135.597423982313,-2137.251453072006,-2076.4100046646604,-1557.9389402793577,-459.95419740130876,967.1823343255919,2731.2937654607017,4626.051142937082,6735.2288049732215,8976.639387206958,11734.308211124922,15334.838966708061,19602.792811726667,24486.313699044433,30371.751531571335,37042.40614681318,45657.55077094445,59022.86577497313,78390.89821468572,96449.43135373967,99611.84556625433,99656.07966853138,99696.73749169559,99737.6411840488,99778.81309733547,99820.11912108888,99860.73224076418,99882.23461893018,99878.34541539496,99875.43968861576,99872.71277579223,99869.9188077353,99872.15398218084,99894.28220919159,99895.86918304792,99892.13644172388,99889.20836320023,99886.23558118768,99883.68748231977,99895.60096211446,99899.06548250503,99893.43284290229,99896.13740398138,99893.58930511348,99890.48241263418,99887.46492713272,99897.14323248187,99913.81763384554,99909.39198844339,99905.83806107499,99902.55235464005,99899.22194471622,99895.93623828128,99895.31038943653,99914.66700013484,99918.46679669223,99913.72822686771,99910.26370647714,99906.7768343421,99903.28996220708,99899.73603483869,99896.15975572584,99688.13207008029,98019.35082904706,95414.59028894786,91485.53359336063,87577.57694453919,83336.53459984477,80061.42289178645,77587.57651896197,76287.33084050786,76411.49478095709,77463.05495060146,78517.74436446957,78811.96037673479,78384.28209832693,77042.10454727466,76152.41571097562,75185.21102490557,74131.50508779348,72079.79376075194,70462.84621511058,68279.23724403826,66016.74896678317,62481.37354628725,59010.751129478354,54859.115762605164,51366.231008318784,48048.11454392845,45657.997805833555,43466.74453815753,42493.16960491772,43033.835951547146,46041.62079592,51171.480258879696,58304.63717039075,66767.47700780357,78080.00780105684,94229.43374269412,99747.00656497557,99876.28905490506,99899.11018599394,99894.63983710288,99890.30359867855,99886.83907828797,99883.84394453096,99893.79047081358,99904.49695640767,99899.75838658314,99896.40562491484,99893.05286324656,99889.81186030053,99886.45909863223,99886.81672654352,99908.94495355428,99913.61646814544,99908.96730529873,99905.2792674636,99901.09949125047,99897.03147375959,99893.47754639121,99890.14713646736,99894.81865105852,99917.90800308085,99916.6339536469,99912.27536347811,99908.69908436526,99905.21221223024,99901.59122962848,99896.98677027068,99892.11408997943,99897.32204643752,99918.06446529205,99916.29867748007,99912.94591581177,99909.57080239902,99906.21804073073,99902.70881685124,99899.11018599394,99896.04799700357,99911.71656986674,99926.40166597387,99920.54550892657,99916.56689841354,99912.54358441159,99908.72143610971,99905.10045350796,99901.43476741729,99897.94789528227,99894.95276152524,99907.11211050894,99924.61352641744,99919.65143914837,99915.71753212422,99911.69421812228,99907.76031109814,99904.38519768539,99901.09949125047,99897.61261911543,99895.93623828128,99914.89051757939,99923.16066302785,99917.79624435857,99913.37059895642,99907.9838285427,99903.08879650699,99900.07131100552,99897.94789528227,99894.93040978079,99898.79726157157,99921.6854478938,99921.39487521588,99917.21509900274,99913.0353227896,99909.30258146556,99905.99452328618,99919.74084612618,99915.40460770186,99911.87303207791,99908.29675296506,99904.65341861885,99902.39589242887,99916.27632573561,99921.21606126023,99916.14221526889,99912.61063964495,99908.78849134309,99904.92163955233,99901.30065695055,99897.90319179335,99895.51155513663,99794.43696670973,98082.13687922203,94223.97991704702,84805.58065242537,71998.79103884591,55177.717528071116,35346.95927464477,13754.995316862503,-411.0709322775522,-1864.8954468840896,-1868.7622986748577,-1872.9867783769107,-1878.4406040240056,-1882.3745110481395,-1886.263714583363,-1890.3764355631395,-1894.5338600318266,-1898.847746711701,-1903.7204270029579,-1908.0343136828321,-1911.7223515179578,-1916.036238197832,-1920.1489591776085,-1923.5911278237259,-1927.7038488035023,-1931.6154040831811,-1935.5269593628598,-1939.2373489424408,-1942.7912763108345,-1945.8534653012116,-1947.6416048576361,-1949.5415031363373,-1953.520113649382,-1955.0847357612536,-1957.968110795988,-1960.0468230303316,-1962.4384596870495,-1965.38888995515,-1967.869933589689,-1970.5074394354153,-1972.6308551586694,-1975.804802871323,-1976.9000383496332,-1337.8636643724042,2081.997940778487,5508.341551821417,9976.835248093039,10279.924902907003,10192.931913486947,9162.516494097292,11716.113891138302,16176.829180339479,23263.673277339134,29880.34842972141,35888.67615326359,39458.00387358712,40298.92120348468,39541.241769938686,37684.10237838059,37099.73837134104,36580.95438253336,38135.47350591105,38445.93923639527,38789.53025216225,34959.380025789746,30214.998747706268,22354.828996041895,16581.99925208083,10157.258529336277,6019.593002747656,393.2565919466725,-1986.6006954432364,-2066.9999202489757,-2070.084460983808,-2073.1466499741855,-2075.8288593088223,-2078.868696554744,-2081.4614989115594,-2083.2496384679844,-2085.395405935694,-2086.960028047565,-2090.357493204772,-2092.4362054391154,-2094.827842095833,-2097.6441618972017,-2099.2758392424394,-2100.348722976294,-2103.053284055386,-2105.243755012006,-2109.0211998249533,-2111.993981837509,-2114.1621010496738,-2117.224290040051,-2119.3700575077605,-2121.89580463121,-2123.192205809618,-2125.606194210791,-2128.08723784533,-2131.0823716023415,-2134.8151129263774,-2136.6479559717127,-2139.1737030951626,-2140.3359938068384,-2142.1464851077185,-2145.7898194539334,-2147.801476454911,-2149.835485200344,-2152.9423776796316,-2155.088145147341,-2158.083278904352,-2161.90542720621,-2163.5594562959022,-2165.5264098079697,-2167.6274737867684,-2169.996758699031,-2171.829601744366,-1992.3450937682503,-1360.5730367389963,-1450.1588285158668,721.7601802063203,1993.0156461019096,5156.189817928054,6543.2943753355,7839.784960721131,7027.0755323261665,6882.6162079115165,6683.752737492649,7694.118642105895,8862.936063162811,9988.569913932075,10899.224686530195,10941.916518439832,11415.728797403432,11672.058602816893,13884.434269003186,15997.50113457455,19713.27748456925,21755.98105859531,24725.343254249485,25769.348534267967,28602.27568176695,30260.59630639509,34173.13506282986,37303.02748716206,42966.64660771449,47662.68106254114,54085.45483177362,59286.95163571258,65550.69274314556,70263.02161968012,74575.61189837598,76687.0470866021,78225.3164917608,79629.00604355408,81592.74090441954,84248.10579396556,85953.76741335004,87754.87098155868,88544.1557817645,89927.57230133681,88679.29442874127,87526.25733926981,84401.99755454034,83310.74068674335,81466.61001045824,82595.01547753996,83046.18543937034,85794.89121376172,86489.7175418994,87928.76755342097,86713.6149661082,85898.04451442296,83294.73683771335,81750.18659236272,79496.013164045,78042.12159420509,75941.23642936187,73697.81419012716,71324.37185339593,69213.76367971464,68100.35623316244,66808.93949376816,66796.57897908437,66267.13320817152,67422.78545174426,67907.41597502423,70607.79727790324,71775.36300127066,74048.71422633102,73871.4872445449,75020.74688920342,74418.4120796218,75987.90687178455,76212.00546169346,78313.33766142579,79421.17952360863,82392.8439489417,84435.61457820113,87280.63401945043,88590.62505848707,89423.47340863627,88744.85209522869,87500.1057982571,86250.28565529414,85067.49839395266,84681.0367323204,83278.5541747277,81691.84853933437,77138.97700774396,71990.78911433091,65261.66233559398,61659.343440454424,58679.63238711744,58649.546939080596,56780.784640405735,55769.14468635854,52630.04334331076,51824.50882488595,50681.93235181956,52130.83948264593,52249.57194919252,52747.948795312506,51078.63111241235,49875.25789442753,48719.136264221226,49130.36365870997,49555.51618999436,48982.28335169356,46384.87653552015,41086.5966780897,34958.19538333361,27885.27642312961,22668.78159866114,18253.48505419315,16688.326500454725,13548.688715540018,9138.354258341105,671.6252173930666,-2153.2329503575506,-2212.509776653025,-2217.0024772885417,-2220.221128490106,-2223.730352369589,-2218.0753610223965,-2023.481073794493,-1237.8172561904498,1779.7353005093696,178.99276959809896,