30022.99726283518,30441.041939382787,30745.606809330802,31036.201838994246,31393.60623283461,31730.89405666519,31980.22776606414,32091.38299124038,32222.74419340422,32409.8506462396,32560.546107357277,32684.486530361955,32825.59309310831,33008.408011008265,33193.16753067583,33308.524883809674,33396.99308836378,33522.83340964716,33590.402733135554,33512.328089753166,33377.05533230965,33341.963093514816,33379.96105908883,33387.89592837047,33412.46049552685,33442.92592321944,33539.75368019983,33580.79148301977,33634.592131923695,33716.91360675259,33811.14856137616,33902.43308573164,33967.40960686321,34070.62996275783,34201.61118526592,34372.64673383793,34543.36935798757,34776.58745963424,34995.656907040706,35225.790467952545,35385.58308906354,35538.06668973764,35752.4422708085,35940.331034699804,35985.74977943299,35948.15414525916,35960.24643900948,35877.16500486911,35650.33950213665,35328.139105813396,35014.097096216334,34695.49533075039,34339.074413666065,33911.17261781366,33461.79079553972,33082.95107876672,32627.623692467656,32117.825104931013,31683.21778574202,31347.271066578756,31010.698498570742,30597.973537203496,30209.567273803626,29867.42912142624,29584.791312788882,29227.319863715158,28824.764946075076,28496.864854915722,28109.75499269426,27687.61994691133,27298.92311083354,26948.648923474422,26622.335806171395,26252.839118580716,25845.791500305117,25536.53276402149,25244.350760501715,24844.902735340922,24363.602621984795,23935.633770899032,23657.511014641645,23383.05394447493,23073.012897135366,22840.71121701136,22632.549420899086,22409.501362979576,22169.28716531839,21911.728013959888,21757.54568070718,21586.487780390715,21377.90130113379,21119.42572825262,20941.259973199365,20792.442058615932,20567.35999195099,20420.777251813084,20367.669506987277,20316.416956951256,20281.548235600978,20218.136336581272,20252.02158117552,20359.22054758317,20454.349571984956,20545.58939285152,20792.240892915834,21066.98853576047,21292.852913481347,21527.501526773158,21775.427076271426,22077.935585729552,22361.355705422844,22529.105547559924,22717.083718429058,22987.092791449166,23317.42922275415,23577.782342169565,23771.79548404163,24012.05438519173,24238.902239668638,24297.933196775102,24366.374238297256,24586.985956071134,24898.032831911187,25050.42702560747,25086.30157545824,25184.44808536149,25340.91029654864,25505.687356673167,25599.63173861882,25750.930696836796,26025.790098403704,26288.311337031286,26505.34677569232,26712.346281092916,26919.301083004604,27111.190809153417,27295.302128231782,27471.59033675079,27713.48091524612,28038.83290753757,28250.79450020725,28360.18393757152,28576.97350704354,28861.198289537228,29133.80016491415,29430.228999880434,29797.781085703504,30229.12505020202,30647.370892449726,30926.61123592988,31238.03809142567,31594.704877699005,31970.437701992716,32273.30383936213,32514.00977540133,32777.02275240693,33029.172781607245,33201.28121391311,33305.50739830821,33509.42236297397,33746.68613036706,33896.28635600643,34025.63590116929,34237.68690081679,34471.93318270841,34614.13498093307,34708.52639776783,34920.19741775959,35167.87709806885,35298.81361708804,35388.86879549847,35549.667245109944,35855.03677785835,36208.21669199666,36468.011017800694,36565.62108583702,36576.864013298036,36555.92042874342,36544.006948948736,36641.30409256269,36904.1606073571,37297.081923136946,37598.62930758349,37850.30995015025,38178.835890154354,38549.91955160136,38837.36298529661,39070.08934856526,39304.33563045688,39599.825692156046,39835.681299648444,40061.0539389913,40385.89184116028,40800.89668046197,41130.87548385566,41416.50842625003,41772.370549722975,42211.44821780303,42533.60391063737,42766.352625650485,43062.66970189449,43362.56305725135,43567.10387076186,43661.07060445197,43773.76809999563,43914.3158691306,43991.451739245866,43992.2340503018,43958.3264539631,44035.46232407836,44089.039455537735,44024.66643150645,43870.841726165025,43749.09177411697,43658.23193290614,43483.03895986545,43111.39650480706,42729.24872985468,42324.54804474689,41825.031259659685,41310.918785443166,40843.72262283834,40339.48961967106,39823.96898555386,39221.07538236086,38574.104139102004,37908.558596200775,37246.522277179036,36541.88353322548,35881.23302235997,35283.36856166942,34663.375873968114,33927.5564464994,33250.03036857014,32708.89463530715,32166.238983421208,31547.497993409397,30970.532413784556,30439.365558548638,29909.562159724494,29360.223336246414,28841.796975350022,28403.166342159075,28070.50532943074,27691.017412068537,27280.505273402367,26973.72758075328,26728.171316167274,26398.84071336278,26031.646255450996,25726.09790874695,25544.110005391838,25402.958739156573,25151.45691054546,24966.272707733242,24876.709267700826,24755.160481352865,24630.34834031443,24480.390486763776,24358.282906804434,24252.156824130634,24068.269022496825,23855.368656560026,23800.204551244326,23798.885798321462,23704.717898931256,23496.869027241355,23364.94903146613,23361.23864188655,23332.583705494846,23245.92599224162,23232.067910679332,23298.22907426704,23439.849727135865,23658.11451174194,24055.3273624572,24577.173540255255,25012.585522244637,25420.79543123191,25780.14442683988,26222.41839437704,26557.582802484372,26573.564299769914,26287.61843295317,25804.59723527399,25185.40921037307,24478.758809418538,23738.4019778254,23079.383144305128,22472.533282343542,21878.5133216993,21306.152201432255,20834.46333819191,20500.885903940907,20148.3541903918,19889.766858788356,19727.448490553918,19759.92557524748,19791.53094190728,19768.642755585046,19755.43287461196,19834.222773816917,19943.94748734802,20033.712093080532,20056.242651491484,19999.692738019556,19654.69356235189,18462.89854799492,16095.04414737751,12915.687312565722,9072.260149986763,4796.170269986424,434.8308366335436,-2725.258794457769,-3418.028762105556,-3428.6234889773714,-3430.8586634229023,-3434.501997769117,-3437.385372803852,-3439.5534920160167,-3443.085067639955,-3445.8790356968684,-3449.567073531994,-3451.489323555151,-3454.1715328897876,-3457.121963157888,-3461.0111666931116,-3463.380451605374,-3465.794440006547,-3470.0189197086,-3472.030576709578,-3474.377509877385,-3476.858553511924,-3478.959617490723,-3481.775937292092,-3484.9051815158346,-3486.447451883251,-3488.2355914396753,-3491.7224635747034,-3494.40467290934,-3496.6845508437814,-3499.5008706451504,-3502.0042660241447,-3505.3570276924406,-3507.055760271044,-3508.7544928496472,-3511.369646950918,-3513.7165801187257,-3517.181100509298,-3518.41044645434,-3519.9974203106667,-3521.897318589368,-3525.339487235485,-3528.289917503586,-3530.346277993474,-3531.7097344052477,-3532.559100694549,-3535.12955130691,-3537.990574597189,-3540.1810455538093,-3543.153827566365,-3546.7524584236694,-3548.8758741469237,-3551.088696847999,-3553.5920922269934,-3556.766039939647,-3559.0682696185436,-3560.565836497049,-3562.80101094258,-3564.700909221281,-3566.3549383109735,-3569.6182930014484,-3572.7475372251915,-3574.669787248348,-3578.0001971721886,-3575.988540171211,-3264.9640160756135,-1677.85604928208,1379.3485020814542,5319.044628029422,9037.682001314402,12440.489225445894,15724.87690745317,18762.657792885042,21828.33365539714,24659.517366828608,27175.407370973513,29490.735172120952,31743.835716704813,33851.26994267344,35708.11876155362,37404.14677907786,39146.93464600261,40840.638082103505,42401.214528228586,43865.36554877348,45328.57779605124,46864.88024769786,48397.22644057589,49843.20549287862,51198.41411094834,52658.2288930689,54097.7706429685,55487.17743005484,56822.64945777052,58139.92716549959,59350.98938357704,60462.87691150629,61428.919306864664,62333.06972182629,63334.092597257215,64295.619940235614,65196.01526212875,66252.58222253111,67348.93528806392,68255.0079530487,69037.36371247337,69808.05186129235,70502.16293360745,71016.49892526853,71384.11806632497,71775.92179488204,72184.7352009696,72401.88239835291,72684.36374477908,73361.4651395637,74161.23290791904,74494.31860379202,74281.70881053315,73887.87107323064,73688.2923469892,73758.02978968975,73961.09538806623,74268.56598479343,74647.29394284415,75004.69833668451,75315.72286078011,75606.02731776563,75953.7757580013,76376.55900437344,76680.7438946657,76886.22348144335,77140.87690602266,77432.94715082015,77682.2808602191,77817.35245196254,78011.29853860123,78236.3135500328,78377.57657499035,78442.84366879985,78507.39550678676,78613.34277550492,78730.28710249509,78813.3014814021,78828.0089292537,78869.89609836294,78967.59557337708,78948.17190744543,78903.40136330144,78911.58210177209,78945.10971845505,78868.53264195117,78770.92257391484,78670.7197035217,78570.56153661746,78465.24011674405,78299.30076590786,78197.53327340285,78130.76861271485,78022.29559687324,77854.94808613636,77667.14872922287,77478.03061938651,77305.51985568045,77109.76327774087,77002.6760700555,76918.56645567018,76736.86912499298,76475.44312184371,76124.29721645084,75845.52625960424,75646.88630662994,75314.98525321309,74979.82084510576,74785.38302008904,74603.43982022283,74326.59111339941,74023.00972020742,73778.39222888854,73543.87772606347,73285.06687701546,72986.6263850482,72739.99723672835,72514.69165261884,72187.75268647107,71869.12856926068,71631.99891233431,71449.25104966773,71198.44212513472,70876.10761834474,70596.55435044222,70423.52949661369,70207.81281087552,69899.80577228138,69605.76857397181,69422.43956594939,69216.60235126047,68892.07737351386,68516.38925270906,68283.30526152912,68116.6283031259,67924.26919034353,67614.11638428169,67308.12100268854,67047.29849663956,66741.77250167997,66390.17956139798,66142.18695666635,65943.65876241431,65692.51456171449,65399.61730237214,65058.86495815098,64732.01539898103,64393.11824954966,64058.53498679817,63732.17716600623,63480.407116461654,63233.59915418615,62969.80386612462,62665.86484502135,62423.236658958995,62224.976685640424,61946.60806019403,61624.742940037606,61356.566710062834,61161.32422224573,60832.9100409639,60458.63008005978,60174.606463266195,59952.56423384717,59676.497838079675,59326.536575142934,58975.90475987253,58745.324164071586,58522.96901023019,58181.61316890874,57840.97258340986,57531.71384712623,57162.19480779109,56634.80539736812,56163.92119692817,55822.43124513999,55454.43212442781,54975.0766128393,54474.68810971834,54092.24976208804,53805.096901070705,53432.04628611163,53051.753705949035,52756.71067913898,52457.55493134915,52114.07567430445,51697.88619254663,51361.760659427724,51113.25396457362,50844.60834796529,50506.60526831213,50244.352250618016,50049.780315134565,49842.0655539114,49548.63185270213,49239.90955828543,49052.71369847223,48912.61296422636,48743.03027904395,48537.34952656621,48376.796946143746,48267.452212268385,48023.08059013851,47749.696403705646,47601.61609668924,47459.52605718685,47278.27576139877,47045.68350859684,46858.68881448374,46722.99137389557,46553.609854413255,46304.49966245886,46026.220443990285,45866.56193334603,45723.309603131966,45477.015730978936,45212.10285569464,45027.54450172717,44870.16586901735,44585.941086523664,44348.34204296375,44228.26847174984,44083.54092640173,43856.648368435905,43604.632449702316,43428.59011037232,43252.27955010886,43034.908835281,42779.74132057921,42620.32867912396,42490.24152639408,42311.80755040736,42096.15791990256,41975.01146495479,41853.77560302921,41614.455475146235,41383.830175856376,41263.46603196455,41086.17199494505,40865.448518448895,40700.09031296853,40609.6328031579,40497.941136114736,40363.98713159408,40149.70095750105,39928.68690832698,39887.000904917826,39839.816372372676,39654.65452130491,39457.400376486825,39352.14601184679,39290.522252383504,39227.66914697518,39128.85208473827,39060.99218857195,39010.70076354752,38912.77777108881,38820.30860427721,38810.85381637261,38789.843176584625,38751.35347263259,38630.94462525185,38593.326639333565,38611.81153199811,38578.015694381684,38505.663097579854,38447.1238788514,38352.10661317189,38292.42745547622,38196.18084385167,38178.99235236554,38190.27998331547,38184.33441929035,38144.61536939328,38088.53484255491,38013.790609096366,37942.84617219522,37894.61110766067,37841.101031434664,37796.55400473523,37835.714261020934,37809.2721473303,37787.05451334173,37697.13344539803,37632.559255666645,37662.8905728925,37604.64192684197,37606.6759355874,37718.769934030766,37661.79533741419,37535.01624286368,37427.70551773376,37407.05250585706,37395.07197082901,37360.069139012,37312.728144255656,37325.40158336182,37355.509383143115,37327.81557176299,37248.31041673546,37231.72542234963,37316.75145825761,37353.29656044204,37352.46954589719,37387.047694569555,37377.72701713169,37301.261699350085,37212.52527386251,37199.15893067824,37239.66029163126,37238.52035266404,37179.80231997995,37202.46698885763,37257.988722084614,37311.677612266256,37249.584466169414,37165.497203528554,37234.94407355119,37237.648634630285,37170.63810475327,37187.379561350295,37275.601896715394,37307.833112219945,37258.43575697372,37181.94808744766,37206.64676507077,37263.643713431804,37278.06058860548,37202.690506302184,37174.50495654404,37221.86830304484,37216.34742216438,37146.609979463814,37079.800615286906,37074.90558325119,37036.594693254796,37017.6851174456,37049.84927771679,37090.127121225254,37100.18540623014,37049.2457806165,37036.23706534351,37040.17097236765,36970.098253500255,36871.81763313027,36841.79924032679,36882.16649081308,36976.33439020329,36969.0253697664,36948.55117184534,37011.58309120931,37088.22722294655,37136.752860159024,37124.191179775145,37129.0638600664,37205.68564005919,37240.733175365116,37187.714837517124,37170.41458730872,37168.49233728556,37169.766386719515,37145.31357828541,37165.02781689499,37268.963428612165,37332.017699720585,37329.067269452484,37302.78161797304,37321.78060076006,37359.89032505635,37360.15854598982,37322.33939437144,37354.21298196471,37341.13721145835,37334.454039866214,37281.79332992951,37242.9907015551,37275.42308275975,37231.79247758299,37087.78018805745,36917.70576449702,36784.46701579893,36623.82502839864,36315.683879337776,36008.280337843935,35784.33821014622,35440.30015949013,35033.40900342572,34719.21053161747,34457.02456915672,34185.62968798038,33898.23095777404,33603.32204143072,33410.5829489926,33232.14897300589,33025.887075172315,32838.87002931476,32727.044251804862,32635.87148617166,32492.6191559576,32308.64194734597,32204.37105946196,32166.015465976652,32143.998997688177,32061.521060648094,31978.037295107522,32039.079909214965,32059.218830969196,32036.28594115805,32084.856281859433,32140.154497641863,32111.097229849966,32060.20230772523,32040.108089459907,32108.705593193245,32191.496454655702,32263.536127035157,32317.560293383634,32334.100584280564,32312.262929947727,32298.96364199682,32266.508909047716,32209.087277542032,32181.058189995074,32131.30320683756,32059.375293180383,32027.05467069801,32034.00606322361,32013.598920535915,31974.86334739487,31961.787576888513,31919.274558934518,31884.316430606417,31874.660477001726,31888.853834730846,31921.733250824604,31853.247505813542,31779.218528177564,31776.491615354018,31804.766572089982,31868.245526343053,31862.299962317942,31843.569200464393,31875.465139802116,31891.60309929885,31933.98200678611,31955.685550652215,32029.647473054825,32089.505444706137,32105.576348969502,32068.33834270696,32087.91847084981,32132.55490452706,32152.559715814557,32116.908683408343,32165.076692709532,32232.28838828664,32306.00444150024,32328.378537700006,32350.149136799475,32433.99053025133,32485.086618076162,32501.29163280626,32473.24019351485,32460.723216619877,32487.09827507714,32428.64846332651,32391.9468989309,32503.34799329615,32550.35371188566,32509.159446854526,32499.682307205476,32467.495795189836,32480.392751740546,32459.449167185925,32370.153948086972,32359.02277934823,32359.916849126443,32322.097697508063,32250.594466995535,32257.165879865395,32289.844130259055,32294.985031483775,32235.52939123266,32219.078507313552,32301.15411295344,32351.758462400256,32322.58943588608,32306.563235111626,32305.512703122226,32291.989897726766,32228.265074284685,32199.408972192883,32207.790876363622,32243.75483319221,32225.42640273886,32231.215504552783,32293.599223327546,32335.21817150333,32343.19774427387,32339.532058183202,32358.82161364813,32448.18388798045,32509.29355732126,32449.90497230351,32526.10206915165,32646.5556200213,32744.210391546538,32717.433001689078,32751.362949772236,32917.61522503081,33021.88611291481,33019.85210416938,33043.723767247655,33157.49414652516,33290.53172952315,33307.630814031465,33310.67065127738,33404.83855066759,33460.74026355032,33521.87228463558,33562.06072116622,33608.708811844444,33621.04697478378,33699.07691467725,33709.738696782435,33797.73751470298,33974.070426710896,34098.41318111577,34116.115762724374,34195.17388286279,34307.536102239625,34344.14825965741,34302.37284927045,34290.191148542304,34353.87126849547,34449.313217319635,34445.401662039956,34487.95938348286,34616.951300734436,34675.87049911863,34667.62270541462,34700.05508661927,34769.50195664191,34847.017806412914,34858.79717574086,34855.71263500603,34915.391792701696,34992.79588375043,35013.42654388268,34946.930104128136,34929.518095197454,34946.01368260547,34990.24778488252,34943.3985285042,34866.888507233685,34827.21416082551,34815.703012431026,34770.3066194423,34715.41073506007,34713.10850538117,34667.28742924779,34565.83286116515,34485.50069159278,34370.43391113686,34247.20874395475,34099.53076833853,33911.46319049158,33806.0300118959,33771.02718007889,33705.42481010256,33627.50662893136,33603.00911700835,33593.330811659194,33556.428081563485,33518.69833692293,33547.129755870075,33530.6118167176,33494.6031564001,33433.538190548206,33408.72775420282,33410.91822515944,33434.90164695998,33474.57599336815,33499.945223324925,33539.798383688736,33600.349259418166,33553.902334440034,33468.58572585413,33456.56048733717,33553.9693896734,33604.41727690903,33598.67287858402,33683.385990069626,33724.73671731195,33772.01065683492,33825.02899468291,33947.918885698185,34083.90689896428,34181.76283618961,34244.906514275855,34391.913937558405,34494.28492716372,34522.716346110865,34549.02434933476,34692.90252839357,34872.14116718068,35078.67128594772,35161.30568519899,35210.345412533934,35300.26648047763,35288.911794294334,35259.51925033561,35252.38904385436,35216.849770170425,35230.618444754895,35216.04510737003,35201.91880487428,35225.67870923027,35154.77897581804,34974.1545288747,34801.82257912428,34765.433939151044,34765.74686357342,34719.165828128556,34640.152411479045,34574.77355894727,34545.291608010724,34462.657208759454,34382.70501884282,34338.96265494378,34306.70908769478,34242.55958110805,34175.59375471994,34076.061436660464,33997.09272349987,33898.83445487433,33815.06011665584,33695.411228586585,33643.30931226126,33621.85163758417,33524.50979048131,33494.29023197773,33551.600104761135,33575.98585796188,33560.138471143066,33533.562246985704,33569.861479981126,33568.43096833598,33544.000511646336,33515.56909269918,33475.827691057646,33531.952921384924,33552.60593326163,33477.45936840289,33449.98907446731,33491.92094706547,33503.56620592668,33443.462365086365,33458.03570247122,33486.020086529265,33503.32033673768,33465.43412988593,33421.89293168699,33415.67914672841,33393.685030184395,33283.848557931015,33171.329876343,33175.487300811685,33246.454089457286,33289.9058806784,33294.57739526956,33327.52386659668,33313.95635771231,33263.083787332034,33243.25779000018,33315.29746237963,33401.79871342167,33436.399213838486,33436.98035919433,33500.03463030275,33548.02382564829,33629.11595453214,33676.881632433135,33714.58902532924,33809.76275321993,33926.528266254456,33979.81482503591,34055.05079687248,34098.21201541567,34134.444193177726,34115.37815515735,34079.36949483985,34157.10886205541,34296.31552652306,34385.342524688545,34378.055855996114,34413.81864712461,34522.716346110865,34625.221446182906,34678.01626658634,34730.900493967594,34847.97893142449,34958.038921122425,35069.28355327649,35179.790577863525,35297.15958799834,35342.37716703143,35338.71148094076,35386.43245535284,35492.75970372673,35651.613551570605,35801.32553593225,35866.6149814862,35964.381511733714,36102.78351340097,36202.852273327386,36222.87943635934,36331.48656266768,36479.03042781716,36438.88669477543,36352.54190594458,36336.40394644785,36348.0268535646,36250.036805872536,36118.876769408795,36109.444333248655,36122.63186247729,36111.970080372106,36035.92944573515,35983.15697707617,35957.11719478574,35973.948058360584,35941.7838980894,35826.91828333357,35817.776419851354,35806.28762320133,35711.091543566174,35655.30158940573,35697.14405502607,35733.59975023267,35704.743648140866,35627.11603964759,35585.98882984982,35543.7887363182,35499.80050323016,35423.357537193006,35415.78029582266,35385.98542046373,35317.52202719713,35213.67582245777,35168.43589168023,35152.253228694586,35143.60310359039,35087.74609419657,35018.433334640664,34993.287622128446,34932.78144988793,34752.62638957815,34623.723879304394,34562.4577477524,34485.12071193704,34399.468827184304,34300.87528239194,34185.76379844711,34058.40355854077,33959.184164903665,33834.30496863186,33750.17300250209,33667.56095499527,33586.71469530043,33487.562356896684,33380.6316114225,33325.13222993997,33239.81562135406,33074.81504378498,32983.50816768505,32954.6297138488,32914.240111618055,32821.36861340626,32785.15878738866,32854.73976787803,32875.6610006882,32783.21418562105,32660.458405072503,32687.436960630057,32687.638126330156,32663.83351848525,32620.001747608396,32602.679145655533,32635.87148617166,32620.962872619973,32575.70059009798,32564.904697526064,32647.762614221887,32631.78111693634,32633.27868381485,32646.823840954763,32657.66443701559,32651.49535554592,32625.65673895559,32639.291303073325,32693.695449077542,32718.058850533827,32665.621658041677,32632.45166927,32666.225155141972,32738.354234499246,32729.56999892831,32718.595292400754,32714.259053976424,32703.15023698214,32669.62262029918,32656.546849792823,32776.463958795546,32853.778642866455,32850.6046951538,32846.17904975165,32905.65704174722,32961.13407148529,32962.966914530625,32915.11182965182,32994.52757770152,33117.2163030167,33235.65819688537,33303.24987211822,33391.49455922777,33471.02206599976,33508.57299668467,33498.06767679068,33541.36300580061,33674.1994230985,33808.64516599717,33811.30502358735,33846.21844842654,33925.58949298734,34015.44350569767,34002.68065961369,33919.30865279539,33895.5487484394,33960.212345148604,34035.873000129825,34077.51430005006,34083.07988441943,34114.104105723396,34088.51135832207,34050.17811658122,34074.541518037506,34157.55589694451,34191.128217116384,34116.78631505803,34073.42393081474,34120.47435289316,34227.80742976754,34285.229061273225,34355.838222007544,34472.89430771999,34570.61613447859,34547.28091326725,34508.76885757075,34597.12530340258,34740.891723739114,34750.72649129945,34761.70119782701,34826.36479453621,34858.59601004076,34808.46104722751,34798.62627966717,34817.401745009636,34833.65146322864,34812.12673331818,34750.055938965794,34790.199672007526,34879.71840855103,34929.495743453,34941.409223247676,34960.2517438235,34978.71428474358,34990.78422674945,34935.955397600585,34907.85925482026,34929.786316130914,34931.97678708754,34848.80594596934,34768.11614848568,34807.29875651583,34852.35987333773,34826.00716662493,34809.31041351681,34784.097645771224,34750.01123547688,34641.33705393518,34530.181828758934,34449.08969987508,34436.796240424665,34368.154033202416,34275.103721034975,34252.729624835214,34210.641290025866,34125.10116399541,34052.90502940476,34040.18688680969,33999.55141538995,33973.73515054407,33925.43303077615,33902.410733987184,33956.56901080239,34008.20154049415,34015.46585744213,34038.75637516456,34034.57659895141,34008.15683700524,33970.24827840904,33938.66526349369,33961.24052539355,33966.9178684852,33919.80039117341,33846.79959378238,33825.20780863855,33860.63532360021,33897.24748101801,33816.58003527881,33720.378127143165,33695.99237394242,33649.29957977529,33589.776884290804,33570.3755701036,33597.30942217224,33604.35022167566,33526.074412593174,33432.4429550699,33449.542039578206,33539.10547961062,33518.13954331155,33467.55754560918,33469.949182265904,33423.65871949896,33366.639419393476,33325.28869215115,33337.31393066811,33363.28665772518,33326.69685205184,33251.03619707062,33254.05368257209,33291.001116156716,33297.2596046042,33280.696961962814,33312.57054955608,33395.026134851716,33404.63738496749,33358.726901856295,33350.09912849654,33391.583966205595,33413.265158327245,33437.717966761345,33436.734490005314,33451.26312390126,33489.05992377519,33431.3924230805,33354.323608198596,33346.902829039434,33382.3303440011,33367.15350951594,33282.50745326369,33238.698034131296,33245.29179874561,33242.65429289988,33251.88556335992,33287.87187193297,33257.562906451574,33195.693277799284,33211.071277984534,33288.2071480998,33297.4607703043,33206.042135482094,33140.70798643923,33123.38538448636,33159.28228608159,33169.273515853114,33137.243466048654,33085.722695079174,33059.48174708864,33053.17855515225,32972.93579255769,32952.75216731455,32993.54410094549,32958.563620872934,32882.79120716944,32790.72437175803,32754.000455617963,32794.65827878217,32778.67678149662,32712.58267314228,32699.261033446914,32765.44454877908,32838.73591884803,32870.81067214139,32878.030285600464,32932.81441126042,32978.8813565828,32976.37796120381,32991.46538871114,33015.9405488897,33077.07256997497,33135.94706487025,33156.04128313557,33184.718571271726,33235.76995560765,33155.25897207963,33057.85006974341,33075.5079478631,33067.349561136914,33070.88113676085,33041.421537568756,33085.655639845805,33120.59141642945,33020.70147045868,32944.41496663272,32907.89221619275,32915.8717889633,32878.14204432274,32838.75827059249,32827.96237802057,32878.32085827838,32892.46951251859,32861.33353249235,32874.49870997652,32894.74939045303,32921.88440822177,32898.795056199444,32934.021405461004,33026.35646180588,33076.96081125269,33096.764456840094,33091.57885212646,33163.03737915008,33188.1830916623,33168.33474258599,33070.143529193825,33093.23288121616,33174.459120566746,33222.44831591229,33208.72434481673,33204.656327325865,33233.75829860667,33224.88465605792,33171.35222808745,33192.04994345307,33234.58531315152,33197.034382466605,33183.399818348866,33212.16651346284,33206.2880046711,33212.94882451878,33178.95182120226,33124.03358507557,33147.547620242556,33160.55633551554,33130.44853573424,33131.1190880679,33123.67595716428,33122.424259474785,33046.27186611556,32940.61517007532,32873.24701228702,32868.44138722913,32788.31038335686,32724.09382153676,32765.489252267987,32803.33075563082,32797.83222649482,32722.126868024694,32722.149219769148,32815.08777321431,32785.22584262203,32740.835278133785,32739.33771125528,32735.67202516461,32714.303757465335,32647.673207244065,32572.77251157433,32599.63930840961,32652.657646257598,32634.731547204443,32579.522738399835,32548.476165351414,32543.916409482532,32445.211105967894,32330.233732489796,32361.07913983812,32401.893425213508,32329.40671794495,32216.776277634657,32153.140861170396,32162.215669419253,32117.154552597352,32064.806767083024,32071.422883441795,32005.753458232102,31914.915968765734,31822.58091242086,31801.682031355147,31798.77630457596,31818.781115863458,31847.88308714427,31820.233979253055,31771.015437962466,31834.472040471082,31844.59738070934,31804.43129592315,31837.35541550582,31854.58861048086,31832.77330789248,31819.92105483068,31852.375787779783,31900.40968661424,31940.039329533498,31890.910195220735,31846.609037710317,31852.77811917998,31847.63721795526,31851.861697657314,31862.724645462593,31847.68192144417,31834.561447448905,31832.527438703473,31823.609092665803,31785.14174045822,31786.371086403262,31783.91239451318,31778.592679332818,31838.20478179512,31902.55545408195,31908.188093684686,31857.382578537774,31863.775177451993,31934.876076564324,31990.688382469227,31947.616570903847,31938.631169632816,32012.48133331315,31982.150016087297,31953.56213492896,31953.51743144005,31945.13552726931,31946.051948791977,31949.672931393736,31967.979010102634,31972.62817294934,32026.71939453118,32012.034298424045,31961.295838510498,31960.245306521098,31990.88954816932,32026.697042786724,32056.335455934463,32088.007877827633,32138.679282507812,32170.17289044534,32150.011616946653,32178.577146360538,32248.493403016735,32329.093793522574,32333.385328457993,32309.20074095735,32409.18009390594,32501.582205484177,32483.633754686565,32491.121589079095,32532.09233666567,32568.145700472083,32568.30216268327,32507.505417764834,32485.690115176454,32416.287948642726,32350.193840288382,32328.53499991119,32349.098604810075,32372.143253343496,32346.21522977534,32318.11908699502,32291.29699364865,32284.05502844513,32200.057172782086,32114.047660118064,32022.986653207143,31959.999437332088,31938.47470742163,31887.088046918878,31837.623636439283,31900.722611036614,31930.785707329003,31918.961634512143,31847.726624933082,31816.59064490684,31885.41166608473,31846.38552026576,31810.846246581823,31822.871485098778,31817.68588038515,31815.808333850902,31822.33504323185,31837.847153883835,31868.893726932256,31893.68181153319,31870.63716299977,31910.065640218934,31965.095635067897,31980.965373631167,31952.17632677273,32016.750516504115,32091.718267407214,32123.234227089197,32139.75216624167,32199.364268703972,32298.360144896527,32345.49997395277,32389.4435035519,32401.17816939094,32450.307303703703,32512.869836434107,32522.838714461177,32542.865877493132,32588.485787926413,32659.76550099439,32670.18141391056,32688.95687925302,32806.72822078803,32904.114771379805,32955.769652816016,33027.25053158409,33100.050163275024,33168.222983863714,33153.29201856757,33101.4136196868,33140.30565503903,33202.17528369132,33220.12373448894,33199.73894354569,33218.44735365479,33275.71252294928,33257.33938900702,33217.508580387665,33208.25495818317,33233.62418813994,33288.6541829889,33289.34708706702,33263.508470476685,33224.705842102274,33214.848722797484,33204.61162383695,33126.53698045456,33099.1113900079,33128.50393396663,33142.51847774011,33090.17069222578,33094.90926205031,33076.40201764131,33015.02412736704,32932.18856241567,32900.9184719227,32881.85243390232,32815.57951159233,32731.358138484735,32744.277446779903,32806.57175857684,32729.882923350684,32611.26221552637,32587.479959425924,32609.384668992123,32593.53728217331,32559.517927112334,32542.485897837392,32569.93384002851,32540.653054792056,32498.721182193898,32425.876847014053,32331.150154012463,32230.433193496847,32133.650140005368,32050.076967486977,32030.96622597769,32032.217923667187,31992.789446448023,31948.8906203378,31992.968260403668,32019.52213281657,31936.37364344283,31873.386427567773,31799.91624354318,31797.144627230722,31803.00078427801,31682.32371596381,31559.0985487817,31554.315275468267,31549.509650410375,31570.274421009355,31550.694292866505,31635.74268051895,31696.94175683758,31680.64733512966,31569.35799948669,31527.470830377442,31510.841132502694,31484.42137055652,31465.84707091416,31513.1880656705,31600.20340683501,31605.567825504284,31537.171487471045,31548.01208353187,31579.975078102958,31648.63963706966,31643.834012011772,31688.381038711195,31742.0922806373,31777.47509211005,31751.792937730905,31743.746309726994,31795.28943244093,31842.809241152914,31790.9531940166,31782.19131019012,31800.922072043668,31799.066877253877,31819.406964708207,31872.671171745205,31900.588500569884,31972.739931671615,32038.498763859126,31992.409466792284,31971.063550837465,31988.207338834687,31989.66020222428,31932.395032929784,31926.538875882492,31962.167556544253,32046.21011569621,32038.074080714476,31989.123760357354,31954.70207389618,31931.52331489603,31882.058904416434,31858.053130871434,31928.41642241674,32015.543522303527,32048.221772697187,32092.277061018594,32141.31678835354,32175.760826559166,32242.19021108034,32203.789914106124,32157.61121006146,32201.264166982673,32246.8617256715,32277.975353953287,32325.137534753983,32354.93241011291,32395.992564677308,32395.344364088105,32397.959518189375,32436.046890741218,32479.05164707323,32484.080789575673,32531.377080843104,32586.183558247514,32572.8395668077,32544.229333904903,32516.24494984686,32536.406223345548,32570.269116195337,32515.730859724386,32482.359705252613,32528.24783661936,32590.475093182933,32587.234090236914,32584.171901246536,32584.909508813562,32556.321627655227,32517.362537069625,32486.695943676943,32508.399487543047,32494.80962691422,32456.252867728817,32459.94090556394,32426.815620281177,32455.269390972782,32407.637823538524,32339.666168649936,32311.34650842506,32325.986901043285,32334.614674403034,32300.528264108692,32264.877231702478,32272.52152830619,32299.67889781939,32288.704191291836,32251.600295496024,32227.95214986231,32194.737457601725,32161.008675218665,32127.101078879965,32135.12535513942,32162.260372908164,32125.7823259571,32076.295563733052,32089.572499939502,32097.954404110245,32165.479024109725,32131.146744626374,32128.866866691933,32152.246791392183,32174.59853584749,32192.92696630084,32219.503190458203,32287.9218802359,32364.633067206512,32358.911020625954,32340.001444816764,32406.6990502714,32424.51339060228,32387.923584928943,32352.607828689557,32394.22677686534,32389.04117215171,32363.135500328008,32315.7274503383,32351.423186233427,32401.73696300232,32404.776800248244,32374.534890000214,32424.312224902184,32497.96122288242,32454.464728172392,32332.49125867978,32295.700287306347,32307.792581056667,32288.190101169363,32213.490571199727,32170.17289044534,32163.243849664195,32134.655968505856,32058.794147824545,32029.356900376908,32000.47844654065,31914.156009454255,31822.71502288759,31722.42274551663,31595.64365096613,31520.698251807484,31474.38543729609,31404.290366684243,31380.239889650333,31409.54302663124,31342.86777292106,31240.496783315753,31232.450155311843,31259.652228313953,31268.034132484692,31206.656242210418,31176.30257324011,31198.45315199532,31200.710678185307,31192.17231180338,31206.70094569933,31273.979696509803,31353.976589915346,31400.244700937834,31419.534256402763,31447.45158522744,31454.380626008588,31472.396132039565,31523.067536719747,31583.372543260164,31615.849627953725,31549.82257483275,31491.551577037764,31471.09973086116,31474.296030318266,31501.47575157592,31427.759698362315,31398.478913125866,31402.368116661088,31412.471105154887,31395.282613668754,31328.786173914217,31315.91156910796,31265.731902805797,31164.500852167712,31185.399733233422,31236.965207691817,31271.029266241705,31251.605600310042,31204.957509631815,31181.868157609482,31261.350960892556,31255.2265829118,31189.803026891117,31196.977936861273,31230.594960522052,31221.341338317558,31195.905053127415,31202.521169486186,31328.45089774739,31423.289349471255,31406.391430663043,31441.50602120233,31538.445536904997,31602.237415580443,31558.316237725765,31548.973208543448,31613.525046530372,31708.832884887805,31689.275108489408,31654.138166205666,31676.624021127707,31699.26633826093,31693.186663769087,31675.081750760288,31766.52273732695,31854.141575591755,31809.080458769855,31797.502255142008,31833.354453248317,31907.182265184198,31940.642826633793,31870.950087422145,31896.296965634465,31955.03735006301,31956.736082641615,31954.433852962717,32024.595978807927,32070.662924130313,32030.13921143284,31969.722446170148,32005.976975676655,32065.09733976094,32111.052526361054,32059.867031558402,32011.520208301572,32029.7592317771,32079.760084123624,32073.747464865148,32095.45100873125,32145.45186107777,32110.650194960857,32087.806712127534,32096.16626455382,32078.083703289474,32088.96900283921,32099.519026222115,32110.024346116108,32113.086535106486,32135.572390028527,32122.518971266625,32063.085682759964,32093.662869174826,32158.617038561948,32217.938568346333,32260.33982757805,32286.692534290858,32343.488316951793,32372.41147427696,32365.303619540173,32467.249926000826,32596.46536069696,32657.575030037766,32625.254407555392,32634.955064648995,32721.5233709244,32843.429785183645,32860.059483058394,32845.41909044017,32905.81350395841,32977.40614144876,33015.67232795624,32995.22048177964,32932.03210020448,32962.542231385974,33016.029955867525,33018.0416128685,33034.4477932987,33080.53709036554,33094.57398588348,33073.04925597301,33088.7625323251,33096.09390450644,33094.35046843892,33097.59147138494,33146.98882663117,33201.54943484657,33197.436713866795,33171.642800765374,33164.91492568432,33227.11983050345,33289.101217878015,33322.53942758315,33315.76684901319,33360.51504141272,33451.710158790374,33464.27183917425,33401.61989946603,33434.365205093054,33510.227025774366,33558.61855252011,33576.20937540643,33614.47556191392,33656.80976591227,33738.72890934097,33719.43935387604,33666.93510615052,33705.71538278048,33723.797944044825,33633.74276563439,33602.919710030525,33679.78735921232,33692.93018495204,33540.22306683339,33381.05629456715,33348.534506384676,33320.50541883772,33209.28313842811,33054.78788075303,32999.757885904066,32950.114661468826,32906.66287024771,32832.74565133401,32791.484331069514,32778.743836729984,32767.791481946886,32700.311565436314,32630.060032613284,32541.10008968116,32465.193565510937,32373.752578944277,32299.76830479721,32242.95017039182,32198.626661136946,32106.805694914547,31978.931364885735,31905.908215750245,31873.274668845497,31813.215531494086,31764.600487303793,31795.267080696474,31812.030889037957,31739.387719558206,31627.584293792763,31647.41029112462,31679.440340929075,31542.75942358487,31426.84327683965,31415.108611000614,31442.400090980544,31462.51666099032,31458.31453303272,31425.524523916785,31432.23004725338,31428.56436116271,31357.57522077265,31348.67922647944,31423.870494827093,31437.303893244734,31368.527575555752,31322.170057555446,31324.24876978979,31360.05626440719,31382.855043751606,31400.02118349328,31456.928724876492,31471.189137838977,31521.078231463223,31567.68161865254,31587.68642994004,31607.713592971995,31572.889575110625,31555.924601069048,31620.521142544883,31725.70845195156,31756.553859299882,31720.679309449115,31786.169920703167,31868.267878087507,31864.982171652577,31830.068746813387,31879.577860781894,31902.17547442621,31896.11815167882,31915.117134465832,31889.99377369807,31879.26493635952,31923.811963058946,31982.41823702076,31973.343428771906,32033.603731823416,32093.238186030172,32085.68329640428,32059.285886202564,32056.648380356837,32084.565709181516,32108.347965281962,32048.62410409738,32057.09541524594,32091.38299124038,32162.55094558608,32199.386620448426,32304.59628159956,32376.725360956832,32345.567029186135,32299.522435608204,32290.224109914794,32338.45917444935,32396.64076526651,32393.31035534267,32376.390084790004,32390.471683796848,32445.635789112544,32432.98470175084,32374.02079987774,32486.606536699124,32616.090192328717,32635.580913493744,32612.759782404875,32673.489472089947,32778.699133241076,32799.57566256233,32853.44336669962,32919.44806807614,32939.341120641366,32937.888257251776,32888.870881661285,32894.63763173075,32994.25935676806,33090.01423001459,33115.89755009384,33146.698253953255,33223.09651650149,33231.143144505404,33143.121974840404,33130.828515389985,33191.357039374954,33255.9982843397,33298.55600578261,33316.437401346855,33427.100888145076,33505.86843560558,33543.50877326832,33505.041421060734,33515.2114647879,33534.746889441834,33528.57780797217,33509.243549018334,33478.129920736545,33493.15029301051,33456.64989431499,33319.097258937036,33245.112984789965,33250.05272031459,33282.97683989726,33301.193511628335,33319.991328715245,33279.78054044015,33271.97978162525,33202.62231858043,33129.97914910068,33138.875143393896,33159.43874829278,33161.18218436029,33109.572006412986,33126.492276965655,33132.281378779575,33089.38838116985,33064.197965168714,33110.39902095783,33123.00540483063,33135.723547425696,33112.81300935901,33085.230956701154,33047.12123240486,33034.17957236523,33000.942528360196,33003.87060688384,33018.48864775761,33086.437950901745,33143.90428589634,33149.73809119917,33209.59606285048,33296.76786622618,33378.50819569924,33428.62080676804,33442.88121973052,33450.63727505651,33452.537173335215,33433.98522543731,33401.03875411019,33400.99405062128,33403.65390821146,33318.940796725845,33235.32292071854,33203.69520231429,33142.071442851004,33118.62446291739,33164.378483817396,33159.550507015054,33033.17374386475,32887.529776993964,32797.02756369443,32709.028745773885,32609.45172422549,32525.677386007,32388.97411691834,32280.366990610004,32171.715160812757,32123.569503256025,32026.652339297812,31933.847896319377,31856.756729693025,31798.686897598138,31685.676477632103,31618.86711345519,31530.890647279102,31449.910277117528,31406.011451007304,31365.82301447666,31347.33812181212,31330.417851259455,31299.01365029975,31269.531699363197,31204.242253809247,31196.776771161174,31168.74768361422,31111.907197464374,31094.942223422793,31120.736136524218,31074.19980456827,30980.255422622613,30943.84443090492,30975.27098360908,31015.14649571735,30983.13879765735,30992.213605906203,31004.90939675682,30990.492521583146,31012.106658471428,31011.503161371133,30999.74614378764,31054.57497293651,31088.72843846422,31120.914950479862,31123.820677259053,31164.500852167712,31244.296579873157,31351.2496770918,31420.808305836716,31399.97648000437,31449.440890483966,31505.968452211437,31507.264853389843,31565.424092462552,31586.83706365074,31689.923309078615,31828.34766249033,31936.910085309755,31979.892489897313,31982.23942306512,32010.693193756724,32003.115952386375,31979.020771863554,32003.697097742213,32051.373368665383,32083.939860336766,32135.147706883876,32151.39742510288,32126.139953868387,32108.280910048594,32139.595704030482,32116.484000263692,32079.29069749006,32041.9632842497,32032.508496345105,32011.453153068207,31963.866289122856,31908.545721595972,31859.97538089459,31812.142647760233,31779.75497004449,31722.780373427915,31687.352858466253,31643.252866655934,31637.79904100884,31691.264413745932,31709.928120366112,31702.999079584966,31732.10105086578,31759.303123867885,31814.48958092804,31871.754750222535,31906.310547150442,31945.403748202774,32032.53084808956,32158.393521117396,32229.94145511883,32316.66622360542,32389.68937274091,32456.632847384557,32590.564500160755,32700.915062536606,32827.91767453166,32977.786121104495,33084.3592386674,33142.004387617635,33229.48911541571,33339.996140002746,33395.94255637438,33427.07853640062,33471.44674914441,33524.24156954784,33559.37851183159,33574.041256194265,33580.38915161957,33543.95580815742,33552.62828500608,33580.36679987512,33591.31915465822,33616.15194274807,33601.69036408548,33585.932384244494,33615.727259603416,33620.689346872496,33580.5232620863,33580.7244277864,33589.642773824075,33583.54074758777,33545.5651337582,33498.49235993533,33489.037572030735,33494.558452911195,33436.80154523868,33453.83357451363,33423.70342298787,33424.932768932915,33479.78394982624,33488.23290923034,33474.79951081271,33499.36407796908,33517.290177022245,33523.48161023636,33522.56518871369,33474.218365456865,33500.81694135868,33518.161895056,33537.02676737628,33468.2504496873,33390.37697200501,33303.74161049624,33241.76022312167,33243.19073476681,33230.85257182748,33145.67007370831,33022.15433384828,32960.307056940444,32932.5238385825,32842.15573574969,32797.80987475036,32740.455298478046,32674.852928501718,32585.15537800257,32468.032237056763,32311.413563658425,32200.481855926737,32097.30620352104,31956.154937285777,31803.984261034046,31638.15666892012,31564.19474651751,31566.273458751853,31489.204643869954,31435.024015310293,31399.2612241818,31363.654895264495,31307.52966493722,31237.926332703395,31202.27530029718,31134.929494253338,31029.56337089102,30958.954210156706,30926.097145807405,30933.719090666666,30956.249649077614,30901.577282139933,30814.226664808593,30793.014859320505,30822.876789912796,30852.24698212707,30855.085653672893,30932.199172043704,30957.74721595612,30986.536262814556,31032.960836048227,31081.687638960797,31099.591386269498,31071.159967322346,31095.948051923282,31159.73993059873,31294.565653153142,31352.322560825654,31340.34202579761,31345.92996191144,31394.053267723713,31396.333145658155,31424.02695703828,31423.31170121571,31408.268977197287,31389.091180454634,31383.92792748546,31440.053157812734,31492.22212937142,31526.666167577052,31527.33671991071,31567.994543074914,31609.88171218416,31600.628089979662,31565.96053432948,31574.320086755764,31633.64161654015,31702.060306317846,31743.165164371156,31721.61808271624,31696.874701604214,31703.848445874268,31668.35387567924,31651.612419082216,31642.157631177623,31634.803907251826,31666.833957056282,31637.061433441813,31617.078973898766,31642.537610833362,31626.801982736826,31596.403610277608,31622.53279954586,31652.685302816073,31683.106027019745,31652.081805715778,31651.54536384885,31720.634605960204,31722.51215249445,31796.608185363795,31849.268895300498,31873.095854889856,31927.879980549813,31944.28616098001,31949.114137782355,31987.447379523204,32004.72527798716,31964.246268778596,31957.294876252996,32040.24219992664,32078.463682945217,32065.700836861237,32092.50057846315,32126.452878290762,32158.88525949541,32191.74232384471,32195.139789001918,32280.411694098915,32344.002407074262,32399.50178855679,32449.94967579242,32486.830054143677,32560.143775957084,32600.376915976634,32658.625562027166,32680.574975082276,32672.550698822823,32704.96072828302,32797.29578462789,32867.36850349528,32916.49763780805,32951.81339404743,33009.615005208856,33051.23395338463,33000.920176615735,33120.45730596272,33256.35591225099,33280.51814800718,33310.53654081065,33357.16227974442,33378.06116081013,33351.41788141941,33300.74647673923,33282.64156373043,33285.07790387606,33283.20035734181,33275.64546771592,33243.95069407829,33246.27527550164,33236.82048759705,33253.941923849816,33235.121755018445,33204.32105115903,33153.35907380093,33134.96358811422,33121.12785829638,33127.76632639961,33117.37276522789,33051.0998429179,33011.827827909925,33007.60334820788,32946.76189980053,32856.75142487901,32834.73495659053,32787.840996723295,32717.321242966802,32686.408780385114,32697.674059590587,32731.402841973646,32784.77880773292,32813.3443371468,32884.55699498141,32871.458872730596,32873.26936403148,32881.5618612244,32931.0709751929,32956.03787374948,32968.219574477625,32959.92707728471,33000.69665917118,32972.689923368685,32977.361437959844,32981.5859176619,32929.99809145905,32858.941895835625,32791.52903455842,32709.967519041005,32599.773418876342,32539.982502458395,32471.51910919179,32332.49125867978,32242.03374886915,32132.9348841828,32030.407432366304,31954.411501218263,31858.902497160736,31805.10184825681,31744.640379505207,31640.302436387832,31522.978129741925,31453.03952134127,31420.02599478078,31343.940656654915,31232.919541945404,31159.292895709623,31190.965317602793,31202.521169486186,31235.177068135392,31243.402510094944,31183.991573332736,31152.11798573947,31129.2968546506,31110.141409652402,31114.25413063218,31134.750680297697,31195.4133147494,31132.11317445197,30997.600376319933,30988.23499539316,31046.282475743592,31057.95008634926,31063.42626374081,31043.62261815341,31032.200876736748,31008.977414247685,30949.74529144112,30909.10982002137,30921.537389938523,30893.374191924835,30855.19741239517,30891.049610501483,30930.858067376386,30945.83373616144,30929.919294109262,30975.89683245383,31014.364184661412,31054.373807236414,31088.57197625303,31165.238459734734,31219.597902250043,31279.791150068184,31291.86109207405,31359.810395218185,31463.746006935362,31492.66916426053,31468.17165233751,31518.083097706214,31589.519272985373,31602.125656858167,31581.517348470374,31583.52900547135,31571.280249509844,31543.76525208536,31571.861394865682,31614.30735758631,31561.49018543842,31546.53686839782,31540.278379950334,31516.540827338795,31536.23271420392,31538.87022004965,31500.179350397513,31427.64793964004,31352.43431954793,31359.139842884524,31398.031878236758,31362.671418508464,31360.92798244095,31306.032098058713,31315.375127241034,31370.315715112178,31349.841517191115,31278.785321567695,31173.799177861118,31153.88377355144,31165.484328923743,31192.79816064813,31160.92457305486,31148.899334537906,31205.181027076367,31245.905905473937,31249.504536331242,31296.219682242834,31344.544153755207,31363.274915608756,31391.996907233824,31465.33298079169,31497.3853823406,31513.791562770795,31507.823647001227,31519.62536807363,31547.833269576226,31585.607717705694,31662.45301514304,31751.457661564073,31769.786092017424,31760.644228535206,31735.00677764497,31762.834699491825,31790.841435294325,31825.307825244407,31904.18713142719,31974.975106117145,32004.30059484251,32072.182842753275,32161.299247896583,32207.23208275224,32252.650827485424,32276.231917885772,32307.904339778943,32365.437730006903,32411.258806140282,32465.215917255395,32549.683159551998,32675.724646535476,32863.79222438243,33038.962845678674,33151.90621041134,33277.79123518363,33403.94448088938,33536.31151155371,33769.21668877801,34032.25201752806,34260.21745922774,34443.94879865036,34606.535387818265,34750.83825002173,34926.21003701807,35104.73341998261,35256.613523556414,35370.83093772303,35433.572284409085,35452.995950340744,35459.47795623278,35468.038674359166,35465.91525863591,35530.44474487838,35505.05316317715,35464.01536035721,35400.04466772612,35308.357811970454,35202.49995023012,35099.79368445798,35028.223398712085,34962.3528078023,34820.955672378026,34692.92488013803,34563.687093697445,34430.090717088075,34278.90351759238,34089.67364903374,33923.756649942,33713.71730729548,33516.35140375512,33365.81240484863,33197.12378944442,33036.90648518878,32911.84847496134,32703.597271871244,32503.86208341862,32346.237581519796,32162.618000819446,31998.75736221759,31867.35145656484,31679.373285695707,31527.71669956645,31360.05626440719,31150.732177583242,30970.55476552901,30885.618136598845,30813.19848456365,30774.507614911512,30734.900323736707,30726.36195735478,30713.286186848425,30750.345379155326,30770.305486953916,30769.657286364712,30742.119937195774,30726.18314339914,30763.443501406135,30817.28885379897,30835.57258076341,30839.57354302091,30914.675404390742,31046.081310043493,31143.78078505764,31231.287864600166,31297.985470054802,31319.689013920906,31355.58591551613,31404.73740157335,31480.733332721393,31568.24041226392,31617.63776751015,31619.604721022217,31628.701881015528,31610.172284862078,31587.68642994004,31587.798188662317,31564.44061570652,31550.4484236775,31583.1043223267,31598.951709145513,31617.078973898766,31580.466816480974,31520.05005121828,31540.1442694836,31546.33570269772,31553.24239173441,31600.181055090554,31648.63963706966,31647.566753335806,31634.155706662623,31624.991491435947,31596.560072488795,31603.600871992217,31638.17902066458,31619.425907066576,31595.889520155135,31553.689426623518,31607.132447616157,31672.89127980367,31682.279012474897,31711.448038989074,31721.886303649702,31790.684973083138,31852.845174413345,31814.221359994575,31801.01147902149,31824.34670023283,31830.605188680314,31789.142702715722,31761.784167502425,31824.927845588667,31856.26499131501,31880.807206726935,31962.65929492227,32014.33652810294,32030.653301555314,32068.58421189597,32116.104020607952,32104.615223957924,32054.167336722297,31993.839978437423,31977.590260218414,31990.263699324576,31988.09558011241,31962.94986760019,32010.916711201276,32068.673618873792,32074.842700343455,32107.744468181667,32130.185619614796,32149.251657635174,32158.79585251759,32152.47030883674,32228.265074284685,32325.629273132003,32449.07795775866,32514.836789946177,32566.15639521556,32646.80148921031,32755.498022496467,32874.85633788781,32961.849327307864,33085.677991590266,33239.36858646495,33342.164259214915,33401.88812039949,33471.491452633316,33537.898485410034,33598.31525067273,33690.49384480641,33776.14572955915,33938.03941464894,34112.29361442252,34242.71604331923,34405.414391209415,34617.46539085691,34924.690118395105,35135.91410349776,34922.76786837195,34371.73031231527,33851.89579151819,33386.73363765879,33040.79568872401,32813.232578424526,32756.77207193042,32774.072322138825,32920.52095181,33080.11240722089,33227.298644459086,33456.85106001509,33751.98349380297,33958.9159439702,34118.46269589218,34289.16296829736,34450.34139756458,34572.136053101545,34660.13487102209,34728.71002301097,34804.92947160357,34880.76894054043,35021.249654442036,35210.79244742304,35329.30139652507,35411.77933356516,35463.38951151246,35522.71104129685,35585.31827751616,35590.07919908514,35592.873167142054,35639.11892642009,35754.029244664816,35789.14383520411,35719.54050297028,35656.374473139585,35660.73306330837,35706.33062199719,35705.81653187472,35698.70867713793,35659.72723480788,35606.68654521544,35487.194119357366,35412.40518240991,35359.02921665063,35291.0799135065,35173.46503418267,35029.765669079505,34914.408315945664,34763.64579959462,34601.34978310463,34518.89419780901,34466.12172915003,34376.55828911761,34250.09211898949,34108.82909403194,34068.77476796803,34017.8798458433,33959.67590328168,33867.877288803735,33732.7609935714,33648.58432395272,33610.07226825622,33511.97046184188,33380.72101840031,33291.09052313453,33194.151007431865,33043.34378759191,32901.81254170091,32797.139322416704,32652.41177706859,32448.51916414728,32302.003479242743,32147.821145990034,32046.8136127965,31883.198843383652,31721.126344338223,31645.77861377938,31582.836101393237,31532.701138579985,31468.886908160082,31353.596610259607,31228.829172710084,31178.98478257475,31137.54464835461,31051.3786734794,31023.349585932447,31022.924902787796,30976.70149525422,30979.964849944696,31098.071467646536,31193.40165774842,31257.14883293496,31313.63169117352,31415.17566623398,31486.14245487958,31602.34917430272,31716.87951289171,31828.168848534686,31913.016070487032,32001.059591896486,32103.654098946346,32187.60725112048,32281.261060388217,32395.567881532657,32533.031109932796,32670.941373222042,32746.847897392265,32786.76811298944,32844.56972415087,32872.41999774218,32930.93686472617,32973.98632454709,32959.837670306886,32995.287537013,33045.69072075972,33098.44083767424,33186.32789687251,33215.72044083124,33252.98079883824,33326.495686351744,33371.22152700681,33325.48985785125,33334.76583180021,33340.130250469476,33419.52364677473,33454.16885068046,33438.366167350556,33484.00842952829,33568.60978229163,33631.95462607797,33648.45021348599,33733.45389764952,33836.38368086621,33917.27464404996,34006.34634570436,34144.25660899361,34222.44301109827,34276.33306698001,34334.46995430827,34378.88287054096,34414.064516313614,34371.48444312625,34370.99270474824,34418.87014137151,34478.750464767276,34520.10119200959,34535.03215730574,34538.16140152948,34524.459782178375,34615.54314083375,34669.8355281157,34719.5458077843,34742.88102899564,34824.04021311286,34901.824283817325,34950.03699660742,34928.08758355231,34894.492911635985,34892.72712382402,34883.518205108434,34906.1381704972,34929.54044694191,34945.43253724963,34966.01849389297,34942.21388604807,34918.00694680297,34952.33922628632,34974.98154341955,35019.12623871878,35073.37392251181,35014.99116599455,34979.74246498853,35045.05426228693,35093.22227158812,35086.29323080698,35050.686901889676,35053.257352502034,35102.36413507034,35153.10259498389,35114.210559631654,35125.49819058159,35178.71769412967,35184.08211279895,35157.975275275145,35133.94714998569,35148.02874899253,35166.29012421252,35143.8936762683,35144.206600690675,35190.72058090217,35255.02654970009,35236.49695354664,35209.80897066701,35174.73908361662,35115.61871953234,35062.73449215108,35005.849302512324,35039.555733150926,35016.30991891741,34938.10116506829,34829.13641084867,34775.11224450019,34797.374581977674,34785.32699171627,34749.87712501015,34747.37372963116,34764.673979839565,34715.030755404325,34657.34090296518,34572.11370135709,34506.153703469485,34494.73196205282,34489.54635733919,34461.3831593255,34424.078097829595,34347.23280039225,34294.393276499904,34236.45755487175,34170.43050175077,34141.61910314788,34070.22763135763,33930.12689711176,33818.994023679974,33779.02910459389,33756.856174094224,33678.58036501174,33553.61176176211,33396.0319633522,33246.25292375719,33116.1657710273,32955.30026618246,32813.47844761353,32715.600158643745,32670.628448799667,32568.838604550197,32427.307358659193,32321.695366107866,32197.106742513984,32068.20423224023,31984.6981149552,31903.74009653808,31817.350604218318,31749.20013537409,31702.32852725131,31644.638674812162,31602.885616169646,31505.43201034451,31420.3165674587,31316.04567957469,31266.08953071708,31160.634000376944,31141.031520489636,31163.673837622864,31177.531919185156,31145.837145547528,31124.759450526173,31203.683460197863,31295.258557231256,31231.60078902254,31198.27433803968,31208.13145734447,31210.388983534456,31229.27620759919,31278.785321567695,31308.267272504247,31326.72981342433,31331.311921037668,31281.75810358025,31328.070918091646,31391.97455548937,31410.03476500926,31407.17374171898,31429.97252106339,31438.689701400963,31466.89760290356,31484.28726008979,31480.822739699215,31463.500137746352,31493.674992761018,31475.391265796577,31475.301858818755,31505.029678944313,31483.773169967317,31495.15020789507,31528.789583300306,31581.383238003644,31623.1139449017,31641.822355010794,31685.0282770429,31638.40253810913,31596.82829342226,31568.396874475107,31505.968452211437,31495.306670106256,31469.22218432691,31388.77825603226,31332.63067396053,31303.461647446355,31270.202251696857,31233.008948923227,31167.02659929116,31128.15691568338,31083.028743628114,31026.27766445609,30973.818120219486,30956.450814777712,30990.76074251661,30980.85891972291,30914.764811368565,30872.229441670115,30844.088595400885,30849.363607092335,30824.352005046847,30744.556277341402,30729.290035878425,30775.46873992309,30792.701934898134,30774.440559678147,30803.341365258857,30840.86994419932,30886.378095910324,30849.877697214808,30765.03047526246,30672.047218328385,30662.21245076805,30601.81803724981,30494.08262897523,30433.196477078975,30409.727145400902,30396.11493302762,30343.38716785755,30310.798324441712,30281.204614782884,30220.07259369762,30210.237826137287,30173.24568906375,30127.424612930372,30096.40039162641,30030.641559438893,30009.85443709546,29995.616375877427,29938.395910071842,29807.124114885824,29796.238815336088,29762.55473644194,29689.106904161803,29576.18589117359,29465.812977053283,29414.716889228454,29388.945327871483,29306.020355942295,29277.387771295045,29308.680213532476,29277.32071606168,29239.5015644433,29265.049608355715,29290.262376101302,29349.963885541427,29371.935650340994,29433.402947593087,29496.926605335073,29538.009111643925,29539.059643633325,29557.03044617539,29614.966167803548,29742.974608299093,29809.47104805363,29846.48553687162,29901.806104398504,29893.938290350234,29905.896473633824,29927.2647413331,29973.041113977568,30033.88256238491,30113.700641834814,30171.479901251783,30228.94623624638,30233.371881648527,30208.293224369674,30210.818971493125,30276.913079847465,30310.775972697258,30284.065638073163,30280.109379304577,30312.318243064674,30366.67768557998,30401.188779018972,30424.59105546368,30422.132363573597,30441.13134636061,30563.082464108764,30635.278598699406,30646.141546504685,30713.21913161506,30727.077213177352,30693.92957615013,30680.69734343259,30712.03448915893,30747.484355865046,30763.219983961582,30812.23735955207,30834.611455751834,30852.40344433826,30850.77176699302,30844.870906456817,30788.365696473804,30723.344471853314,30688.229881314026,30569.273897322884,30486.12540794914,30449.669712742536,30406.128514543598,30318.15204836751,30198.860788209535,30105.76577255318,30025.634768680906,29956.79139575856,29849.458318884175,29788.616870476828,29707.74825903753,29602.404487419666,29593.128513470714,29559.645600276664,29448.11039544468,29336.172859212504,29341.783147070786,29294.911538948007,29152.48622327879,29028.434041551835,28976.890918837897,28886.031077627074,28830.107012999895,28790.879701480833,28678.9198135042,28723.131564036797,28766.06926513544,28689.760409565024,28628.404871035204,28620.04531860892,28600.66635616617,28586.67416413715,28591.882120595234,28561.03671324691,28545.770471783933,28522.815230228334,28580.147454756196,28659.697313272634,28634.10456587131,28590.920995583656,28634.641007738235,28708.044136529465,28816.383041904337,28922.173848411305,28964.083369265005,28956.282610450104,28967.25731697766,28987.73151489872,29069.360085649503,29179.218909647338,29226.381090448034,29253.761977405786,29344.577115127697,29386.777208659318,29404.502142012378,29501.35225073722,29627.661958654164,29727.574256369386,29809.04636490898,29874.62638314085,30075.47915881624,30224.587646077594,30274.476739701837,30291.307603276684,30282.99275433931,30306.126809850553,30327.42802231646,30237.238733439295,30127.648130374928,30061.62107725395,29914.30072954902,29774.669381936717,29673.01364815398,29565.769978257416,29439.169697662557,29251.079768071148,29068.398960637925,28584.818969347358,27757.267982634068,26801.708555425233,25787.92283391033,24679.63393683838,23438.35216025736,22116.961731548516,20795.705413306405,19503.52871460065,18234.150795239308,17021.881582961272,15959.68198295617,15095.205914402713,14442.780845496756,14114.612533403939,14070.289024149064,14274.159285325919,14648.953336352508,15151.018220307617,15827.60552496976,16563.871987327577,17281.877074465403,17885.217712547506,18426.26403883267,18916.460146482008,19280.05597353649,19534.44117718234,19853.869957193132,19959.996039866932,19635.18048944241,19180.50130373255,19022.362711711256,19105.220628407078,19217.94047569519,19432.293705021584,19641.12605346752,19829.037169103285,19991.33318559327,20111.45146029609,20158.099550974315,19921.46163242598,19010.963322039046,16874.29301432288,13640.152053851136,10259.875388130593,7498.943209522154,5298.19045045262,3051.1919321050564,499.82970950957656,-962.7343371789858,5649.805742479056,17610.850049358614,22237.862317307274,14439.42808382846,1010.1647389131474,-3535.084847817999,-3632.0467152651213,-3635.600642633515,-3637.6122996344925,-3640.2945089691293,-3643.0884770260427,-3646.15066601642,-3648.7434683732354,-3652.4538579528166,-3654.9349015873554,-3656.991262077244,-3659.0699743115874,-3662.601549935526,-3665.06024182561,-3667.273064526685,-3669.664701183403,-3672.1010413290314,-3673.956236118822,-3676.481983242272,-3680.0359106106653,-3682.3828437784728,-3684.0368728681656,-3686.7861374361682,-3687.948428147844,-3690.6529892269364,-3693.134032861475,-3558.7776969406245,-2719.8496722995847,-1136.4520950856322,865.2360278649364,3203.4520153346084,5831.100741756051,8573.860952122326,11317.04584563325,14055.849797230936,16786.94239699154,19484.32856611354,22046.441977792023,24370.82223544386,26491.53339761894,28450.797909593333,30193.0269829067,31638.559000320318,32864.79805288292,33962.38046436077,34998.54028207544,35872.13586236666,36577.26634469823,37297.64071674833,38103.264642150956,38894.784616802295,39689.791463588655,40714.84246430903,41991.23883142934,43331.40472548064,44891.176508805336,46775.40621464327,48938.33982209442,51237.194387578296,53387.83453557904,55240.99531662409,56862.1226384786,58367.244406610065,59879.63049168951,61437.5023767355,62992.89321814695,64517.05867255434,66100.9479881463,67575.93960475203,68874.62066109428,69993.90661643822,70986.81580863187,71851.73891207445,72670.79623589471,73452.30262903006,74124.28547433442,74618.03550935215,75053.53689831936,75277.05434287243,75308.79381999896,75324.95413124016,75495.83321760097,75775.58765120359,76049.17300333656,76309.43671577415,76390.77471384701,76432.37131027834,76553.6742274373,76769.61443062001,77022.56912262073,77233.86016295674,77336.72289094006,77297.0932480208,77184.44045596606,77083.32116405024,76956.1173863551,76699.76522919718,76297.43382900165,75859.47374814436,75462.99850499613,74975.26108923687,74424.00001573563,73849.71664544543,73274.80742631048,72706.60373051211,72142.66921790472,71560.16040565495,70955.25514546098,70271.55998606206,69624.29817012527,69080.61433799438,68584.00327968637,68067.18624439076,67590.53529388133,67149.42361705586,66703.95335006158,66306.53933364623,65944.37401823688,65550.75979837893,65179.676136931914,64789.63819618681,64333.97553372092,63883.11849631292,63474.72977337,63021.70461674984,62534.28012541296,62044.91103230847,61562.80625615195,61068.22920658937,60588.8513432564,60082.78549704379,59676.27432063512,59246.562033481845,58772.68269928488,58319.1658042867,57893.87916253557,57423.37494175136,56887.8271446022,56349.597138118406,55838.59155638118,55395.28940859907,54930.216661717495,54499.31973210809,54047.32275573287,53610.256744653794,53195.497774541116,52759.28112975135,52311.17335691135,51960.049803262926,51645.78427622131,51291.12914694895,50929.030886772984,50589.19496407449,50307.317114748614,49984.22264864715,49550.062364347265,49174.48600226474,48801.59184951685,48453.23991218089,48101.08817828753,47733.84901688684,47441.62230987815,47152.54719883767,46817.516901197065,46493.550717061844,46216.925527682964,45931.9407858778,45662.51285821353,45362.17246796757,45092.63278158102,44838.44874363527,44504.87130938427,44235.845713120194,44020.106675637566,43766.03439641409,43483.30718079891,43227.22324457446,42976.34726480809,42724.465456541235,42467.06276739392,42154.093641530715,41894.1875570044,41694.89940344088,41438.79311547198,41173.29909483184,40968.087728987666,40780.154261607444,40591.79611108257,40473.24245849162,40295.479034838565,40140.84966669675,39997.41852252704,39813.88834880452,39565.91809581734,39342.288892542,39163.027902010435,39014.92524324957,38865.414424588016,38689.75206491376,38545.62801666594,38413.08217204597,38225.34987036585,38067.01011264445,37955.13963164564,37828.092316161674,37712.35498337209,37615.12489499151,37519.37002174497,37367.19934549324,37234.787611340005,37170.34753207535,37047.94937943809,36903.3112410678,36818.6428330711,36680.754921526306,36595.19244375139,36509.42880027638,36426.704994047286,36361.01321709314,36345.52345818561,36261.905582178304,36162.01563620754,36017.51160830398,35932.91025554064,35846.14078356514,35722.557988471744,35646.40559511252,35576.93637334542,35490.63628800348,35413.34395567703,35296.466683920225,35167.407711435284,35029.60920686832,34920.4432869486,34783.24827948192,34656.022150042314,34511.16049422747,34357.49225109723,34198.43723755327,34060.57167775294,33941.30276933942,33773.8211481358,33639.688329659504,33444.82582149814,33271.3539327805,33118.512704195105,32966.52084189902,32735.694376909065,32504.934967152476,32274.19790914034,32095.07102907551,31880.06959915991,31697.768771382427,31560.193784260013,31342.554848498687,31090.740095465197,30905.667651375254,30750.948876255618,30626.650825339657,30450.139099376098,30291.888748632522,30123.893037306436,30013.94480633078,29915.48537200515,29791.433190278196,29699.67927928916,29641.564743705363,29514.584483454764,29304.008698941318,29454.25712516989,29644.02343559545,29859.471900400153,30143.24964800473,30456.285829101307,30768.874975308776,31018.208684707726,31241.90494321644,31401.272881182776,31431.134811775068,31402.435171894453,31300.62297590053,31116.332842866523,30940.4022622588,30782.6660016377,30631.59056086428,30506.756068081388,30401.747572630356,30248.07932950012,30023.287835513096,29705.155456680714,29431.72656675894,29253.516108216776,29002.975404617242,28767.209204102663,28590.831588605834,28438.8620780542,28285.842035513168,28204.10170604011,28253.63317175307,28263.467939313407,28280.432913354984,28351.913792123058,28465.684171400568,28519.618930771227,28517.070831903322,28491.142808335164,28421.159496445598,28358.820481159746,28333.60771341416,28296.257948429342,28209.354365987107,28111.47607701732,27969.00605785919,27733.530430022533,27486.856578213763,27274.49265414389,27044.62731416551,26785.950575584244,26531.87829636077,26253.33085695873,25859.291953956123,25419.431974820134,24963.389332698505,24510.05125165597,24102.91422640255,23635.762767286633,22972.40769534203,22130.640999155166,21042.35691337072,19562.224395540285,17721.379425690106,15643.605964613673,13424.122443690592,11260.339469950137,9319.045760517807,7635.51236814408,6235.779075119385,5079.121003046155,4205.011332632463,3509.2462312276643,2868.4887729273764,2142.392354296727,1354.873341902893,478.12616564347337,-428.7735138861554,-1509.927393189358,-2589.2707811916807,-3089.949856990559,-3123.0304387844135,-3125.7126481190503,-3128.774837109427,-3130.8982528326815,-3133.558110422863,-3136.754409879972,-3140.0177645704466,-3142.1858837826117,-3145.3151280063544,-3111.184014223101,-2614.0141623037057,-1487.508593500685,17.613174630781966,2001.8445851617557,4272.17832472066,6594.21164920469,8777.015957476611,10807.403720307795,12501.397729086606,14057.839102487458,15549.683934412473,17078.297385966467,18584.40263085397,20079.98020410302,21571.579166839027,22991.160808940032,24441.140823500256,25902.31906203259,27290.094171773693,28710.949863308655,30144.233124760765,31511.399926114074,32708.604062629234,33796.93285190259,34789.73028537396,35619.42703955496,36390.24929884068,36980.55886990534,37639.39888946997,38329.911330927775,38983.52104228986,39618.198826098305,40189.33060042031,40693.98828673223,41126.04750705332,41369.145079749236,41224.35047916776,40518.39298229134,39305.073238023906,37359.085662255966,34691.606127215164,32376.658305723467,30745.69621630862,29571.67083879362,28774.92055593974,28200.324261227164,27592.245053320534,27009.468020137316,26681.47852200014,26834.856192452455,27091.096590888097,27574.69893392312,28421.897104012623,29467.712875331985,30584.13780738566,31775.508138597983,32945.62196083331,33973.8692610108,34990.605412793804,35937.045328264874,36734.80143961924,37507.59065241703,38247.00871074304,38939.82338187974,39640.014128686686,40267.69581648062,40894.97517287436,41568.67910250177,42171.43859522803,42700.39262776287,43238.98026215795,43840.82333336155,44325.878539786165,44787.88909767736,45324.28626111583,45720.31446937496,45962.69678624831,46147.880989060526,46338.49666577538,46541.45050542957,46746.86303697384,46859.44877379522,46946.26294925964,47071.96916007628,47200.80461511667,47312.272764715286,47406.306553638766,47508.655191499616,47622.447922521584,47715.74410387804,47765.141459124265,47830.38620118931,47959.80280158554,48129.8101699126,48365.01757681579,48563.590474556746,48643.900292384664,48774.434480003656,48896.67617042973,49063.26372185513,49275.1806110359,49462.08589817118,49672.70638617354,49873.38034789328,50103.31274310502,50303.31615249111,50378.909752238964,50500.61500079811,50937.278680476986,51535.411362101004,52056.89991198778,52621.50497692883,53120.08298874891,53531.265679748736,53825.21347108048,54057.895130860226,54292.18611624076,54449.16241755038,54475.13514460745,54502.20310714282,54591.52067798623,54683.05107153071,54720.80316791573,54796.2850089413,54903.238106159944,55002.52455503042,55052.905387032675,55046.78100905193,55156.036335949466,55260.687203489215,55269.47143906015,55228.16541530674,55214.9331825892,55214.061464555445,55180.24327519456,55065.064736016364,54966.40413599064,54897.33724562374,54747.71466823992,54607.926858416424,54550.30406121064,54488.27797034717,54346.545558756065,54191.424452236235,54053.02245056897,53914.73220762399,53682.98932111137,53493.89356301947,53370.46723013726,53271.06902254451,53094.467889603126,52858.00878501043,52628.679886898986,52444.56856782062,52251.40479223786,52053.72596427512,51866.03836608391,51668.247779398895,51463.081117043635,51246.60447199398,51060.190923236725,50903.4157876272,50748.78641948538,50617.31345859927,50454.57040722018,50281.85847781402,50133.55465335306,49960.708613480165,49780.218277003565,49579.991350172924,49387.051092034715,49215.92613648488,49041.89545415586,48842.11556221433,48715.001191496995,48594.59234411625,48414.54904252876,48223.79925534716,48076.54596287561,47935.84173152944,47849.34048048741,47811.163700957746,47780.72062500961,47751.39513628425,47756.29016831997,47762.839229445366,47811.498977124575,47905.06337941449,48003.254592806654,48089.174698492854,48072.85792504048,48094.337951462025,48139.53317875066,48149.077373633074,48055.93765448781,47964.58607489897,47928.9126907483,47861.81275389347,47732.35145000833,47544.97677623949,47357.222122814914,47170.8309258021,46920.6254983694,46627.81764600488,46340.195398353986,46086.86072669754,45780.26184800409,45411.3686575137,44994.508623422225,44628.58821494439,44248.76502141536,43782.082948933,43276.91117249861,42815.48175996325,42354.61114103927,41975.749072521816,41651.60407443096,41461.72600528312,41307.476616797045,41166.63827498416,41096.99023926142,41163.84430692725,41234.45346766156,41311.92461394365,41408.215929057114,41561.63830299834,41694.60883076296,41859.29648390967,42120.320155658745,42358.12036491875,42598.46867304667,42837.43117301836,43065.55307692922,43233.906416166596,43349.5319902339,43407.847691517796,43478.68036969667,43558.4313939132,43583.465347703146,43600.855004889374,43500.7191897296,43320.20650150854,43184.59846789819,43027.532759610745,42835.352460784015,42638.50064736613,42424.59445292884,42189.744673936926,41899.4402169514,41605.2689081751,41291.13749160022,41021.553101724756,40734.95903431881,40397.17947211021,40143.196599864554,39914.18062617548,39579.15032853488,39248.63508327426,38972.859260184676,38675.91633509593,38322.37879304634,37928.6528144661,37556.27275184068,37257.65344591778,36925.30535761182,36615.040792827705,36334.57110340251,36067.53481239496,35833.78026888135,35563.07829178313,35317.67848940832,35131.689623795704,34928.6463771637,34757.20849719149,34635.63735909908,34546.09627081112,34472.40256934197,34274.07554079003,34038.26463678654,33836.9871779665,33680.68142899054,33547.755604714825,33365.87946008199,33130.62734968989,32923.538437311465,32752.10055733926,32576.460549409458,32365.080102095617,32217.8044578796,32033.357862634406,31811.91913031568,31646.069186457302,31513.14336218159,31430.240741996855,31380.374000117066,31265.597792339064,31185.64560242243,31047.42241471081,30902.247834473594,30863.981647966106,30759.643704848735,30709.97812866904,30635.323302188317,30483.756123036877,30399.467694695915,30397.947776072953,30340.14616491153,30357.28995290875,30337.016920687787,30255.924791803933,30226.50989610075,30229.393271135483,30259.16579474995,30249.12986148952,30202.973509189313,30180.577061245094,30179.548881000148,30138.10874678001,30098.43440037184,30057.262487085165,30020.73973664519,30093.561720080583,30113.857104046,30073.266336115164,30024.22660878022,30005.026460293113,30015.688242398293,29994.163512487834,30052.255696327175,30158.784110401168,30310.686565719436,30461.40437858157,30644.666331370634,30850.257676870548,30980.925974956273,31055.42433922581,31152.4532619063,31246.352940363045,31372.3050203687,31508.71771677944,31642.2693898999,31792.62957485075,31818.289377485442,31845.759671421016,31919.833352545902,32001.171350618763,32104.369354768918,32262.642057256948,32419.171323677463,32576.72877034292,32717.23183598898,32838.57945663684,32925.147762912246,33099.156093496815,33249.672740658854,33380.832777122596,33485.57305164016,33638.10135580318,33800.10679961524,33949.461156065605,34116.540445869025,34252.997845768674,34350.16087891589,34439.6796154594,34544.64340742152,34587.35759107561,34641.04648125726,34718.0929443947,34805.10828555921,34911.413182188655,35061.39338748377,35242.95660769422,35428.65490062891,35612.676812729456,35884.5187287949,36117.75918218603,36396.03840065461,36696.78112230076,37084.56153685589,37448.89497147739,37859.5859240992,38245.98053049809,38658.39256744296,39088.79775867436,39444.30225423602,39756.28790334319,40015.16580762456,40288.32647661286,40542.24229362515,40738.87058959849,40971.32873193368,41196.63431604318,41431.05941189044,41608.06287623202,41797.29274479065,41980.1076626906,42198.70772346351,42312.23223355201,42327.72199245954,42366.3011033894,42409.954060310614,42451.3718427863,42443.34756652684,42411.138702766744,42468.98501741708,42468.91796218371,42461.81010744692,42439.43601124716,42407.718885865084,42307.5830707053,42247.345119398255,42201.65815373161,42123.248234182385,42006.84034905915,41861.7775275442,41726.32595614505,41629.92288230931,41492.616116120356,41337.271492155975,41182.39625482515,41045.02243340283,40869.8965155955,40665.26629510716,40487.59227843193,40301.44695060813,40108.43963723655,39911.811341263216,39660.488326607745,39394.39080886731,39136.00464296396,38847.19775285694,38582.5083950172,38334.56049377447,38033.974234339505,37705.4482943354,37388.88053761489,37111.182464502155,36800.157940406556,36508.82530317608,36265.92889618026,36000.03254413993,35752.0399394083,35529.0365849777,35347.227495578234,35177.6001069069,34990.44895058262,34872.27527764741,34767.87027929667,34641.985254524385,34564.938791386936,34467.127557650514,34404.5203214312,34345.53406781364,34286.592517685,34177.851280909934,34052.41329102675,33931.46800177908,33773.73174115798,33648.360806508164,33506.89661585052,33326.428631118375,33111.114276780405,32959.52474588451,32891.374277040275,32769.06553138084,32667.879184231664,32593.55963391777,32608.6470614251,32638.911323417586,32596.35360197468,32598.387610720114,32552.365368886636,32501.179874083984,32414.27629164175,32346.036415819697,32243.10663260301,32174.978515503233,32103.654098946346,32047.350054663428,31988.766132446068,31897.481608090595,31785.52172011396,31640.369491621197,31473.75958845134,31320.80660114367,31215.97691964828,31115.662290532866,30960.13885261284,30786.04111505045,30588.09406615425,30419.07017458322,30268.151196020986,30099.753153294703,29932.49504953564,29708.35175613782,29557.499832808953,29529.023710372894,29472.518500389877,29373.500272452864,29313.351728123635,29250.92330585996,29184.96330797235,29119.04801357365,29067.929574004364,28983.015296818652,28927.314749636025,28906.52762729259,28822.194495462718,28745.840936403387,28691.794418310456,28636.496202528026,28609.09296382582,28568.16691972815,28456.54230791835,28366.174205085543,28324.17527725402,28236.914066900503,28121.579065511116,28110.17967583891,28050.433462909874,27919.47459214623,27881.18605389429,27838.427166751288,27780.3573346564,27770.321401395966,27818.847038608437,27802.574968644974,27795.02007901908,27776.3563723989,27786.526416126064,27748.707264507684,27737.57609576894,27721.34872929439,27694.079601058915,27667.458673412642,27623.09046066886,27588.333498040858,27558.248050004015,27558.538622681932,27507.800162768384,27541.46188991808,27582.253823549014,27600.291681324445,27638.311998642923,27693.319641747436,27762.49829083661,27826.536038701062,27882.549510306064,27932.37154869694,27990.486084280743,27977.76794168567,27963.038142089623,27977.81264517458,28072.74050387627,28190.444790177917,28252.44852929694,28312.619425370627,28408.150781172608,28478.11174131772,28542.551820582372,28574.17953898663,28680.283269915974,28813.61142559188,28862.159414548805,28888.892100917354,28901.47613304569,28928.164115925327,29002.394259261404,29069.963582749795,29171.77577874372,29256.846518140617,29329.400280642545,29355.395359444068,29344.91239129453,29420.662453253564,29585.394809889178,29723.148610967233,29874.425217440752,29986.83214030649,30022.259655268153,30098.412048627386,30203.800523734157,30284.736190406824,30354.9653714854,30450.273209842828,30577.052304393328,30633.423403909615,30712.325061836847,30846.234362868592,30972.208794618702,31087.432037285813,31186.69613441183,31268.391760395978,31312.20117952838,31371.813281990682,31427.603236151128,31479.615745498628,31519.290091906798,31483.460245544942,31535.919789781547,31619.135334388655,31692.22553875751,31723.741498439493,31725.93196939611,31626.667872270093,31568.30746749729,31627.91956995959,31654.83107028378,31654.45109062804,31603.62322373667,31522.91107450856,31437.773279878293,31413.208712721913,31435.471050199398,31351.42849104744,31272.23626044229,31256.411225367934,31206.5668352326,31134.84008727552,31065.214403297236,31060.028798583604,30991.587757061454,30891.764866324054,30782.129559770772,30709.039355401917,30710.6486810027,30724.350300353803,30735.973207470564,30707.586492012324,30682.41842775565,30678.193948053595,30651.573020407322,30655.663389642647,30643.258171469948,30611.764563532422,30597.235929636474,30599.33699361527,30540.462498719993,30572.24667933544,30588.49639755445,30570.369132801192,30590.888034211166,30580.762693972913,30588.87637721019,30569.5644700008,30566.412874032605,30572.537252013357,30618.514790357924,30653.517622174935,30667.420407226135,30678.01513409795,30715.968396183063,30826.76599344802,30883.271203431035,30926.387718485323,31024.578931877488,31129.43096511733,31187.389038489946,31260.00985622524,31385.73841878634,31531.807068801772,31596.180092833056,31649.600762081238,31753.42461507614,31864.49043327456,31885.322259106906,31945.537858669504,32029.24514165463,32098.73671516618,32135.17005862833,32188.478969154236,32262.329132834573,32378.379390046524,32402.295756613705,32436.829201797154,32576.438197665,32737.214295532027,32765.891583668184,32746.512621225433,32709.386373685167,32700.4680276475,32763.47759526701,32803.35310737528,32892.491864263044,32975.550946658965,33057.31362787648,33175.1296729004,33239.63680739842,33293.30334583561,33344.77941331618,33392.0310010947,33483.2037667279,33566.151090401545,33695.21006288649,33748.09429026774,33744.87563906618,33733.40919416061,33807.16995086312,33886.78686461292,33998.187958978175,34108.493817865114,34140.63562639184,34152.34794048643,34225.39344136637,34324.389317558926,34433.59994096756,34457.73982497929,34513.52977913973,34546.2527330223,34547.884410367544,34499.090552221605,34464.19947912687,34503.04681099019,34589.86098645461,34646.52265864881,34641.87349580211,34632.552818364245,34690.86851964814,34801.35319249072,34845.36377732322,34959.782357189935,35055.984265325584,35065.17083229671,35074.916192879224,35146.26296118057,35254.959494466726,35343.450050765285,35404.44796138382,35457.198078298345,35496.60420377305,35540.03364324971,35583.19486179291,35642.22581889937,35674.9711245264,35698.507511437834,35746.474355038925,35782.773588034346,35800.67733534305,35861.38467328366,35910.60321457424,35865.69855996354,35887.29034510736,35903.60711855973,35928.90929328314,35930.22804620601,35900.276708635894,35876.06976939079,35902.13190342568,35949.22702899302,35976.29499152839,36033.64956780071,36057.23065820106,36109.28787103747,36166.709502543155,36200.058305270475,36261.70441647821,36253.54602975202,36314.90156828184,36396.26191809916,36425.18507542433,36368.948086374774,36354.419452478825,36345.389347718876,36363.829536894504,36421.27352014465,36481.66793366289,36491.860329134506,36506.29955605263,36530.77471623119,36528.696003996854,36496.01775360319,36457.3045322066,36451.89541004842,36405.15791239237,36376.48062425621,36336.940388314775,36323.171713730306,36253.255457074105,36210.51892167555,36182.422778895234,36132.91366492673,36034.38717536774,35935.525409641916,35854.545039480334,35773.00587570738,35714.5784157012,35685.54349965376,35594.12486483155,35496.35833458404,35384.44315009632,35213.18408407975,35062.622733428805,34949.2993890404,34887.11683596574,34762.39410190512,34609.59757680864,34503.73971506831,34421.26177802822,34326.37862281545,34236.2787409161,34176.33136228697,34121.927216282755,34063.23153534312,34034.2860262735,33953.238600878554,33864.74804457999,33812.847293954765,33739.041833763345,33677.55218476679,33715.23722591844,33689.68918200603,33626.836076597705,33629.56298942125,33627.528980675816,33629.965320821444,33554.34936932914,33470.97736251084,33395.31670752963,33357.16227974442,33351.28377095268,33367.30997172713,33416.126181617525,33437.96383595036,33446.70336803238,33493.28440347724,33508.59534842913,33567.268677624306,33650.4395187425,33692.77372274086,33705.71538278048,33689.57742328375,33690.47149306196,33710.99039447193,33742.81927857629,33758.35374097273,33823.486724315495,33863.58575386831,33848.20775368306,33867.13968123671,33934.12785936926,33927.69055696613,33977.19967093464,34072.10517789188,34197.7219817307,34252.2825899461,34242.33606366349,34237.30692116105,34267.52647966462,34278.14355828089,34288.26889851915,34304.13863708242,34374.83720479455,34426.00034785275,34435.96922587982,34425.62036819701,34485.29952589268,34513.21685471736,34489.524005594736,34484.69602879239,34469.98858094079,34523.02927053324,34553.18177380345,34526.762011857274,34578.930983415965,34627.18839969497,34638.699548089455,34652.22235348491,34648.31079820523,34657.631475643095,34658.34673146567,34728.71002301097,34782.711837614996,34824.151971835134,34778.55441314631,34763.51168912789,34824.934282891074,34862.79813799836,34861.12175716421,34868.40842585664,34884.16640569764,34909.602690887776,34931.887380109714,34968.2536683385,35079.475948748106,35166.088958512424,35204.198682808725,35228.673842987286,35333.727041927224,35426.03974652765,35437.059156544114,35383.77259776266,35374.38486509143,35406.19139745133,35457.198078298345,35485.294221078664,35540.16775371644,35588.91690837347,35660.95658075292,35709.415162732024,35691.310249723225,35715.092505823675,35739.74647995788,35744.59680850468,35788.361524148175,35836.84245787173,35898.55562431284,35910.37969712969,35899.82967374679,35924.14837171416,35944.600217890766,36015.09761990281,36065.053768760416,36087.96430682711,36120.776667687496,36134.36652831633,36099.34134475486,36121.335461298884,36240.62672145686,36306.00557398863,36340.04728079406,36408.91300546086,36407.14721764889,36413.472761329744,36450.24138095872,36468.4580526898,36438.81963954206,36424.738040535216,36421.027650955635,36384.48254877121,36349.18914427628,36405.15791239237,36454.108232749495,36402.43099956882,36456.49986940621,36503.84086416255,36514.83792243456,36536.63087327849,36524.65033825044,36511.39575378844,36524.38211731698,36543.24698963726,36611.755086392775,36621.142819064,36550.86893449652,36469.486232934745,36384.16962434883,36321.540036385064,36267.64998050332,36208.90959607477,36133.89714168276,36033.537809078436,35962.705130899565,35928.14933397166,35847.079556832265,35719.45109599246,35595.28715554323,35455.92402886439,35268.236430673176,35145.07831872444,35081.26408830453,35015.59466309484,34878.51141435044,34691.20379581497,34545.6045324331,34448.79912719716,34315.716840710265,34223.38178436539,34133.55012339952,34024.25009301306,33882.74119886651,33760.47715669598,33709.06814444878,33684.61533601467,33603.0314687528,33511.36696474159,33418.96485316334,33341.15843071442,33277.03127587215,33189.90417598536,33124.5700269425,33102.12887550937,33092.294107949034,33121.91016935232,33054.56436330848,32971.348818701365,32964.86681280933,32950.4275858912,32953.109795225835,32925.25952163452,32877.98558211155,32869.715436663086,32897.65511723222,32857.26551500148,32805.36476437626,32794.32300261533,32828.54352337641,32951.12048996931,33003.71414467265,33012.58778722141,33030.73740371912,33041.622703268855,33061.00166571161,33094.462227161195,33114.13176228187,33136.41645150381,33143.189030073765,33165.04903615106,33205.59510059298,33310.93887221085,33361.65498037994,33399.11650408703,33419.255425841264,33495.51957792277,33601.3327361742,33669.93023990753,33595.47657912691,33577.55048007375,33615.146114247575,33665.70576020548,33735.44320290604,33848.788899038904,33951.31635085539,33999.05967701193,34029.0333663265,34012.53777891848,34021.031441811494,34074.42975931523,34081.090579162905,34060.16934635274,34098.1002566934,34155.74540564363,34207.46734231321,34244.34772066447,34330.29017809513,34377.94409727384,34361.80613777711,34343.16478290138,34368.93634425835,34355.36883537398,34377.161786217905,34419.20541753834,34445.87104867352,34476.26942113274,34522.80575308869,34561.36251227409,34569.38678853354,34644.55570513674,34690.75676092586,34720.66339500706,34772.31827644328,34837.56301850832,34846.391957568165,34839.08293713128,34801.0626198128,34870.017751457424,34932.49087721001,35014.678241572175,35080.57118422642,35125.833466748416,35230.30552033252,35247.09168041845,35255.31712237801,35278.40647440034,35311.12942828291,35372.61907727946,35354.87179218195,35379.86104248298,35511.84809349157,35634.51446706229,35645.176249167474,35674.00999951482,35723.51911348332,35706.93411909749,35690.32677296719,35679.173252484,35740.819363691735,35863.932772151566,35909.03859246238,35926.47295313751,35923.4778193805,35972.428139737625,36013.55534953539,36026.117029919275,36076.63197238827,36138.05456615145,36280.99397194314,36365.14828981737,36352.54190594458,36282.1115591659,36319.93071078428,36360.834403137495,36401.44752281279,36429.61072082647,36462.04310203113,36511.708678210816,36554.10993744254,36558.42382412241,36550.153678673945,36552.43355660839,36599.34986822008,36611.8444933706,36626.1943133109,36655.43039505844,36694.05420947722,36733.70620414093,36758.60604746414,36728.87822733858,36723.33499471367,36795.24055662639,36864.93329583803,36920.477380809476,36924.70186051153,36920.253863364924,36949.892276512655,36949.64640732365,36879.998371600916,36865.045054560316,36896.53866249784,36935.83302925027,36920.3656220872,36896.270441564375,36805.43295209801,36643.405156541485,36476.616439415986,36317.18144621628,36243.040709858025,36160.22749665112,35991.82945392483,35831.88037060265,35719.495799481374,35608.76525744978,35541.441803150396,35435.60629315452,35315.80094287407,35208.87019739988,35110.36605958534,34996.32745937436,34845.02850115639,34687.87338589113,34567.5092419993,34425.374499008,34301.83640740352,34219.313766874526,34127.49280065212,34012.00133705155,33838.0377099559,33715.43839161854,33655.51336473386,33613.760306091346,33495.29606047822,33402.08928609959,33420.887103186506,33425.15628637747,33358.27986696719,33376.60829742054,33373.52375668571,33334.02822423318,33324.618139817496,33292.453979546306,33231.143144505404,33181.45521658126,33161.450405293755,33129.487410722664,33163.64087625037,33184.87503348292,33128.63804443336,33052.84327898542,33052.82092724096,33099.62548013037,33156.130690113394,33157.114166869425,33174.861451966935,33223.56590313505,33225.17522873583,33248.51044994718,33382.68797191238,33468.071635731656,33447.86565874406,33432.28649285871,33422.138800876,33476.610002113586,33639.01777732585,33706.22947290295,33746.52966815587,33783.991191862966,33850.197058939586,33908.82568464585,33944.45436530762,33991.34832517485,34037.70584317516,34091.573547312444,34170.00581860612,34242.11254621894,34318.17553260035,34331.430117062344,34332.12302114046,34338.22504737676,34415.00328958074,34467.418130328435,34501.77276155624,34556.914515127486,34611.296309387246,34608.5693965637,34636.15144922155,34699.317479052246,34738.27656963785,34773.14529098813,34779.47083466897,34839.529972020384,34975.49563354202,35041.522686663,35043.80256459744,35036.60530288283,35046.28360823198,35102.967632170636,35176.3037057285,35196.88966237184,35185.22205176616,35212.73704919065,35239.33562509246,35253.41722409931,35230.6631482438,35251.517325820605,35311.55411142756,35351.9437136583,35444.681101403374,35549.80135557668,35618.57767326566,35652.06058645971,35654.78749928326,35663.88465927657,35757.02437842183,35883.40114157214,35979.066607840854,35976.004418850476,35978.06077934036,36065.34434143834,36153.25375238106,36201.19824423769,36226.38866023882,36267.53822178105,36314.5215886261,36360.34266475948,36438.05968023058,36461.97604679776,36466.5581544111,36500.15282632742,36539.55895180213,36574.561783619145,36580.66380985544,36616.94069110641,36706.43707590545,36779.0802453852,36800.26969912883,36860.9993888139,36879.1043018227,36901.18782534455,36855.18793525552,36867.257877261385,36938.20231416253,36984.6268873962,37008.09621907428,37068.69179829262,37128.68388041066,37188.31833461742,37160.199840092646,37146.006482363526,37176.74013098957,37197.46019809964,37262.123794808846,37263.442547731705,37271.064492590966,37303.51922554007,37322.786429260545,37327.03326070705,37358.660979111315,37431.79588696908,37422.65402348686,37417.55782575105,37467.75984379767,37537.09495509803,37568.14152814645,37547.04148138064,37494.89486156641,37476.92405902434,37472.833689789026,37473.52659386714,37476.07469273504,37502.09212328102,37527.483704982245,37550.841277938045,37506.69658263881,37483.22725096074,37419.6812414743,37296.232556847644,37228.909102548256,37171.28630534247,37133.84713337984,37050.497478305995,36943.49967759844,36852.68453987653,36774.74400696087,36644.63450248653,36472.973105069774,36338.66147263783,36216.93387233423,36070.641704874244,35874.75101646793,35732.012776376345,35582.59136469261,35452.95124685184,35324.339309256,35229.009119154114,35140.496211111094,34999.32259313138,34836.0207481409,34702.40201978708,34571.733721701356,34469.40743558496,34377.787635062654,34292.47102647675,34246.359377665445,34205.36627833441,34167.83769939395,34083.973954197645,33970.47179585359,33831.42159359713,33781.37603776169,33734.63854010565,33673.126539364646,33667.873879417646,33646.50561171837,33554.327017584685,33518.34070901164,33579.89741324156,33625.45026844148,33609.915806045035,33580.65737255304,33577.86340449612,33597.44353263897,33574.75651201684,33528.2648835498,33529.382470772565,33479.29221144822,33543.46406977941,33578.26573589632,33615.19081773649,33710.05162120481,33741.03113901987,33782.96301161802,33861.46233814506,33934.59724600283,33929.52340001147,33932.33971981284,33968.90717374172,34037.616436197335,34092.80289325749,34098.726105538146,34131.33730069844,34204.002821922644,34341.64486427842,34370.456262881315,34364.48834711174,34402.754533619234,34433.309368289636,34480.82917700162,34573.477157768866,34682.598374199675,34781.84011958124,34852.069300659816,34851.42110007061,34845.833163956784,34841.60868425473,34888.74851331097,34924.690118395105,34970.51119452849,35050.19516351166,35101.58182401441,35131.17553367323,35207.551444477016,35236.36284307991,35236.698119246736,35254.49010783316,35320.83008537651,35402.61511833848,35402.57041484957,35402.5033596162,35454.62762768598,35500.336945097086,35551.567143388645,35579.41741697996,35541.93354152841,35603.736114947336,35659.034330729766,35686.19170024296,35730.85048566467,35790.64140208261,35825.91245483309,35862.882240162166,35885.72572299549,35937.11238349824,35972.87517462673,35982.6428869537,36007.00628840998,36104.90692912423,36168.095310699384,36161.25567689606,36179.89703177178,36190.201185965685,36237.519828977565,36292.549823826535,36313.11342872542,36320.33304218448,36389.578746507024,36434.70691856229,36482.71846565229,36583.41307442344,36687.393389629535,36787.30568734476,36852.75159510989,36865.2015167715,36861.804051614294,36864.93329583803,36932.569674559796,36944.50550609893,36976.89318381467,37028.23514082851,37066.52367908045,37086.46143513459,37102.800560331416,37082.05814147689,37091.69174333713,37089.367161913775,37074.43619661763,37100.833606819346,37199.673020800714,37295.114969624876,37365.992351292654,37400.34698252046,37467.446919375296,37556.33980707405,37634.392098711985,37715.30541364019,37694.160663385475,37594.65069707044,37568.163879890904,37591.163824935415,37621.4280869279,37644.383328483505,37705.671811779954,37727.73298355735,37739.869980796575,37779.7678446493,37812.31198457623,37839.75992676734,37842.3303773797,37872.99697077239,37917.54399747181,37923.02017486336,37896.71217163947,37848.92414199402,37849.52763909431,37880.30599120927,37885.625706389634,37854.668540319035,37862.44694738948,37886.184500001014,37861.75404331137,37773.30819050172,37756.25380948232,37700.21798613286,37599.992763995266,37539.88892315494,37419.8824071744,37301.99930691711,37169.74403497506,37027.40812628366,36876.06446457678,36728.18532326047,36605.56365317865,36428.89546500391,36277.171823641285,36091.58528942887,35907.65278430615,35806.533492390336,35697.99342131537,35541.75472757277,35385.71719953027,35264.41428237132,35133.61187381886,34998.18265416416,34938.03410983492,34853.879791960695,34772.362979932186,34716.41656356055,34634.11744047611,34486.26065090426,34337.33097759855,34205.41098182333,34139.808611847,34012.00133705155,33925.4553825206,33900.84611187531,33833.27678838692,33789.26620355442,33751.201182747034,33708.91168223759,33650.41716699805,33642.37053899414,33621.717527117435,33625.18204750801,33618.56593114924,33648.38315825262,33639.8894953596,33624.22092249643,33571.15788115953,33480.38744692653,33446.09987093209,33485.885976062535,33567.4251398355,33685.66586800407,33718.18765618654,33723.32855741126,33731.44224064854,33766.020389320896,33767.36149398822,33792.28368905588,33879.813120342864,34003.53002590299,34085.024486187045,34111.22073068866,34154.493707954134,34169.067045339,34207.26617661311,34250.09211898949,34274.7907966126,34284.02206707264,34261.08917726149,34313.03463137563,34409.79533312265,34428.45903974283,34499.157607454974,34656.022150042314,34725.96075844297,34711.16390361356,34759.60013384821,34859.534783307885,34981.35179058931,35040.963893051616,35046.976512310095,35036.202971482635,35056.051320558945,35092.529367510004,35054.19612576916,35047.13297452128,35071.854003888846,35106.78978047249,35181.891641842325,35219.9119591608,35266.09066320547,35310.12359978242,35348.278027567634,35364.01365566417,35370.33919934502,35377.08942617052,35383.05734194009,35376.70944651478,35391.93098448885,35426.30796746111,35455.722863164294,35449.35261599453,35481.807348943636,35547.96851253134,35622.28806284524,35641.59997005462,35728.39179377458,35872.53819376686,35930.20569446155,35958.88298259771,35991.82945392483,36016.90811120369,36019.2997478604,36017.17633213715,36070.97698104107,36186.20022370818,36282.87151847738,36289.71115228071,36306.877292022386,36372.85964165445,36439.04315698661,36430.884770260425,36420.133581177426,36447.76033732419,36501.158654827916,36543.04582393716,36593.359600706055,36627.53541797822,36709.78983757375,36781.22601285291,36775.21339359444,36810.707963789464,36883.9546303695,36929.52983731387,36876.33268551024,36883.887575136134,36926.93703495706,36936.50358158393,36959.21295395052,37011.40427725366,37121.64308090724,37210.69243081718,37234.07235551743,37236.84397182989,37239.61558814235,37249.249190002585,37223.32116643443,37149.627464965284,37152.19791557764,37196.09674168786,37274.216088559166,37308.16838838677,37317.824341991465,37339.90786551331,37380.25276425514,37408.46066575774,37416.90962516185,37400.70461043175,37368.67456062729,37395.04961908455,37405.95727037874,37430.07480264602,37456.40515761437,37493.017315032164,37461.72487279474,37424.21864559873,37408.10303784646,37396.7259999187,37268.56109721197,37128.169790288186,37042.584960768814,36989.32075373182,36961.89516328516,36918.4657238085,36815.178312680524,36680.889031993036,36533.00989067672,36439.95957850928,36339.22026624921,36178.95825850466,36009.12970413324,35864.849193674236,35697.76990387081,35568.30859998567,35443.33999673605,35337.41507976235,35217.25210157062,35072.546907966964,34937.58707494582,34814.42896299707,34684.5876794562,34573.52186125778,34466.94874369488,34353.31247488409,34194.79390320706,34076.6425820163,33992.465912397616,33919.97920512906,33847.045462971386,33753.436357192564,33652.65234144358,33605.04312575378,33554.751700729335,33521.42524974648,33507.410705972994,33498.98409831335,33446.94923722139,33387.56065220364,33389.14762605997,33337.828020790585,33270.19164206882,33264.60370595499,33285.56964225407,33288.02833414416,33314.58220655706,33320.50541883772,33377.21179452083,33389.617012693525,33379.22345152181,33424.55278927717,33496.57010991217,33555.0199216628,33577.7739975183,33611.525131645816,33613.02269852432,33665.5940014832,33660.65426595858,33667.315085806265,33700.57448155576,33764.65693290913,33795.234119323984,33834.34967212077,33920.89562665172,34061.42104404224,34148.68225439575,34165.557821459515,34198.83956895347,34271.54979366658,34263.905497062864,34276.981267569216,34316.72266921076,34412.85752211303,34474.548336809676,34495.26840391975,34523.45395367789,34556.10985232709,34620.929911247484,34647.26026621584,34661.94536232297,34715.947176926995,34738.61184580468,34772.206517721,34840.2228760985,34860.875887975206,34920.48799043751,34953.65797920919,34984.97277319107,35063.65091367375,35086.404989529256,35058.644122915764,35058.018274071015,35115.79753348798,35191.189967535734,35216.60390098142,35196.42027573827,35238.62036926989,35289.31412569453,35334.218780305244,35342.98066413173,35428.72195586228,35528.70130881087,35569.76146337527,35586.68173392794,35604.51842600327,35644.17042066699,35672.49008089186,35689.231537488886,35764.8921924701,35782.773588034346,35787.8474340257,35787.17688169204,35810.936786048034,35918.09104896677,36012.616576268265,36045.8089167844,36076.877841577276,36110.360754771325,36153.6337320368,36181.28283992801,36209.93777631972,36278.982314942165,36366.31058052905,36397.11128438846,36349.166792531825,36365.37180726192,36418.725421276744,36482.38318948546,36511.46280902181,36499.92930888287,36507.90888165341,36606.3906677235,36698.725724068376,36743.540971701266,36779.14730061857,36793.25125136987,36873.404606986594,36870.744749396414,36860.977037069446,36960.08467198428,37028.10103036178,37039.299254333884,37043.23316135802,37104.52164465447,37124.2135315196,37040.215675856554,37076.2019844296,37156.93648540217,37162.92675291619,37174.63906701077,37229.4902479041,37250.9926260701,37273.009094358575,37254.52420169404,37214.96161400814,37187.64778228376,37177.79066297897,37186.485491572086,37185.41260783823,37121.08428729585,37068.33417038133,37025.66469021615,36996.02627706841,36925.439468078555,36841.53101939333,36751.11821307161,36632.788077925215,36528.070155152105,36370.24448755318,36218.52084619056,36036.06355620189,35855.10383309172,35715.45013373496,35617.88476918754,35508.94236671238,35353.307170070075,35164.05494976699,35021.29435793094,34920.778563115426,34773.23469796595,34610.96103322042,34476.515290321746,34334.715823497274,34170.229336050674,33994.49992114305,33858.42250089914,33728.1118307247,33662.88944040411,33588.726352301404,33517.02195608878,33484.85779581759,33396.210777307846,33284.407351542395,33199.269556912135,33123.18421878627,33083.912203778294,33089.433084658755,33065.06968320247,32997.56741494744,32931.24978914855,32924.34310011186,32976.400312948266,32971.54998440146,32895.68816372015,32814.9983662365,32767.00917089095,32715.533103410376,32672.349533122724,32669.197937154528,32759.119005098226,32802.88372074172,32797.20637765007,32810.90799700117,32876.06333208839,32957.155460972244,33008.29625228599,33012.92306338824,33013.168932577246,33007.15631331877,33062.87921224585,33166.65836175184,33268.470557745764,33262.99438035421,33260.69215067532,33301.72995349526,33344.60059936054,33457.00752222628,33534.94805514193,33585.083017955185,33680.81553945727,33759.62779040668,33811.64029975418,33826.146581905676,33864.47982364653,33898.789751385426,33975.38917963376,34027.35698549235,33992.465912397616,33973.60104007734,34056.74952945108,34098.435532860225,34131.2031902317,34189.63065023788,34234.80352578205,34281.56337518256,34346.405785847404,34397.25600448323,34448.50855451924,34448.84383068608,34464.691217504886,34483.24316540279,34495.938956253405,34520.10119200959,34523.699822866896,34547.21385803388,34626.2719781723,34673.61297292864,34749.005406976394,34801.84493086874,34817.93818687656,34892.50360637946,34950.50638324099,35022.41194515371,35115.842236976896,35141.16676344476,35185.19970002171,35243.40364258333,35330.70955642576,35380.97862970574,35405.252624184206,35413.74628707723,35502.013325931235,35591.93439387493,35660.88952551955,35673.96529602591,35664.15288021003,35693.74658986885,35720.56868321523,35717.90882562505,35752.93400918651,35832.86384735869,35954.189116262096,36027.18991365313,36080.94585906814,36118.49678975306,36188.25658419807,36236.469296988165,36287.90066097983,36389.33287731801,36470.29089573513,36483.50077670822,36511.82043693309,36550.19838216286,36562.13421370199,36567.364521904536,36570.56082136164,36609.7434293918,36662.94058119543,36758.91897188652,36825.10248721868,36846.38134794013,36875.97505759896,36917.34813658573,36942.80677352033,36963.41508190812,37032.884303675215,37086.03675198993,37129.01915657749,37181.366942091816,37229.69141360419,37246.589332412404,37217.509712876046,37183.62446828181,37197.236680655085,37212.25705292905,37175.86841295581,37146.72173818609,37214.715744819136,37290.04112363352,37330.67659505327,37354.48120289817,37333.53761834355,37323.367574616386,37340.60076959142,37293.930327168746,37230.585483382405,37256.98289358412,37248.489230691106,37112.59062440284,36984.51512867393,36898.32680205427,36806.75170502087,36630.35173777959,36533.38987033247,36464.390035198936,36322.67997535229,36112.55122572795,35919.2756914229,35744.50740152686,35615.58253950865,35490.2786600922,35323.78051564461,35176.862499339884,34953.277999553444,34744.758575529886,34613.77735302178,34474.45892983185,34332.30183509611,34260.73154935021,34124.83294306194,33992.376505419794,33850.062948472856,33751.49175542495,33615.97312879242,33594.69426807097,33528.82367716118,33400.30114654316,33272.35976128099,33168.781777475095,33123.22892227518,33075.70911356319,32957.84836505036,32847.52015441897,32788.01981067894,32793.5406915594,32755.118042840728,32704.670155605098,32668.102701676216,32600.823950865743,32570.939668528998,32553.39354913158,32559.115595712137,32573.957154030464,32580.528566900324,32589.133988515616,32600.77924737683,32620.538189475323,32693.628393844177,32762.15884234415,32752.949923628563,32722.596254658256,32747.607856703744,32821.43566863962,32828.320005931855,32824.609616352274,32882.992372869536,32942.4256613762,33032.1455636198,33123.273625764086,33295.62792725896,33426.09505964459,33476.34178118012,33504.43792396044,33560.67491300999,33624.578550407714,33634.301559245774,33667.33743755072,33768.41202597762,33786.360476775226,33772.48004346848,33840.92108499063,33952.255124122516,34014.63884289728,34040.768032165535,34111.310137666485,34156.68417891076,34205.120409145406,34291.77812239863,34352.7089777838,34452.934199921394,34507.58421511462,34563.620038464076,34645.56153363723,34661.65478964505,34652.468222673924,34704.16780759905,34739.014177204874,34765.9033257846,34782.82359633727,34846.682530246086,34917.31404272486,35016.555788106416,35126.23579814861,35138.70807155467,35128.985062716616,35149.36985365985,35187.479577956154,35291.21402397323,35351.25080958019,35370.09333015601,35432.521752419685,35485.093055378566,35556.21630623535,35614.5096557748,35687.64456363256,35732.8844944101,35776.068064697756,35817.41879194007,35868.269010575896,35913.46423786452,35945.82956383581,35997.50679701648,36091.339420239856,36199.07482851444,36269.72869273766,36205.53448266202,36202.06996227145,36262.93376242325,36319.438972406264,36392.75269421967,36459.02561652966,36559.80963227864,36645.28270307573,36665.86865971907,36665.04164517423,36704.872453793585,36802.124893918626,36881.22771754595,36894.459950263496,36874.65630467609,36842.67095836055,36862.988694070424,36928.45695358002,36992.42764621111,37079.219469931064,37157.29411331345,37183.26684037052,37240.710823620655,37292.2539463346,37364.7183018587,37416.060258872545,37464.67530306284,37492.36911444296,37496.034800533635,37507.009507061186,37528.869513138474,37601.13270296249,37679.92260216744,37709.94099497092,37732.29273942623,37806.03114438429,37831.62389178561,37793.76003667832,37838.508229077845,37885.11161626716,37879.23310747542,37906.479883966436,37854.55678159676,37890.878366336634,37938.487582026435,37939.62752099366,37975.92675398907,38006.88392005968,38013.05300152934,37986.90146051663,37918.68393643903,37870.314761437745,37802.47721701589,37772.458824212415,37683.61064000257,37608.5758338661,37518.408896733396,37397.240090041174,37276.56302172697,37127.14161004324,36996.02627706841,36811.78084752332,36581.133196489005,36393.691467486795,36244.717090692175,36097.083818564875,35905.104685438244,35741.02052939183,35579.9985623358,35412.874569043466,35238.03922391406,35019.05918348541,34841.18400111008,34701.329136053224,34606.22246339589,34495.178996941926,34354.4077103624,34185.406170535825,34041.326825776916,33948.07534790938,33837.65773030016,33696.729981509445,33580.14328243057,33488.76935109727,33433.35937659256,33393.59562320657,33361.0738350241,33225.77872583613,33113.57296867049,33073.31747690648,33018.98038613563,32980.55773741695,32952.126318469804,32942.31390265392,32869.581326196356,32829.83992455482,32846.089642773826,32931.54036182647,32938.71527179662,32957.33427492789,32969.963010545136,33009.525598231034,32992.71708640064,32972.60051639086,32998.21561553665,33001.411914993754,33024.94830190519,33072.557517595,33139.903323638835,33204.76808604814,33252.28789476012,33324.23816016175,33425.826838711124,33476.23002245784,33482.1532347385,33522.63224394706,33639.21894302594,33710.498656093914,33758.80077586183,33822.97263419302,33867.43025391463,33897.13572229573,33906.43404798914,33979.54660410245,34067.254849345074,34157.46648996669,34228.03094721209,34279.439959459305,34366.45530062381,34428.3249292761,34493.12263645204,34612.59271056565,34626.58490259467,34655.23983898638,34751.598209333206,34817.111172331715,34837.49596327495,34916.75524911347,35029.475096401584,35118.59150154489,35192.91105185879,35238.03922391406,35275.433692387785,35328.630844191415,35377.08942617052,35449.26320901671,35512.85392199206,35499.84520671907,35494.41373281643,35549.063748009656,35641.130583421065,35728.12357284112,35767.8426227382,35794.95528876249,35875.84625194624,35961.07345355433,36015.23173036954,36095.407437730726,36145.385938332794,36123.81650493342,36153.16434540324,36192.1904912222,36205.26626172856,36293.35448662692,36346.75280413065,36368.4339962523,36441.68066283234,36509.29468980965,36610.212816025356,36711.68973585245,36813.81485626875,36874.79041514283,36930.200389647536,37019.94264363559,37107.337964455844,37162.25620058253,37268.73991116761,37346.32281617198,37380.29746774405,37394.4237702398,37437.83085797201,37491.92207955386,37590.94030749086,37661.52711648073,37701.73790475582,37733.723251071366,37763.227553752375,37748.52010590078,37730.41519289198,37829.32166210671,37917.36518351617,38013.90236781864,38057.55532473986,38063.81381318734,38117.3462411578,38189.60943098181,38211.335326592365,38205.45681780062,38236.5257425935,38287.66653390724,38328.90550242728,38342.09303165592,38354.945284717716,38338.58380777643,38357.47103184117,38384.47193914318,38379.66631408528,38417.06078255901,38550.478345212745,38596.88056670196,38611.67742153137,38610.15750290841,38626.116648449504,38614.560796566104,38616.527750078174,38642.612235857516,38610.872758730984,38584.67651422936,38583.93890666233,38560.51427847317,38509.12761797042,38425.48739021867,38313.259281308565,38227.763858767015,38129.10325874129,37974.78681502186,37843.7832407693,37669.55139274018,37504.01437330418,37337.06919396749,37189.0782939289,37053.224391129545,36887.68737169354,36681.13490118205,36448.34148268002,36249.03097737205,36072.608658386314,35857.29430404834,35657.49206036235,35551.41068117746,35468.19513657035,35321.768858643634,35148.05110073699,35029.78802082396,34957.703644955596,34865.72621652201,34747.37372963116,34586.10589338611,34513.93211053993,34467.57459253962,34421.30648151714,34336.59337003152,34230.37788037991,34209.38959233637,34160.90865861281,34046.02069211253,34014.0800492859,33962.24635389404,33858.46720438805,33836.42838435512,33796.35170654675,33748.25075247893,33663.180013082034,33655.02162635585,33712.264443905886,33730.861095292705,33773.86585162471,33803.23604383899,33854.93562876411,33935.066632636386,33996.645688610755,34013.38714520778,34061.242230086595,34144.23425724915,34213.5246650606,34242.805450297055,34289.76646539765,34303.624546959945,34341.3542916005,34441.065423615626,34541.55886668669,34606.89301572955,34674.77526364032,34727.10069741019,34748.670130809565,34794.04417205384,34883.652315575164,35004.35173563382,35060.05228281645,35124.67117603674,35200.845921140426,35196.59908969392,35230.2161133547,35317.164399285844,35393.4061996229,35454.58292419707,35519.87236975102,35586.50291997229,35586.70408567239,35603.82552192516,35608.18411209394,35659.168441196496,35721.75332567136,35808.45574241349,35885.79277822885,35889.7713887419,35935.659520108646,35982.12879683123,36010.873140200754,36014.091791402316,36068.697103106635,36151.39855759127,36200.72885760413,36260.05038738852,36319.103696239436,36319.39426891736,36383.432016781815,36468.10042477852,36458.06449151808,36485.93711685385,36517.63189049147,36513.452114278334,36575.14292897498,36640.901761162495,36682.47600584936,36759.678931197996,36814.8877400026,36883.909926880595,36922.37727908818,36943.99141597646,36946.85243926674,36995.44513171257,37002.21771028253,37000.49662595947,37051.52565855094,37118.7597058725,37138.228075293075,37205.75269529256,37263.643713431804,37382.711456145225,37524.46621948078,37575.76347300571,37606.78769430968,37603.25611868574,37661.05772984716,37801.96312689342,37863.69864507898,37868.861898048155,37878.45079641948,37872.05819750526,37883.70345636648,37961.15225090412,37995.08219898727,38002.19005372406,38020.51848417741,38136.389927433724,38210.37420158079,38223.38291685378,38233.441201858666,38275.52953666801,38344.73053750164,38427.09671581945,38477.52225131062,38455.17050685531,38459.70791097974,38493.10141719597,38530.31707171405,38486.12767292591,38466.41343431633,38470.10147215146,38465.742881982675,38480.27151587862,38567.935057632334,38631.570474096596,38630.94462525185,38603.22846212726,38578.12745310396,38562.54828721861,38487.75935027115,38395.78192183756,38252.23901894558,38091.73114201202,37950.579875776755,37800.689077459465,37599.12104596151,37454.88523899141,37341.025452736074,37163.55260176094,36941.420965364094,36755.052120095745,36587.25757446975,36369.05984509705,36173.25856366856,35999.898433673196,35796.251689940895,35622.39982156752,35405.610252095496,35264.526041093595,35165.06077826748,35011.75016304853,34873.57167882582,34742.32223538426,34610.111666931116,34484.94189798139,34356.08409119655,34219.15730466334,34145.08362353845,34145.88828633884,34082.11875940785,33911.17261781366,33799.77152344841,33780.07963658329,33770.96012484552,33735.957293028514,33670.75725445238,33564.22884037839,33463.15425195149,33439.28258887322,33422.831704954115,33398.60241396456,33403.20687332236,33429.4925248018,33438.12029816154,33378.932878843894,33365.790053104174,33388.61118419304,33444.088213931114,33540.78186044477,33626.63491089761,33652.5405827213,33670.26551607437,33771.65302892364,33846.82194552683,33960.435862593156,34010.9284533177,34090.23244264513,34175.95138263123,34288.246546774695,34298.90832887987,34308.31841329556,34428.43668799838,34587.78227422026,34674.73056015141,34673.34475199518,34725.11139215367,34808.05871582731,34868.81075725684,34970.39943580621,35034.54894239294,35110.27665260752,35131.51080984006,35151.71678682766,35179.2541359966,35282.25097444665,35367.90285919939,35460.50613647773,35529.0365849777,35532.99284374629,35612.185074351444,35689.00802004433,35672.512432636315,35640.10240317612,35662.67766507598,35732.79508743228,35818.558730907294,35865.676208219076,35906.53519708338,35981.234727053015,36078.42011194469,36146.4811738111,36157.21001114965,36175.3372759029,36220.01841306906,36246.21465757068,36327.75382134364,36408.73419150522,36426.72734579174,36486.674724420875,36613.02913582673,36689.65091581952,36719.93752955646,36758.360178275136,36820.87800751663,36876.265630276874,36862.362845225674,36955.770785304405,37131.67901416767,37170.191069864166,37157.271761569,37262.86140237587,37325.513342084094,37417.06608737303,37423.10105837596,37431.25944510215,37486.89293705141,37573.975333449285,37677.75448295528,37755.06916702619,37846.15252568156,37889.42550294704,37878.80842433077,37921.81318066278,38025.77114412441,38090.457092578064,38120.184912703626,38208.22843411308,38250.67439683371,38245.82406828691,38209.23426261357,38278.25644949156,38329.82192394995,38376.29120067253,38417.12783779238,38465.318198838024,38468.78271922859,38462.74774822566,38534.474496182745,38603.5637382941,38651.95526503983,38720.32925132862,38787.36213295009,38832.892636405544,38850.662273247515,38821.24737754433,38861.68168326398,38896.863329036634,38928.31223348525,38963.31506530226,38982.13523413363,38998.07202793026,39008.73381003545,39030.750278323925,39031.35377542422,39009.96315598049,38993.89225171712,38979.34126607672,39011.5054263479,39009.78434202485,39016.28869966134,38990.60654528219,38979.788300965825,38881.59708757366,38774.040493254724,38689.6850096804,38538.38605146242,38370.85972676989,38202.50638753252,38002.50297814643,37802.790141438265,37564.69935950034,37331.615368320396,37140.954988116624,37007.917405118635,36788.959716434445,36529.388908074965,36336.158077258835,36149.74452850158,35915.07356346531,35677.56392688322,35463.59067721256,35278.62999184489,35128.4933243386,34874.152824181656,34638.90071378955,34506.33251742512,34342.337768356534,34171.03399885106,33971.477624354084,33793.289517556375,33671.42780678604,33537.29498830974,33407.36429779104,33315.252758890725,33238.67568238684,33151.74974820015,33116.43399196077,33059.54880232201,33002.77537140553,32898.12450386578,32813.32198540235,32739.382414744192,32660.592515539232,32670.248469143924,32721.90335058014,32672.461291845,32655.250448614413,32608.468247469456,32571.990200518398,32541.234200147894,32530.751231998354,32518.636586503577,32509.360612554625,32510.791124199764,32593.17965426203,32682.89955650563,32751.139432327684,32808.62811906673,32796.33465961631,32872.46470123109,32971.03589427899,33077.474901375164,33129.17448630029,33210.84776053998,33296.298479592624,33316.012718202204,33337.09041322356,33464.651818829996,33598.449361139465,33725.09434522323,33756.096214782745,33799.19037809257,33876.70622786358,33960.4135108487,34115.75813481309,34264.41958718534,34302.775180670644,34366.56705934609,34457.20338311236,34579.24390783834,34663.21941175692,34736.711947525975,34790.62435515218,34849.92353319211,34913.04485953389,35027.396384167245,35120.17847540122,35220.38134579436,35280.35107616795,35347.11573685596,35361.86788819646,35380.933926216836,35405.54319686213,35504.76259049924,35575.17058553345,35616.96834766488,35662.83412728717,35673.89824079254,35748.4860120399,35799.827969053746,35939.77224108842,36063.26562920399,36130.79024920348,36228.66853817327,36323.39523117486,36356.52051645762,36449.16849722487,36556.166297932425,36622.796848153695,36698.79277930174,36775.973352905916,36819.872179016136,36887.21798505998,36987.5326141754,37113.23882499204,37193.83921549788,37239.48147767562,37303.072190650964,37301.99930691711,37319.634833292344,37427.61611075594,37530.81411490609,37590.96265923532,37685.756407470275,37775.029274824774,37836.273054632315,37867.185517214006,37889.17963375802,37966.293152128834,38082.34340934079,38230.31195763492,38350.653749782294,38439.54663748105,38507.65240283637,38534.36273746046,38567.26450529868,38637.4713346328,38640.15354396743,38678.531489197194,38772.922906031956,38896.237480191885,38965.48318451443,38987.38789408063,38986.15854813559,39031.82316205778,39119.75492474496,39240.23082735906,39373.22370686814,39453.10884155141,39462.720091667186,39497.186481617275,39483.77543494409,39489.698647224744,39543.2310751952,39599.26689854466,39630.38052682645,39669.89841102343,39700.5203009272,39680.78371057317,39700.16267301592,39714.08780981157,39725.59895820606,39718.89343486946,39684.80702457512,39615.89659641941,39515.1796359038,39465.156431812815,39375.63769526931,39279.569897600406,39224.98693764054,39132.3389568733,38990.91946970457,38797.26395574379,38602.9602411938,38419.810047127015,38241.398422884755,38051.877981648206,37847.09129894868,37641.567008682134,37439.59664578398,37214.96161400814,37071.01637971597,36929.0157471914,36685.851119262115,36497.62707920397,36326.05508876504,36155.46657508214,35999.92078541765,35805.17003597856,35635.92262696298,35452.83948812956,35209.518397989086,35012.19719793763,34875.60568757125,34789.50676792941,34659.97840881091,34492.943822496396,34373.94313501634,34311.33589879703,34259.77042433863,34167.27890578257,34148.972827073674,34133.684233866246,34065.82433769993,34044.254904300564,34025.07710755791,33916.06764984938,33795.9270234021,33682.58132726924,33631.46288769995,33636.0896988022,33624.95853006346,33586.8264540227,33577.52812832929,