0.0,-13317.862250550063,-13585.010300279893,-16004.45252710015,-16939.537756387923,-13631.03254211337,-13480.202970528957,-15488.68602379394,-17175.080439457946,-14114.70194038176,-13343.365590973568,-14968.270357641026,-17304.318225898533,-14647.23225202945,-13206.349397462536,-14529.662076194534,-17221.281495247065,-15214.765395494152,-13081.336090724004,-14146.664934952849,-17005.631864742263,-15949.020200850988,-13127.112463368472,-13845.519881906497,-16438.63516314449,-16414.763500066223,-13293.409442115957,-13584.049175268314,-15932.278744253963,-16933.703951085085,-13667.018850686414,-13437.064103730216,-15527.890983568548,-17305.56992358803,-14078.514466108618,-13280.892465220984,-14870.70499309361,-17353.536767189118,-14685.252569347927,-13192.580722878067,-14527.136329071085,-17185.339890162933,-15243.979125497239,-12999.171078106294,-14117.965295072234,-16960.146064775716,-15988.739250748069,-13205.90236257343,-13770.663889725673,-16412.036587242674,-16489.843009691598,-13196.782850835663,-13513.350607556178,-15902.081537494843,-17034.487966834065,-13718.00317978897,-13265.335651080091,-15250.103503477992,-17264.286251579077,-14163.361688060962,-13206.32704571808,-14804.208553339071,-17353.15678753338,-14675.61896748769,-12958.334440986448,-14329.055169708154,-17081.76190635704,-15278.892550336428,-13107.197059058793,-14071.83129451648,-16796.08426047376,-15911.62573237726,-13132.231012848737,-13756.470531996552,-16361.298127329128,-16571.29276648674,-13366.231425551347,-13551.750904530396,-15754.269451411898,-16988.286911044946,-13612.704111660018,-13254.405648041446,-15263.000460028705,-17289.05198443556,-14160.210092092764,-13222.844984870551,-14792.250370055483,-17200.360262436898,-14514.038206820274,-12712.241734533518,-13778.978738663047,-16403.408813882925,-14824.436882071124,-12636.64813478567,-13788.254712611999,-16679.810485817252,-15984.78299197948,-13081.604311657467,-13741.204290533578,-16259.798855757577,-16551.7573418328,-13356.128437057549,-13456.174845239502,-15706.43671827754,-17017.210068370114,-13579.288253699335,-13187.08219374206,-15121.37980715988,-17172.085305700937,-14111.148013013366,-13026.686075530777,-14799.40292828118,-17267.862530691928,-14689.141772883151,-12922.616353346868,-14197.76102277768,-16952.41236119418,-15330.547431772642,-12903.483260093124,-13812.908686746203,-16559.446341925424,-15941.48766296955,-12946.823292591966,-13576.270768197868,-16187.580369422481,-16560.22865298136,-13137.058989651083,-13225.683656416377,-15622.952952736969,-17004.670739730685,-13567.128904715646,-13138.757722229688,-14999.24987545608,-17163.703401530194,-14099.390995429874,-12941.101246011407,-14514.999331831854,-17100.671482166228,-14617.392673181615,-12739.421455791171,-14033.319238819986,-16912.939180486104,-15259.379477426945,-12864.300652062971,-13800.838744740338,-16632.894174205565,-16017.88592551779,-12768.456371838614,-13337.867061837562,-15883.52958959694,-16448.939317338387,-13052.189415954283,-13052.502340376657,-15302.875972136972,-16848.297935521357,-13486.372051998622,-12899.45994609117,-14744.462340410037,-17000.714480962095,-14059.895462977347,-12845.078151831407,-14317.946352713867,-16903.953779215073,-14776.023003580929,-12873.576626011924,-13993.130802289345,-16722.83759389372,-15663.968403812458,-13143.272774609659,-13698.981845257504,-16170.190712236252,-16259.620041801936,-13581.054041511303,-13605.283332500856,-15328.088739882558,-16414.49527913276,-14115.148975270866,-13464.556749410243,-14751.525491657912,-16176.985642550666,-14661.04563010283,-13692.097507965269,-14395.305740273685,-15265.816779830073,-14423.513641776282,-14216.357674164496,-14698.328339854283,-15406.47630768732,-14663.683135948557,-14166.781504962624,-14563.189692877495,-15260.899396049905,-14766.858788354253,-14304.043567662666,-14632.323638477761,-15246.907204020883,-14997.931122533219,-14230.886308060446,-14403.33001653314,-15133.717970099207,-14958.793217991975,-14078.626224830894,-14396.8480106411,-14888.966368313595,-15208.10457564647,-14386.61091168057,-14358.581824133615,-14851.437789373136,-15328.13344337147,-14576.310166872761,-14383.839295368112,-14735.812215305832,-15226.656523544376,-14654.384810255147,-14336.319486656128,-14665.717144693988,-15255.937308780827,-14839.45725434509,-14335.69363781138,-14612.877620801642,-15220.956828708271,-14904.813755132409,-14259.653003174426,-14482.768116327301,-15098.715138282198,-15163.848121624962,-14353.440922908894,-14496.20151474494,-14984.140096204294,-15178.399107265366,-14419.557383007692,-14441.998534440821,-14841.960649724086,-15270.421239187866,-14615.984513280931,-14347.07067573913,-14733.845261793766,-15245.029657486637,-14741.221337464016,-14402.65946419948,-14651.143807309129,-15081.548998540522,-14744.685857854589,-14348.925870528921,-14668.354650539715,-15245.677858075842,-14999.227523711626,-14419.982066152343,-14589.810620523765,-15029.581192681933,-15103.252542406624,-14357.911271799956,-14497.922599067999,-15118.429376891778,-15338.504652798732,-14433.482519803349,-14383.481667456826,-14808.522440018945,-15338.504652798732,-14583.015690209353,-14283.815238930612,-14672.422668030582,-15291.07425106457,-14597.119640960651,-14158.37724904743,-14657.156426567606,-15294.337605755045,-14729.665485580623,-14139.490024982695,-14543.833082179199,-15196.749889463174,-14939.637772993778,-14242.218642499285,-14518.687369666979,-15136.46723466721,-15193.642996983886,-14148.430722764817,-14283.815238930612,-15040.06416083147,-15365.617318823019,-14310.860849721534,-14227.377084180962,-14871.911987294197,-15376.793191050672,-14344.567280360137,-14077.776858541592,-14508.62908466209,-15125.604286861932,-14137.925402870824,-13414.690007530453,-13794.222628381567,-14595.197390937496,-14357.55364388867,-13893.486725507586,-14322.908439982944,-15122.94442927175,-14910.6699121797,-14099.79332683007,-14517.033340577287,-15160.540063445576,-15186.356328291457,-14189.692043029314,-14363.789780591702,-14992.477296886123,-15272.790524100128,-14227.354732436506,-14269.621881201492,-14821.374693080747,-15383.051679498158,-14444.18900539744,-14165.865083439958,-14771.239730267494,-15454.48785477732,-14532.746616929368,-14050.507730306117,-14537.552241987258,-15270.242425232223,-14783.846114140288,-14100.1286029969,-14461.28808990575,-15210.29504660309,-15050.569480725466,-14012.06272984299,-14368.014260293754,-15062.17003609777,-15176.208636308747,-14165.149827617388,-14136.114911569943,-14780.515704216446,-15280.323061981568,-14186.786316250125,-14110.320998468518,-14716.165031929617,-15397.535609905197,-14315.867640479522,-13966.062839753968,-14514.529945198292,-15277.752611369207,-14499.666035135513,-13890.357481283841,-14526.689294181979,-15389.444278412377,-14878.863379819797,-14028.670075973283,-14228.874651059468,-15013.823212840942,-14805.97434115104,-13899.432289532697,-14190.809630252079,-14968.315061129935,-15207.165802379348,-13932.401112604275,-14039.845948200937,-14701.904618967132,-15160.607118678943,-13989.375709220853,-13914.117385639835,-14644.058304316797,-15312.151946085925,-14363.208635235864,-14056.83327398697,-14541.329686800205,-15322.880783424473,-14526.868108137622,-14037.700180733227,-14517.368616744116,-15405.068147786636,-14952.557081288944,-14132.315115012541,-14472.843941789144,-15226.276543888634,-15117.982342002671,-14139.691190682792,-14249.617069913993,-15005.664826114755,-15382.738755075785,-14211.172069450864,-14222.10207248951,-14923.052778607938,-15347.46770232531,-14317.78989050268,-14092.149030226354,-14614.375187680149,-15379.810676552139,-14430.71090349089,-13996.48356395764,-14419.311513818684,-15349.501711070743,-14657.067019589786,-13965.660508353772,-14364.03564978071,-15236.603049826987,-14808.678902230133,-13958.597357105895,-14328.831652263601,-15215.927686205827,-14974.931177488706,-13904.975522157612,-14093.132506982389,-15094.065975435493,-15177.594444464976,-13835.863928301804,-13808.30422738841,-14155.0915426125,-14961.296613370969,-13941.408865619764,-13727.189746760101,-14325.478890595305,-15053.83283541594,-14132.203356290265,-13672.360917611233,-14186.51809531666,-15114.830746034473,-14468.351241153627,-13761.007936120981,-14081.911931265824,-15040.645306187309,-14620.432510427538,-13842.12241674929,-14056.721515264693,-14858.947975510118,-14833.26582113097,-13642.610745741218,-13883.517847480518,-14757.046372538374,-15074.530550781556,-13748.647421437196,-13803.856230241803,-14362.381620691016,-14943.392866062268,-14076.726326552192,-13805.800832009416,-14336.654762822958,-14988.878666028819,-13938.14551092929,-13830.83478579936,-14354.223233964829,-15021.087529788916,-14493.139325754562,-13680.429897359598,-14159.85246418148,-15063.824065187464,-14636.168138524074,-13641.359048051721,-14127.46478646574,-15050.591832469921,-14824.436882071124,-13709.308351195856,-14085.085878978478,-14803.6944632166,-14956.803912735453,-13830.231288699066,-13848.515015663508,-14548.772817703823,-15061.208911086193,-13891.60917897334,-13628.350332778733,-14362.9404143024,-15116.261257679613,-14017.293038045531,-13652.13258887918,-14261.77641889768,-15000.456869656668,-14395.46220248487,-13670.41631584362,-14198.342168133518,-15140.08821726897,-14592.291664158305,-13529.354456586178,-13820.798852538926,-14859.640879588233,-14889.413403202701,-13681.726298538006,-13807.365454121287,-14710.398281860147,-14946.499758541557,-13785.505448043998,-13667.287071619878,-14331.625620320514,-14872.51548439449,-13492.71994742393,-13115.713073696264,-13625.757530421917,-14658.072848090274,-13813.713349546595,-13444.596641611653,-14059.694297277249,-15062.751181453608,-14533.439521007482,-13537.602250290187,-14016.935410134247,-14968.650337296765,-14501.67769213649,-13592.542838161331,-14048.585480282962,-14832.528213563946,-14930.42885427819,-13763.041944866412,-14044.405704069819,-14753.738314358989,-14836.216251399072,-13899.946379655168,-13943.822854020937,-14514.909924854031,-14974.886473999797,-14082.180152199287,-13975.607034636383,-14474.274453434284,-14966.325755873413,-14221.610334111492,-13742.835967878817,-14171.631833509426,-15174.465200241233,-14723.563459344323,-13811.2099541676,-14153.951603645279,-15103.006673217616,-14832.036475185929,-13889.485763250086,-14113.472594436716,-14920.415272762213,-15040.019457342562,-13897.308873809443,-14029.362980051397,-14721.216526176517,-15120.485737381667,-13785.907779444193,-13734.632877663718,-14408.94030439142,-15205.15414537837,-14157.863158924958,-13696.366691156232,-14519.626142934101,-15270.376535698955,-14242.799787855123,-13683.156810183145,-14332.69850405437,-14956.71450575763,-14420.205583596897,-13602.824640610772,-13948.226147678632,-14821.151175636194,-14446.625345543069,-13478.14661003907,-13831.527689877474,-14680.089316378751,-14644.438283972537,-13574.080297241248,-13841.138939993256,-14433.549575036715,-15026.027265313538,-13966.733392087626,-13800.458765084597,-14464.14911319603,-15272.16467525538,-14099.055719263044,-13877.684042177683,-14522.353055757649,-15247.957736010283,-14334.821919777623,-13803.230381397056,-14254.087418805055,-15221.806194997573,-14686.23604610396,-13849.1185127638,-14270.11361957951,-15105.398309874334,-14901.550400441934,-13837.719123091594,-14200.040900712122,-14904.545534198945,-15135.506109655633,-13967.091019998912,-14156.454999024272,-14820.704140747088,-15308.575666973074,-14146.262603552654,-14028.312448061997,-14723.496404110958,-15402.274179729722,-14344.209652448852,-13981.57495040595,-14686.95130192653,-15530.416730691997,-14441.484444318348,-13941.967659231146,-14403.531182233237,-15366.556092090143,-14890.530990425468,-13671.46684783302,-14237.167148252387,-15270.734163610241,-15158.014316322127,-13981.373784705853,-14066.645689802848,-14855.125827208261,-15093.171905657282,-14013.694407188226,-14145.256775052165,-14893.99551081604,-15326.635876492963,-14185.534618560627,-14159.316022314551,-14829.331914106837,-15596.332025090698,-14504.873991593598,-14126.905992854357,-14676.468333776991,-15656.011182786367,-14818.960704679574,-14049.703067505727,-14652.261394531894,-15641.57195586824,-15099.251580149124,-14102.27437046461,-14518.955590600443,-15382.828162053605,-15336.068312653104,-14161.305327571074,-14340.231041935807,-15279.11606778098,-15550.868576868605,-14361.085219512608,-14426.799348211212,-14886.105345023316,-15462.57918627014,-14251.9640030818,-14320.628562048503,-14997.39468066629,-15741.461901839008,-14766.59056742079,-14308.11158515353,-14758.476884183514,-15597.89664720257,-14956.96037494664,-14365.935548059411,-14745.132892743695,-15627.915040006048,-15260.184140227335,-14295.348739069552,-14625.79692909681,-15440.450959259388,-15447.491758762808,-14361.241681723795,-14598.639559583613,-15324.065425880603,-15566.201873564945,-14267.811389900613,-14332.318524398628,-15279.02666080316,-15760.863216026213,-14520.654323179046,-14424.541822021225,-14958.569700547421,-15693.763279171382,-14810.869373186753,-14406.034577612232,-14932.462863023624,-15747.228651908477,-14832.818786241865,-14267.498465478238,-14743.25534620945,-15711.465860779985,-15365.393801378466,-14408.247400313307,-14704.63153179068,-15606.971455451425,-15551.449722224443,-14467.256005675317,-14744.507043898946,-15553.059047825223,-15774.45307665504,-14586.435507111015,-14592.448126369492,-15455.337221066622,-16011.828602770402,-14663.057287103808,-14489.317177452705,-15156.695563399264,-15888.894008266212,-14831.254164129992,-14152.677554211326,-14581.182847164018,-15210.518564047643,-14494.189857743962,-13659.79923722735,-14275.746259182246,-15505.785108302249,-15188.926778903817,-14330.64214356448,-14736.750988572954,-15618.706121290461,-15552.50025421384,-14446.446531587426,-14674.769601198388,-15503.996968745825,-15835.205118084565,-14502.974093314899,-14613.212896968473,-15294.471716221777,-15848.99614441349,-14753.090113769784,-14514.909924854031,-15178.980252621204,-15986.63818676927,-14873.163684983694,-14458.784694526756,-15088.321577110479,-15980.469105299606,-15268.409582186889,-14397.540914719215,-14863.306565678904,-15858.719153251548,-15452.990287898814,-14315.889992223978,-14755.101770770762,-15748.100369942233,-15660.503883421885,-14423.714807476379,-14632.681266389045,-15498.945474498925,-15960.844273667846,-14777.364108248248,-14639.766769381378,-15269.750686854208,-15812.093414317778,-14839.233736900538,-14535.764102430834,-15222.63320954242,-15965.336974303364,-15100.70444353872,-14469.804104543222,-15116.305961168524,-16001.54680032096,-15177.750906676163,-14457.085961948153,-15023.367407723357,-15684.084973822233,-15339.532833043675,-14473.916825523,-14746.921032300119,-15522.59362013264,-15585.782001707794,-14368.640109138503,-14471.324023166184,-15287.609730673998,-15703.463936264985,-14456.482464847859,-14491.999386787342,-15296.773945900673,-15905.031967762945,-14626.758054108388,-14451.989764212343,-15080.476114806666,-15846.537452523406,-15144.402103948845,-14626.400426197104,-15115.411891390311,-15949.556642717916,-15307.301617539122,-14533.260707051839,-15058.392591284823,-15844.123464122233,-15559.205777550433,-14501.498878180848,-14908.546496456445,-15928.43424420765,-16015.538992349982,-14584.401498365582,-14788.204704309072,-15635.984019754413,-16021.417501141728,-14783.220265295538,-14742.473035153513,-15594.476830300908,-16240.866928203934,-15020.506384433078,-14735.879270539197,-15433.499566733786,-16197.236323027173,-15339.935164443872,-14697.210752631516,-15280.054841048104,-16154.745656817635,-15566.470094498409,-14763.617785408234,-15050.860053403385,-16024.770262810025,-15803.55504793585,-14771.150323289672,-15109.935713998762,-16003.178477666197,-16066.32215575244,-14802.26395157146,-14940.934174172186,-15762.517245115907,-16174.973985549688,-14865.56409186889,-14912.770976158497,-15485.288558636734,-16136.327819386463,-15137.741284101163,-14894.174324771682,-15464.523788037754,-16272.159370441363,-15406.47630768732,-14948.489063798079,-15347.333591858578,-16262.414009858849,-15729.794291233336,-14885.412440945202,-15364.52208334471,-16316.549934929602,-15875.90764473768,-14755.034715537397,-15179.069659599027,-15970.813151694912,-16108.030510906043,-14964.895244228273,-15169.547816461065,-15910.23992422103,-16260.983498213709,-15039.25949803108,-15043.931012622239,-15616.649760800572,-16313.8006703616,-15279.74191662573,-15020.081701288427,-15613.408757854553,-16443.77606436921,-15524.672332366985,-14956.759209246542,-15521.274867209777,-16412.975360509798,-15753.263622911409,-14852.60008008481,-15388.751374334262,-16077.207455302174,-15834.869841917736,-14853.248280674015,-15208.261037857657,-15959.190244578152,-16206.10996557593,-15083.873579963874,-15233.317343392057,-15958.519692244494,-16330.09509206952,-15106.605304074921,-15105.107737196415,-15845.129292622722,-16541.90022252801,-15319.863297923006,-15024.149718779294,-15760.460884626018,-16500.057756907674,-15726.910916198602,-15050.16714932527,-15505.539239113241,-16355.017287137187,-15879.23805466152,-14879.42217343118,-15377.977833506804,-16389.215456153805,-16003.491402088572,-14897.862362606807,-15293.041204576637,-16075.732240168125,-16206.10996557593,-15035.750274151598,-15196.459316785254,-15951.702410185626,-16452.49324470678,-15289.286111508145,-15206.316436090046,-15732.275334867876,-16498.13550688452,-15496.68794830894,-15116.75299605763,-15760.192663692555,-16504.12577439854,-15731.984762189957,-15145.318525471512,-15541.972582575392,-16462.64093668949,-15939.408950735207,-15140.199975991247,-15545.012419821314,-16366.103752387018,-16147.637802080848,-15056.068009861472,-15473.531541053242,-16253.875643476922,-16492.36875681505,-15196.325206318523,-15230.143395679403,-16000.250399142553,-16347.596507978024,-14956.312174357436,-14653.7589614104,-15089.059184677504,-15928.233078507554,-15143.932717315283,-15000.859201056863,-15687.303625023798,-16624.15464212354,-15914.129127756254,-15268.789561842628,-15704.022729876368,-16541.788463805733,-16146.944898002732,-15250.058799989081,-15640.007333756368,-16563.626118138567,-16448.49228244928,-15234.434930614821,-15486.294387137223,-16380.900607216432,-16628.28971484777,-15414.522935691231,-15467.608328772585,-16319.589772175525,-16845.90629886464,-15608.491374074385,-15347.288888369667,-16045.959716553656,-16946.556204146887,-15768.395753907653,-15294.628178432964,-15903.109717739788,-16767.004640937404,-16012.432099870695,-15339.689295254862,-15861.580176541827,-16611.414147784013,-16164.692183100247,-15145.296173727058,-15478.672442277963,-16342.835586409044,-16305.597580146503,-15350.619298293508,-15581.423411539008,-16334.006647349197,-16602.33933953516,-15416.489889203298,-15562.826760152193,-16146.229642180162,-16626.456871802435,-15476.884302721537,-15400.016653539737,-16062.56706268395,-16814.591504882756,-15691.86338089268,-15246.415465642867,-15807.220734026521,-16602.249932557337,-15731.403616834119,-15026.943686836206,-15665.33186022423,-16455.555433697158,-16012.610913826336,-15068.786152456541,-15490.049480205713,-16248.31005910755,-16184.205256009729,-15108.460498864712,-15269.728335109752,-16136.14900543082,-16477.16957058544,-15163.222272780213,-15290.180181286358,-16003.424346855207,-16594.53858072026,-15439.15455808098,-15243.286221419123,-15893.274950179453,-16645.589965056177,-15691.461049492485,-15211.144412892392,-15692.57863671525,-16571.69509788693,-15956.440980010151,-15366.265519412224,-15718.327846327764,-16538.212184692882,-16224.25958207364,-15194.984101651205,-15436.070017346146,-16334.923068871865,-16370.99878442273,-15288.146172540924,-15571.119257345112,-16058.007306815065,-16384.7674590072,-15436.986438868815,-15349.635821537475,-16014.063777215932,-16504.773974987744,-15365.863188012027,-15199.946188920283,-15850.337249080809,-16628.177956125495,-15603.976321694414,-15033.69391366171,-15599.03658616979,-16599.031281355772,-15944.639258937748,-15048.043733602017,-15519.732596842361,-16446.950012081863,-15983.64305301226,-15061.477132019656,-15405.872810587027,-16185.881636843878,-16161.67469759878,-14923.85744140833,-15151.755827874642,-16042.115216507342,-16278.328451911028,-15118.317618169502,-15300.730204669262,-15950.473064240583,-16445.564203925635,-15249.902337777894,-15132.645086365354,-15649.886804805614,-16362.058086640607,-15483.053384191202,-15124.307885683524,-15569.934614888982,-16418.049206501153,-15730.73306450046,-15022.227468756137,-15442.619078471553,-16317.309894241083,-16047.233765987608,-15058.727867451653,-15427.933982364415,-16224.281933818094,-16188.206218267229,-15123.391464160857,-15285.553370184109,-15973.942395918655,-16371.222301867283,-15225.762453766163,-15185.886941657895,-15727.1120818987,-16446.10064579256,-15466.91542469447,-15286.045108562126,-15839.921336164634,-16528.153899687994,-15504.712224568395,-14970.192607664181,-15641.773121568338,-16420.507898391235,-15793.385004208685,-15076.452800804711,-15377.933130017893,-16177.209159995218,-16138.652400809813,-15239.978163239737,-15451.425665786943,-16262.771637770134,-16230.920401921321,-15097.84342024844,-15175.381621763901,-16004.027843955499,-16431.12497700751,-15338.03526616517,-15214.25130537168,-15739.807872749314,-16331.369141503472,-15265.660317618886,-15089.930902711261,-15679.122886553156,-16385.125086918484,-15477.756020755294,-14994.846581798385,-15536.496405183841,-16412.282456431683,-15738.645582037638,-14885.6136066453,-15274.31044272309,-16003.513753833027,-15744.121759429188,-14801.92867540463,-14957.541520302479,-15943.208747292609,-16102.576685258948,-14925.891450153764,-15046.54616672351,-15771.748515575948,-16083.734164683125,-14848.84498701632,-14786.327157774826,-15546.241765766355,-16244.823186972522,-15176.521560731122,-14918.649484950243,-15450.576299497641,-16128.817633249479,-15342.282097611678,-14900.388109730258,-15332.4696817958,-16244.845538716978,-15558.803446150238,-14609.346045177705,-14992.052613741473,-15757.577509591283,-15711.421157291075,-14741.221337464016,-15122.676208338287,-15800.381100223196,-15931.027046564466,-14977.613386823343,-15160.160083789837,-15885.205970431087,-16075.531074468026,-14788.718794431543,-14565.603681278668,-14983.178971192716,-15337.387065575966,-14220.358636421995,-14144.206243062765,-14995.606541109866,-15931.787005875947,-15204.573000022532,-14622.555926150791,-15057.230300573148,-15884.803639030892,-15387.700842344862,-14648.126321807662,-15119.144632714348,-15901.790964816924,-15638.263897688854,-14531.517270984325,-14728.503194868947,-15533.702437126929,-15612.84996424317,-14563.904948700065,-14548.057561881253,-15086.55578929851,-15499.303102410211,-14208.400453138407,-14012.330950776453,-14833.466986831068,-15381.487057386286,-14571.348079603682,-14318.639256791981,-14751.503139913457,-15365.058525211636,-14685.274921092383,-14165.28393808412,-14376.910254586966,-15072.429486802755,-14837.400893855203,-14233.38970343944,-14175.85631321148,-14818.066634901363,-14840.708952034587,-14039.555375523018,-14238.687066875347,-14799.380576536725,-14935.793272947465,-14137.053684837067,-14139.355914515963,-14618.957295293487,-14942.968182917617,-14202.410185624383,-14067.45035260324,-14537.194614075974,-15323.08194912457,-14477.649566847036,-13994.114279045378,-14540.413265277537,-15122.832670549473,-14531.472567495415,-13918.811251975449,-14282.474134263293,-14969.656165797254,-14396.535086218726,-13813.132204190757,-14246.979564068266,-14947.192662619671,-14662.006755114407,-13995.365976734874,-14393.56230420617,-14883.400783944224,-14974.931177488706,-14158.980746147723,-14292.375957056995,-14841.625373557255,-15156.71791514372,-14349.797588562678,-14262.335212509062,-14678.748211711432,-14981.435535125202,-14481.494066893349,-14316.381730601996,-14565.447219067482,-15248.941212766316,-14685.230217603472,-14199.415051867372,-14501.051843291742,-15071.624824002365,-14691.555761284324,-14230.52868014916,-14500.940084569465,-14866.838141302842,-14980.362651391346,-14389.293121015207,-14405.676949700946,-15093.50718182411,-15318.656303722419,-14414.37177829406,-14521.168413301519,-14954.658145267744,-15195.654653984864,-14578.634748296112,-14382.364080234061,-14864.424152901669,-15340.717475499807,-14715.20390691804,-14363.007469535765,-14713.683988295077,-15205.981159923216,-14820.011236668974,-14260.949404352834,-14600.427699140037,-15170.62070019492,-14714.086319695274,-14252.791017626647,-14452.347392123627,-14959.329659858902,-14798.039471869406,-14147.000211119677,-14524.699988925457,-15120.977475759682,-15014.091433774405,-14228.025284770167,-14273.198160314341,-14933.66985722421,-15334.07900739658,-14536.613468720136,-14427.648714500514,-14753.783017847898,-15118.60819084742,-14434.510700048293,-14274.561616726116,-14677.42945878857,-15237.765340538663,-14678.43528728906,-14165.127475872932,-14550.337439815694,-15062.929995409251,-14700.719976511,-14126.83893762099,-14469.066496976197,-15084.186504386247,-14941.582374761389,-14258.937747351856,-14436.924688449466,-14828.46019607308,-14971.265491398037,-14286.586855243071,-14328.518727841227,-14794.26202705646,-15052.447027259712,-14284.642253475458,-14199.102127445,-14577.60656805117,-15006.4918406596,-14430.062702901687,-13959.558482117473,-14300.221419360807,-15127.168908973803,-14690.594636272746,-14254.86972986099,-14528.075102338207,-15056.269175561569,-14725.217488434017,-14172.369441076451,-14397.026824596744,-14799.626445725733,-14844.061713702884,-14211.060310728588,-14427.42519705596,-14861.876054033764,-15055.956251139194,-14243.939726822344,-14254.981488583266,-14654.585975955246,-15039.773588153552,-14390.410708237972,-14308.335102598085,-14678.658804733612,-15088.254521877114,-14493.496953665848,-14279.769573184201,-14615.828051069744,-15136.154310244836,-14605.613303853668,-14065.617509557906,-14169.642528252904,-14523.068311580219,-14077.59804458595,-13426.379969880578,-13843.128245249778,-14612.542344634814,-14807.829535940831,-14156.678516468826,-14400.580751965137,-14822.469928559058,-15023.680332145732,-14310.905553210445,-14294.141744868964,-14758.610994650246,-15019.947590821695,-14337.861757023546,-14374.31745223015,-14677.138886110652,-15093.484830079655,-14485.584436128669,-14337.638239578991,-14633.664743145078,-15079.60439677291,-14645.868795617676,-14171.251853853686,-14409.834374169634,-15032.553974694489,-14939.190738104671,-14256.702572906324,-14413.9023916605,-14960.156674403748,-15000.412166167756,-14342.846196037079,-14546.090608369186,-14795.580779979324,-14938.319020070914,-14202.499592602206,-14243.068008788588,-14724.301066911348,-15103.99014997365,-14376.329109231128,-14215.284790430642,-14584.848533254688,-15028.083625803427,-14429.749778479312,-14183.344147604008,-14528.8797651386,-15033.06806481696,-14725.955096001042,-14120.803966618058,-14320.44974809286,-14909.194697045648,-14557.847625952678,-13962.151284474288,-14164.903958428378,-14508.271456750806,-14743.143587487173,-14091.567884870516,-14140.18292906081,-14555.366582318138,-14761.695535385077,-13962.553615874484,-13991.342662732919,-14411.242534070318,-14737.265078695427,-13979.76445910507,-13816.149689692224,-14190.452002340795,-14700.138831155162,-14180.796048736102,-13788.522933545462,-14158.42195253634,-14707.71607252551,-14359.162969489453,-13946.28154591102,-14233.702627861814,-14661.112685336197,-14579.797039007788,-14031.732264963659,-14277.199122571841,-14776.268872769937,-14758.566291161334,-14091.612588359427,-14212.66963632937,-14532.567802973725,-14825.129786149238,-14160.075981626032,-14176.23629286722,-14605.613303853668,-14966.258700640048,-14238.597659897527,-14043.086951146955,-14390.768336149256,-14993.796049808985,-14489.406584430526,-14181.153676647387,-14475.459095890415,-14919.208278561626,-14461.086924205652,-14136.159615058854,-14412.963618393376,-14887.513504924002,-14656.530577722859,-14052.474683818184,-14311.196125888364,-14735.789863561376,-14811.919905176152,-14147.782522175614,-14110.41040544634,-14575.080820927718,-14872.873112305775,-14080.526123109596,-13994.136630789833,-14329.748073786268,-14829.957762951586,-14188.61915929546,-14058.084971676466,-14467.144246953041,-14954.121703400817,-14396.46803098536,-13961.033697251523,-14348.769408317734,-14774.860712869253,-14503.130555526086,-14079.341480653464,-14295.013462902722,-14848.88969050523,-14735.76751181692,-13987.29699698651,-14168.904920685878,-14779.129896060216,-14825.129786149238,-14026.658418972305,-14195.57055182106,-14637.933926336042,-14841.960649724086,-14163.048763638588,-14195.637607054427,-14502.705872381435,-14833.6010972978,-14224.33724693504,-14057.54852980954,-14436.120025649076,-14891.492115437046,-14331.916192998433,-13926.075568923423,-14387.683795414425,-14932.261697323525,-14496.983825800877,-13952.51768261405,-14296.600436759049,-14830.516556562969,-14617.929115048542,-13992.661415655783,-14161.260624082164,-14569.247015624884,-14729.285505924881,-14087.11988772391,-14073.93235849528,-14546.671753725024,-14838.362018866781,-14122.256830007653,-14189.915560473868,-14550.739771215889,-14948.444360309168,-14323.288419638684,-14117.741777627682,-14524.185898802985,-14994.578360864922,-14462.517435850792,-14139.780597660614,-14522.643628435568,-14925.802043175941,-14586.256693155372,-14129.431739977807,-14352.703315341869,-14896.744775384042,-14868.872150048275,-14135.936097614302,-14197.626912310949,-14603.154611963584,-14437.304668105206,-13486.19323804298,-13361.269338282269,-13772.049697881903,-14329.457501108349,-13841.809492326915,-13990.202723765698,-14522.621276691114,-14965.588148306388,-14281.222436573797,-14110.969199057723,-14514.909924854031,-15031.414035727268,-14474.073287734187,-14284.619901731003,-14610.128356233641,-15010.06811977245,-14588.782440278823,-14029.20651784021,-14430.599144768614,-14904.18790628766,-14813.730396477033,-14157.192606591298,-14302.702462995347,-14775.464209969547,-14891.022728803484,-14126.83893762099,-14187.121592416954,-14706.732595769477,-14990.644453840787,-14223.018494012178,-14116.89241133838,-14520.20728828994,-14953.026467922506,-14348.03180075071,-14050.910061706312,-14453.844959002134,-14973.67947979921,-14505.991578816365,-14149.213033820753,-14504.426956704494,-14960.067267425928,-14630.42374019906,-13925.293257867486,-14154.08571411201,-14740.595488619269,-14766.21058776505,-13974.154171246788,-14109.449280434763,-14623.248830228906,-14787.26593104195,-14054.486340819161,-14255.652040916926,-14620.32075170526,-14893.771993371487,-14128.582373688505,-13928.936592213702,-14306.703425252847,-14810.668207486655,-14273.287567292164,-13929.450682336173,-14204.66771181437,-14729.553726858347,-14234.82021508458,-13817.893125759736,-14124.246135264175,-14612.31882719026,-14338.174681445918,-13815.300323402922,-14151.761132688658,-14641.130225793151,-14653.13311256565,-13987.29699698651,-14169.977804419734,-14602.394652652105,-14755.124122515217,-14123.575582930516,-14198.319816389063,-14680.223426845483,-14960.71546801513,-14174.246987610697,-14179.097316157498,-14552.751428216867,-14981.457886869657,-14381.984100578322,-14098.295759951563,-14439.919822206477,-14896.163630028204,-14500.224828746896,-14069.350250881942,-14381.693527900403,-14906.6689499222,-14609.971894022454,-14009.045244341523,-14298.612093760026,-14778.97343384903,-14698.708319510022,-14149.257737309665,-14302.411890317428,-14758.029849294408,-14944.510453285035,-14147.760170431158,-14190.47435408525,-14639.587955425735,-14958.6814592697,-14255.495578705739,-14192.351900619497,-14462.048049217232,-14788.316463031348,-14335.514823855738,-14161.081810126521,-14450.425142100472,-14937.089674125871,-14506.639779405568,-14140.22763254972,-14328.965762730333,-14714.019264461907,-14585.69789954399,-14009.715796675182,-14194.654130298393,-14822.738149492521,-14785.298977529881,-13975.696441614205,-14054.754561752625,-14615.671588858557,-14855.46110337509,-14153.951603645279,-14227.198270225319,-14593.36454789216,-15018.450023943189,-14259.384782240963,-14017.449500256718,-14503.734052626378,-15048.624878957855,-14361.845178824089,-14072.278329405586,-14477.023718002287,-14851.236623673038,-14443.272583874774,-14026.367846294386,-14313.096024167065,-14750.87729106871,-14682.6150635022,-14101.26854196412,-14227.24297371423,-14766.25529125396,-14822.492280303513,-14103.481364665195,-14177.242121367708,-14713.818098761809,-14893.682586393666,-14074.155875939832,-14075.474628862696,-14431.984952924842,-14768.713983144044,-14136.584298203505,-14131.979838845711,-14479.750630825834,-15055.97860288365,-14323.578992316603,-13988.213418509176,-14335.291306411185,-14866.905196536209,-14508.562029428726,-14079.944977753757,-14345.327239671618,-14831.276515874448,-14618.867888315664,-14029.675904473772,-14258.669526418393,-14755.437046937592,-14754.25240448146,-14008.374692007863,-14208.825136283058,-14736.594526361767,-14984.073040970927,-14153.66103096736,-14091.657291848338,-14503.979921815388,-14952.713543500131,-14329.233983663797,-14015.639008955839,-14210.836793284036,-14566.654213268068,-13752.53662497242,-13095.484744964213,-13330.379227445035,-13956.898624527292,-13899.745213955071,-13778.419945051664,-14183.880589470935,-14719.830718020286,-14514.619352176112,-13911.457528049652,-14167.51911252965,-14695.24379911945,-14726.066854723318,-14005.893648373325,-14126.436606220796,-14492.066442020709,-14765.718849387033,-14124.693170153281,-14123.329713741508,-14427.827528456155,-14842.005353212995,-14194.385909364928,-14039.734189478659,-14383.928702345933,-14880.360946698303,-14388.823734381645,-14050.26186111711,-14310.637332276981,-14756.889910327187,-14543.698971712467,-14072.747716039148,-14239.379970953461,-14768.11048604375,-14568.97879469142,-13979.473886427151,-14223.53258413465,-14638.649182158611,-14637.933926336042,-13998.919904103268,-14043.69044824725,-14532.366637273626,-14777.006480336962,-13955.892796026803,-14004.083157072444,-14538.245146065372,-14829.197803640105,-14111.058606035544,-13954.462284381663,-14248.432427457861,-14768.266948254937,-14286.586855243071,-13992.52730518905,-14281.557712740627,-14839.07727468935,-14421.9043161755,-13988.213418509176,-14089.93620752528,-14655.301231777816,-14487.372575685094,-13859.623832657795,-14056.475646075683,-14453.420275857483,-14514.418186476016,-13839.462559159108,-13962.665374596761,-14472.821590044688,-14679.105839622718,-13875.940606110169,-13879.472181734107,-14294.87935243599,-14731.386569903681,-14143.602745962471,-13934.770397516537,-14375.904426086478,-14910.424042990691,-14413.56711549367,-14006.027758840057,-14367.343707960095,-14902.109194053317,-14524.096491825163,-14058.979041454679,-14300.444936805361,-14803.985035894519,-14715.62859006269,-14011.325122275965,-14251.9640030818,-14790.104602587773,-14856.042248730928,-14050.731247750671,-14121.27335325162,-14635.94462107952,-14956.826264479909,-14233.523813906171,-14193.76006052018,-14469.312366165206,-14909.507621468023,-14336.990038989788,-14152.901071655879,-14461.779828283767,-14910.602856946332,-14386.722670402845,-13999.143421547822,-14276.886198149467,-14798.575913736335,-14608.966065521965,-14126.369550987429,-14383.951054090388,-14943.504624784546,-14821.5982105253,-14083.521256866607,-14325.657704550948,-14819.005408168485,-14904.210258032115,-14105.157745499344,-14096.954655284246,-14561.178035876517,-14905.171383043693,-14109.896315323867,-14015.929581633758,-14436.723522749367,-14876.047060018429,-14233.38970343944,-14024.535003249051,-14446.960621709899,-15006.223619726137,-14453.822607257678,-13971.941348545713,-14337.302963412163,-14815.674998244644,-14685.453735048026,-14289.179657599887,-14300.690805994369,-14812.858678443275,-14788.07059384234,-14078.156838197332,-14267.096134078043,-14689.052365905329,-14853.31533590738,-14164.56868226155,-14227.466491158784,-14643.857138616699,-14905.685473166166,-14136.047856336578,-14070.669003804804,-14557.892329441587,-15054.45868426069,-14210.09918571701,-14003.434956483241,-14315.93469571289,-14879.265711219992,-14483.662186105514,-14094.205390716243,-14415.690531216924,-14815.74205347801,-14406.079281101142,-13890.044556861469,-14159.383077547918,-14848.643821316222,-14753.090113769784,-13952.271813425043,-14073.26180616162,-14562.586195777201,-14835.568050809867,-14188.596807551005,-14287.16800059891,-14578.232416895917,-14819.363036079769,-14104.777765843603,-14143.870966895935,-14564.664908011546,-14978.775677535019,-14596.851420027187,-14343.650858837469,-14498.05670953473,-15036.5996404409,-14562.027402165819,-14159.18191184782,-14549.778646204311,-14950.76894173252,-14772.737297145999,-14170.044859653099,-14397.987949608321,-15004.748404592086,-14903.629112676277,-14141.993420361689,-14107.79525134507,-14413.544763749214,-14372.708126629368,-13492.697595679474,-13531.097892653692,-14200.264418156674,-14854.477626619057,-14300.914323438923,-14230.394569682428,-14493.519305410304,-14874.527141395467,-14346.042495494188,-14033.408645797808,-14367.969556804843,-14847.88386200474,-14395.551609462693,-14025.540831749538,-14399.28435078673,-14889.972196814084,-14572.376259848626,-13986.693499886216,-14273.10875333652,-14824.772158237954,-14765.428276709114,-13975.092944513912,-14148.386019275908,-14694.796764230343,-14895.940112583652,-14036.381427810364,-14099.703919852249,-14546.112960113642,-14819.675960502143,-14213.295485174118,-14102.252018720154,-14527.270439537817,-15071.60247225791,-14615.962161536476,-14430.465034301882,-14786.93065487512,-15312.464870508298,-14946.76797947502,-14540.077989110709,-15084.477077064166,-15725.25688710891,-15754.090637456256,-15613.185240410001,-15886.994109987512,-16404.548752850147,-16129.488185583137,-15237.564174838564,-15219.883944974417,-15437.746398180296,-15554.780132148282,-14834.718684520565,-14684.917293181097,-14913.799156403442,-15141.116397513915,-14355.877263054523,-14174.939891688811,-14672.266205819395,-14944.644563751766,-14227.466491158784,-14078.40270738634,-14466.29488066374,-14873.454257661613,-14536.278192553305,-14014.968456622179,-14206.925238004356,-14713.549877828345,-14569.001146435876,-13974.467095669163,-14071.048983460545,-14649.84740613072,-14789.724622932032,-14199.951493734301,-14351.205748463362,-14807.807184196376,-15072.921225180773,-14302.031910661688,-14234.507290662204,-14629.70848437649,-15019.83583209942,-14234.641401128936,-14037.431959799762,-14419.378569052049,-14944.175177118204,-14474.63208134557,-14108.756376356647,-14375.077411541632,-14936.620287492311,-14575.259634883361,-14096.686434350782,-14308.44686132036,-14753.358334703247,-14605.12156547565,-14015.259029300098,-14269.733639923768,-14807.985998152019,-14799.447631770092,-14041.164701123798,-14164.300461328086,-14668.33229879526,-14965.856369239853,-14150.75530418817,-14140.69701918328,-14707.760776014422,-15190.022014382126,-14334.64310582198,-14139.244155793687,-14550.046867137775,-14885.814772345397,-14334.21842267733,-13974.489447413618,-14252.791017626647,-14676.356575054715,-14309.519745054216,-13813.311018146398,-14190.51905757416,-14636.749283879912,-14516.20632603244,-14028.759482951104,-14223.33141843455,-14657.692868434533,-14729.710189069534,-14061.504788578128,-14080.995509743156,-14592.31401590276,-14922.538688485467,-14091.590236614971,-13908.976484415112,-14482.499895393838,-14833.489338575524,-14165.775676462135,-14051.982945440168,-14291.392480300961,-14820.480623302536,-14438.444607072426,-13932.646981793283,-14302.143669383964,-14820.03358841343,-14507.511497439325,-13944.940441243702,-14173.442324810307,-14706.66554053611,-14619.60549588269,-14071.965404983212,-14154.108065856466,-14645.578222939757,-14670.6121767297,-13955.557519859973,-14162.914653171856,-14599.466574128459,-14771.127971545216,-14133.70092316877,-14201.449060612806,-14554.763085217844,-14992.92433177523,-14286.095116865054,-14057.25795713162,-14458.695287548935,-14952.780598733498,-14440.18804313994,-14066.422172358296,-14391.662405927469,-14970.661994297743,-14532.634858207091,-14068.88086424838,-14249.81823561409,-14698.86478172121,-14689.00766241642,-14048.093741904944,-14251.136988536953,-14687.040708904351,-14692.606293273724,-14014.767290922082,-14129.31998125553,-14555.098361384675,-14830.40479784069,-13770.686241470128,-13458.789999340774,-13706.42497616112,-14142.641620950893,-13800.838744740338,-13666.862388475227,-14250.667601903393,-14782.25914028396,-14071.965404983212,-13753.721267428551,-14290.990148900766,-14860.646708088721,-14544.101303112664,-13979.853866082893,-14177.040955667611,-14714.421595862103,-14618.398501682104,-13978.423354437751,-14212.446118884816,-14688.225351360483,-14628.434434942537,-13935.887984739302,-14144.787388418603,-14534.199480318963,-14818.111338390272,-14070.221968915697,-14006.474793729163,-14448.659354288502,-14802.35335854928,-14206.746424048713,-13929.741255014093,-14348.881167040012,-14804.92380916164,-14239.514081420193,-13848.336201707865,-14200.756156534691,-14766.121180787228,-14486.187933228963,-13833.427588156175,-14137.41131274835,-14617.057397014785,-14458.270604404284,-13820.016541482992,-14017.91888689028,-14630.177871010052,-14829.778948995943,-13958.977336761634,-13879.896864878758,-14341.348629158572,-14733.174709460105,-13964.364107175365,-13789.573465534862,-14286.609206987527,-14868.84979830382,-14136.629001692416,-13794.312035359388,-14068.277367148086,-14526.465776737426,-14147.17902507532,-13746.032267335924,-13989.845095854414,-14449.307554877705,-14186.875723227946,-13587.223122980968,-13891.430365017697,-14423.357179565095,-14313.386596844985,-13635.994629382449,-13785.3042823439,-14400.826621154145,-14588.715385045456,-13830.20893695461,-13923.013379933045,-14338.9346407574,-14716.34384588526,-14029.430035284762,-13911.479879794108,-14256.143779294942,-14726.357427401237,-14060.1189804219,-13910.362292571343,-14245.370238467483,-14806.35432080678,-14316.515841068727,-13821.290590916944,-14094.27244594961,-14659.346897524227,-14398.904371130988,-13812.059320456901,-14144.22859480722,-14700.272941621894,-14502.638817148068,-13874.018356087014,-13979.362127704875,-14511.8253841192,-14749.62559337921,-13844.759922595016,-13854.639393644262,-14434.063665159187,-14819.921829691153,-13995.81301162398,-13806.471384343075,-14293.091212879564,-14752.911299814143,-14062.197692656244,-13770.552131003396,-14179.14201964641,-14784.427259496124,-14289.291416322163,-13774.173113605157,-14080.012032987122,-14655.52474922237,-14373.490437685305,-13601.505887687908,-13888.949321383157,-14458.695287548935,-14452.548557823726,-13771.937939159625,-13942.034714464513,-14332.966724987833,-14593.498658358892,-13872.610196186328,-13866.105838549835,-14346.780103061212,-14680.938682668053,-13874.152466553745,-13750.39085750471,-14214.234258441242,-14755.548805659868,-14187.210999394776,-13884.434269003186,-14101.201486730753,-14627.294495975317,-14185.154638904887,-13827.862003786804,-14066.377468869385,-14504.091680537664,-14278.808448172624,-13735.14696778619,-13974.064764268967,-14490.904151309032,-14492.334662954172,-13807.276047143467,-13951.824778535936,-14384.286330257217,-14546.180015347007,-13835.193375968145,-13847.665649374207,-14187.814496495068,-14610.709501589477,-14003.569066949973,-13885.03776610348,-14160.053629881577,-14666.8123801723,-14095.725309339203,-13826.587954352852,-14093.959521527235,-14631.586030910736,-14312.470175322316,-13833.874623045282,-13996.237694768632,-14583.909759987566,-14373.468085940849,-13699.294769679878,-13934.882156238815,-14490.926503053488,-14592.93986474751,-13804.906762231203,-13902.628588989806,-14386.297987258195,-14640.973763581964,-13845.542233650951,-13878.242835789066,-14305.138803140975,-14603.89221953061,-13885.194228314665,-13863.31187049292,-14220.716264333281,-14677.876493677675,-14047.222023871187,-13767.422886779654,-14198.878610000445,-14744.48469215449,-14213.854278785502,-13729.737845628006,-14063.516445579105,-14670.701583707523,-14395.506905973782,-13791.383956835743,-14005.53602046204,-14486.880837307077,-14523.180070302496,-13744.847624879792,-13657.407600570632,-13986.492334186118,-13951.891833769303,-12973.153647560317,-13007.57533402149,-13662.526150050897,-14386.677966913936,-13889.75398418355,-13745.473473724542,-14149.302440798574,-14717.48378485248,-14222.057369000599,-13892.235027818087,-14192.754232019692,-14687.823019960288,-14302.300131595151,-13756.515235485464,-14031.35228530792,-14664.75601968241,-14591.26348391336,-13830.007771254514,-13941.319458641943,-14460.706944549913,-14543.050771123264,-13859.377963468787,-14019.39410202433,-14461.891587006045,-14707.939589970065,-13921.493461310085,-13861.389620469765,-14384.666309912958,-14776.06770706984,-14107.728196111704,-13872.69960316415,-14110.142184512877,-14624.27701047385,-14120.915725340335,-13785.326634088355,-14089.757393569636,-14571.50454181487,-14223.53258413465,-13740.600793433285,-13936.446778350686,-14511.512459696825,-14410.482574758838,-13829.985419510058,-13961.771304818549,-14466.63015683057,-14541.195576333474,-13721.422996690631,-13861.16610302521,-14425.413540054982,-14677.295348321839,-13855.041725044457,-13768.67458446915,-14260.614128186004,-14589.564751334758,-13851.197224998145,-13678.932330481093,-13923.371007844331,-14422.28429583124,-13943.71109529866,-13583.535085145842,-13893.822001674414,-14452.682668290458,-14061.705954278226,-13491.110621823147,-13802.78334650795,-14267.699631178337,-14094.07128024951,-13481.81229612974,-13702.982807515004,-14261.463494475305,-14318.147518413964,-13631.300763046833,-13752.558976716875,-14104.666007121326,-14437.52818554976,-13850.012582542013,-13778.934035174136,-14205.740595548225,-14638.313905991783,-13997.645854669316,-13817.759015293004,-14169.530769530627,-14669.405182529115,-14158.690173469804,-13724.932220570116,-14037.722532477681,-14493.228732732385,-14191.14490641891,-13773.189636849123,-14070.132561937877,-14503.15290727054,-14498.101413023642,-13845.251660973032,-13932.42346434873,-14395.439850740417,-14493.027567032286,-13770.619186236763,-13959.267909439553,-14388.533161703726,-14519.11205281163,-13915.212621118144,-13872.409030486231,-14215.731825319746,-14695.6684822641,-14044.293945347543,-13769.501599013996,-14148.184853575809,-14688.404165316126,-14176.169237633854,-13691.717528309528,-13997.087061057933,-14500.560104913726,-14259.943575852345,-13782.376203820253,-13975.450572425196,-14543.631916479102,-14510.238410262873,-13699.071252235324,-13923.818042733437,-14464.015002729298,-14644.393580483626,-13887.295292293466,-13858.774466368493,-14290.006672144733,-14668.019374372885,-14031.039360885545,-13880.120382323312,-14220.380988166451,-14694.483839807968,-14091.992568015166,-13818.49662286003,-14152.386981533407,-14664.24192955994,-14201.627874568449,-13807.54426807693,-14078.961500997722,-14631.876603588655,-14399.977254864843,-13741.874842867237,-13977.126953259345,-14571.728059259423,-14502.43765144797,-13798.894142972726,-13987.587569664427,-14436.14237739353,-14589.296530401294,-13820.240058927544,-13953.702325070182,-14368.975385305332,-14648.32748750776,-13893.352615040854,-13836.713294591105,-14313.207782889342,-14805.192030095104,-14101.246190219665,-13787.91943644517,-14131.421045234329,-14638.13509203614,-14243.112712277498,-13817.557849592908,-14090.472649392206,-14588.536571089813,-14339.515786113237,-13734.722284641539,-13976.881084070335,-14518.039169077776,-14530.287925039283,-13800.391709851232,-13910.51875478253,-14349.484664140304,-14566.743620245888,-13857.388658212265,-13857.120437278802,-14250.309973992107,-14665.001888871418,-14057.190901898253,-13954.328173914932,-14198.364519877974,-14631.206051254994,-14058.844930987947,-13883.942530625169,-14194.14004017592,-14707.045520191852,-14187.23335113923,-13653.2725278464,-13953.165883203255,-14612.609399868179,-14372.708126629368,-13756.403476763187,-13908.41769080373,-14433.348409336617,-14433.348409336617,-13740.891366111204,-13920.912315954247,-14416.94222890642,-14586.681376300023,-13781.035099152936,-13760.605604720784,-14255.137950794453,-14667.639394717145,-13915.95022868517,-13763.064296610868,-14132.784501646103,-14738.114444984729,-14063.359983367918,-13727.905002582671,-14152.856368166968,-14730.6266105922,-14241.972773310277,-13804.862058742292,-14070.64665206035,-14555.724210229422,-14394.501077473293,-13761.276157054444,-13843.97761153908,-14373.065754540654,-14539.630954221602,-13926.187327645699,-14061.393029855852,-14406.61572296807,-14481.158790726518,-13561.675079068551,-13357.648355680509,-13399.870800956583,-13582.193980478523,-12986.609397722412,-13208.741034119254,-13855.26524248901,-14540.905003655555,-14003.949046605712,-13689.415298630633,-14041.902308690824,-14616.431548170036,-14197.67161579986,-13732.420054962642,-13939.576022574429,-14552.393800305583,-14426.821699955666,-13821.625867083772,-14026.032570127556,-14478.923616280988,-14458.270604404284,-13740.354924244277,-13913.111557139346,-14276.953253382833,-14570.319899358738,-13958.820874550447,-13867.31283275042,-14233.38970343944,-14644.460635716992,-13913.156260628255,-13655.172426125102,-14140.764074416647,-14786.21539905255,-14114.478422937205,-13684.050879961358,-14009.939314119734,-14566.363640590149,-14287.212704087819,-13670.461019332532,-13869.637414173772,-14477.269587191295,-14409.208525324884,-13721.825328090827,-13847.106855762822,-14433.437816314437,-14413.723577704857,-13640.464978273509,-13787.137125389234,-14330.172756930919,-14697.546028798346,-13857.321602978898,-13728.933182827615,-14255.316764750096,-14550.248032837873,-13702.826345303816,-13581.814000822784,-14091.366719170419,-14533.506576240849,-13931.395284103786,-13558.25526216689,-13801.01755869598,-14348.07650423962,-14058.554358310028,-13496.586799214698,-13719.970133301036,-14266.11265732201,-14156.61146123546,-13459.572310396708,-13684.497914850464,-14327.69171329638,-14362.98511779131,-13500.923037639028,-13675.937196724082,-14180.885455713924,-14453.643793302035,-13669.410487343132,-13648.690420233062,-14132.449225479273,-14619.404330182593,-14098.184001229287,-13710.224772718522,-13993.510781945084,-14541.799073433767,-14009.738148419638,-13717.645551877684,-14085.93524526778,-14605.188620709017,-14256.00966882821,-13718.38315944471,-13986.112354530378,-14503.622293904102,-14346.98126876131,-13698.981845257504,-13952.204758191678,-14439.606897784102,-14571.795114492788,-13726.228621748522,-13893.374966785308,-14413.65652247149,-14601.098251473697,-13862.775428625993,-13810.762919278493,-14222.839680056535,-14633.150653022607,-13923.75098750007,-13617.822661140282,-14079.564998098016,-14613.861097557676,-14044.361000580908,-13667.577644297797,-13984.123049273856,-14646.405237484603,-14370.115324272552,-13712.214077975044,-13861.099047791846,-14412.650693971002,-14295.169925113909,-13536.685828767519,-13813.06514895739,-14325.009503961743,-14468.306537664717,-13766.506465256985,-13881.550893968451,-14322.55081207166,-14588.134239689618,-13725.178089759123,-13686.621330573718,-14245.504348934217,-14670.142790096139,-13994.024872067557,-13760.717363443062,-14022.34453229243,-14539.96623038843,-14090.830277303492,-13706.402624416665,-14076.994547485656,-14608.250809699395,-14246.219604756787,-13676.026603701903,-14014.119090332877,-14537.909869898544,-14404.894638645012,-13684.386156128188,-13844.625812128284,-14351.921004285932,-14588.693033301,-13781.571541019863,-13883.36138526933,-14296.578085014593,-14564.97783243392,-13789.886389957237,-13717.399682688676,-14253.05923856011,-14760.287375484393,-14055.872148975392,-13695.226752189012,-14049.278384361076,-14584.960291976964,-14140.071170338533,-13769.859226925282,-14016.644837456328,-14613.145841735106,-14376.977309820333,-13679.155847925646,-13879.338071267375,-14494.815706588712,-14467.792447542244,-13751.419037749654,-13861.948414081147,-14443.831377486156,-14690.214656617005,-13797.620093538773,-13826.275029930477,-14310.97260844381,-14525.325837770206,-13827.280858430966,-13732.263592751455,-14181.08662141402,-14693.835639218765,-13988.302825486999,-13674.596092056763,-14065.25988164662,-14630.267277987872,-14169.910749186367,-13663.42021982911,-13928.333095113408,-14526.599887204158,-14222.839680056535,-13576.226064708957,-13863.624794915295,-14455.8119125142,-14463.366802140094,-13707.967246528537,-13871.64907117475,-14373.55749291867,-14539.49684375487,-13694.824420788816,-13793.954407448104,-14338.442902379384,-14745.557575888346,-13959.156150717277,-13829.40427415422,-14187.076888928044,-14642.739551393934,-14075.273463162597,-13752.62603195024,-14071.697184049748,-14610.88831554512,-14129.029408577611,-13678.731164780995,-13935.776226017026,-14365.354402703573,-13908.462394292641,-13195.195876979336,-13326.601782632088,-13824.375131651776,-13864.675326904695,-13425.955286735927,-13813.869811757782,-14373.781010363224,-14501.096546780653,-13742.500691711986,-13789.1040789013,-14216.916467775878,-14582.769821020345,-13892.100917351356,-13815.948523992125,-14170.201321864286,-14682.793877457843,-14014.2084973107,-13726.295676981888,-13915.525545540519,-14558.026439908319,-14202.007854224188,-13740.511386455464,-14055.805093742025,-14540.569727488724,-14241.883366332457,-13619.275524529878,-13870.307966507431,-14393.159972805975,-14335.559527344649,-13655.954737181037,-13796.346044104821,-14353.709143842358,-14533.886555896588,-13703.1839732151,-13670.013984443425,-14079.006204486634,-14554.427809051014,-13833.539346878451,-13647.08109463228,-14148.587184976004,-14657.715220178989,-13987.140534775323,-13518.804433203273,-13892.615007473829,-14393.22702803934,-13973.48361891313,-13519.00559890337,-13847.397428440741,-14403.508830488781,-14183.098278414998,-13504.00757837386,-13775.737735717028,-14329.636315063992,-14355.117303743042,-13578.595349621219,-13634.206489826023,-14086.047003990056,-14267.945500367345,-13489.434240989,-13492.854057890661,-13949.790769790503,-14402.480650243837,-13613.240553526944,-13430.85031877164,-13879.829809645393,-14335.26895466673,-13729.514328183453,-13356.776637646752,-13740.265517266454,-14286.989186643266,-13890.55864698394,-13468.177732012002,-13810.338236133843,-14287.927959910388,-14076.88278876338,-13573.186227463035,-13841.205995226623,-14317.8792974805,-14451.408618856505,-13684.52026659492,-13746.47930222503,-14183.768830748659,-14412.449528270905,-13695.562028355842,-13757.565767474864,-14192.486011086228,-14545.375352546616,-13780.453953797098,-13559.261090667378,-13924.175670644721,-14513.278247508795,-13987.140534775323,-13622.293010031344,-13925.159147400755,-14475.749668568335,-14117.026521805112,-13591.469954427475,-13910.474051293619,-14460.43872361645,-14260.211796785808,-13561.630375579642,-13754.704744184584,-14339.940469257888,-14378.296062743195,-13593.12398351717,-13649.584490011275,-14195.123516931953,-14420.943191163922,-13597.862553341694,-13650.009173155926,-14102.140259997877,-14501.610636903124,-13738.969116088048,-13449.312859691723,-13886.043594603969,-14493.876933321588,-13892.74911794056,-13554.25429990939,-13863.13305653728,-14390.924798360444,-14114.254905492653,-13562.457390124488,-13867.782219383982,-14373.199865007386,-14197.470450099761,-13581.232855466946,-13797.083651671846,-14336.36419014504,-14327.714065040836,-13607.227934268467,-13745.272308024445,-14273.801657414635,-14431.560269780191,-13584.295044457323,-13541.782026503328,-14052.45233207373,-14598.505449116881,-13883.65195794725,-13591.78287884985,-14020.332875291453,-14542.670791467524,-13893.799649929959,-13527.67807575203,-13878.801629400448,-14436.455301815904,-14157.639641480404,-13647.349315565743,-13887.98819637158,-14318.460442836338,-14120.312228240042,-13546.095913183202,-13745.115845813258,-14309.743262498769,-14408.247400313307,-13584.317396201777,-13620.54957396383,-14115.84187934898,-14415.51171726128,-13594.018053295382,-13607.227934268467,-14121.139242784888,-14409.99083638082,-13777.525875273452,-13672.316214122322,-14008.955837363701,-14493.474601921393,-13912.999798417068,-13482.102868807659,-13875.001832843047,-14447.206490898907,-14026.814881183493,-13484.069822319725,-13790.601645779807,-14377.893731343,-14231.847433072024,-13499.470174249433,-13691.158734698145,-14240.117578520487,-14338.509957612749,-13642.878966674682,-13721.266534479444,-14173.911711443867,-14529.103282583152,-13675.736031023984,-13549.49337834041,-14061.482436833674,-14603.825164297245,-13845.45282667313,-13659.240443615967,-13971.941348545713,-14368.12601901603,-13738.879709110226,-13028.407159853836,-13175.481638369756,-13692.656301576651,-13318.10811973907,-12931.89232729582,-13437.667600830508,-14176.392755078406,-14133.991495846689,-13452.196234726458,-13678.84292350327,-14224.516060890683,-14395.506905973782,-13568.380602405145,-13690.979920742504,-14135.17613830282,-14505.388081716072,-13652.870196446205,-13505.683959208007,-13961.90541528528,-14494.659244377524,-13792.412137080686,-13526.269915851346,-13950.61778433535,-14495.173334499996,-13990.15802027679,-13482.974586841416,-13803.476250586064,-14469.9158632655,-14155.89620541289,-13453.537339393777,-13762.572558232852,-14338.688771568392,-14268.72781142328,-13442.294411932757,-13600.075376042769,-14197.984540222233,-14292.599474501549,-13446.13891197907,-13602.176440021569,-13992.326139488952,-14322.640219049481,-13537.82576773474,-13433.644286828552,-14022.925677648269,-14435.896508204522,-13628.104463589725,-13426.827004769684,-13746.568709202851,-14372.886940585011,-13906.98717915859,-13345.466654952366,-13626.182213566568,-14381.60412092258,-14069.886692748869,-13350.249928265803,-13513.887049423105,-14089.913855780824,-14042.662268002305,-13393.679367742465,-13347.83593986463,-13791.741584747027,-14123.799100375069,-13256.171435853415,-13327.07116926565,-13784.29845384341,-14213.496650874216,-13429.75508329333,-13362.74455341632,-13679.871103748215,-14212.714339818282,-13625.645771699641,-13365.203245306402,-13725.33455197031,-14330.038646464187,-13837.897937047237,-13368.064268596681,-13718.830194333816,-14251.896947848434,-14066.153951424832,-13531.656686265074,-13702.08873773679,-14229.992238282233,-14182.874760970446,-13490.86475263414,-13697.394871401177,-14159.18191184782,-14400.826621154145,-13626.115158333203,-13548.264032395367,-14005.111337317388,-14465.803142285722,-13734.968153830547,-13514.736415712407,-14023.909154404302,-14396.46803098536,-13745.786398146916,-13460.555787152744,-13800.570523806873,-14473.894473778544,-13980.435011438729,-13536.372904345144,-13824.889221774249,-14390.768336149256,-14175.968071933756,-13430.246821671346,-13729.357865972266,-14402.212429310373,-14297.069823392609,-13475.732621637897,-13683.89441775017,-14194.832944254034,-14402.458298499383,-13653.116065635213,-13545.805340505283,-13956.362182660365,-14238.262383730696,-13576.628396109152,-13539.613907291165,-14041.768198224092,-14512.339474241671,-13852.091294776357,-13471.99988031386,-13872.811361886426,-14386.052118069187,-13962.039525752012,-13475.687918148986,-13799.855267984303,-14447.698229276924,-14243.224470999774,-13502.845287662183,-13663.979013440492,-14255.093247305544,-14315.867640479522,-13557.025916221848,-13739.52790969943,-14263.810427643113,-14376.306757486673,-13555.30483189879,-13576.360175175689,-14033.229831842165,-14529.617372705625,-13729.827252605826,-13480.202970528957,-13874.241873531566,-14373.401030707482,-13793.552076047907,-13477.677223405508,-13849.722009864094,-14488.020776274298,-14033.855680686913,-13383.844600182128,-13658.41342907112,-14285.73748895377,-13997.847020369414,-13424.65888555752,-13757.968098875059,-14279.903683650933,-14210.501517117205,-13525.91228794006,-13571.331032673244,-14018.768253179582,-14327.378788874006,-13549.471026595955,-13564.06671572527,-13983.00546205109,-14336.475948867315,-13534.405950833077,-13433.174900194992,-13890.446888261664,-14386.052118069187,-13817.937829248647,-13460.533435408288,-13765.72415420105,-14309.720910754313,-13875.940606110169,-13332.435587934922,-13695.360862655743,-14247.516005935195,-14018.567087479483,-13381.274149569768,-13589.145373004125,-14116.870059593924,-14152.297574555585,-13363.415105749978,-13529.555622286276,-14040.292983090041,-14289.783154700179,-13538.093988668203,-13493.882238135606,-13936.312667883954,-14366.069658526143,-13560.892768012616,-13409.973789450383,-13880.36625151232,-14433.169595380974,-13801.35283486281,-13430.336228649168,-13836.959163780113,-14429.95094417941,-14066.869207247402,-13421.79786226724,-13712.750519841973,-14292.621826246004,-14168.100257885488,-13469.764705868329,-13697.439574890088,-14157.058496124566,-14118.32292298352,-13250.427037528401,-13155.968565460273,-13454.789037083274,-13547.235852150423,-12680.301091706884,-12841.479520974102,-13611.899448859627,-14185.579322049538,-13589.88298057115,-13437.622897341598,-13824.822166540882,-14377.469048198349,-13753.564805217364,-13407.962132449406,-13812.841631512838,-14407.75566193529,-13954.037601237012,-13434.381894395578,-13798.670625528173,-14427.84988020061,-14150.710600699258,-13401.524830046277,-13718.249048977978,-14189.446173840306,-14276.305052793628,-13488.026081088316,-13580.182323477546,-14038.706009233716,-14322.819033005124,-13468.647118645564,-13452.173882982002,-13989.487467943129,-14405.118156089564,-13671.04216468837,-13507.785023186807,-13812.64046581274,-14316.895820724467,-13700.747633069472,-13335.453073436389,-13710.314179696345,-14358.157140988964,-13948.76258954556,-13389.276074084768,-13694.243275432978,-14245.750218123225,-14102.07320476451,-13396.31687358819,-13571.219273950968,-14000.059843070489,-14159.628946736926,-13486.416755487533,-13577.634224609641,-13993.309616244987,-14261.77641889768,-13444.618993356109,-13362.297518527213,-13804.392672108732,-14153.906900156368,-13445.937746278973,-13279.037270431194,-13675.825438001804,-14195.659958798882,-13607.719672646484,-13135.650829750399,-13467.373069211611,-14086.225817945699,-13691.09167946478,-13078.586826156,-13495.849191647672,-14141.188757561298,-14003.39025299433,-13259.077162632604,-13427.22933616988,-13917.984237430603,-14130.594030689483,-13353.44622772291,-13445.960098023426,-13919.906487453758,-14286.944483154355,-13483.354566497155,-13477.18548502749,-13945.812159277459,-14390.500115215793,-13649.137455122169,-13441.579156110187,-13838.613192869807,-14385.493324457804,-13820.843556027838,-13455.571348139209,-13778.263482840477,-14280.998919129244,-13970.823761322948,-13338.336448471124,-13698.400699901666,-14381.8946936005,-14122.256830007653,-13425.396493124545,-13665.945966952559,-14185.445211582806,-14180.885455713924,-13404.341149847645,-13583.602140379207,-14058.666117032304,-14442.400865841017,-13514.892877923594,-13440.282754931779,-13943.33111564292,-14417.23280158434,-13716.125633254724,-13489.613054944642,-13791.272198113465,-14379.413649965962,-13819.368340893787,-13418.288638387758,-13706.76025232795,-14339.69460006888,-13869.995042085058,-13227.09181631706,-13647.684591732574,-14186.607502294482,-14099.41334717433,-13339.83401534963,-13574.683794341541,-14124.871984108924,-14159.472484525739,-13445.893042790061,-13489.166020055536,-13963.470037397152,-14301.383710072483,-13514.91522966805,-13468.691822134475,-13893.553780740951,-14391.7965163942,-13674.283167634389,-13388.27024558428,-13768.898101913705,-14447.899394977021,-13903.209734345644,-13420.859089000118,-13619.3649315077,-14238.977639553266,-14009.67109318627,-13398.328530589168,-13741.42780797813,-14199.482107100739,-14053.97225069669,-13334.87192808055,-13594.35332946221,-14081.107268465432,-14263.586910198559,-13523.386540816611,-13550.119227185158,-13935.66446729475,-14337.83940527909,-13629.154995579123,-13513.618828489642,-13873.41485898672,-14385.448620968893,-13642.02960038538,-13380.894169914029,-13812.618114068284,-14325.12126268402,-13764.919491400658,-13376.960262889894,-13715.365673943243,-14301.003730416744,-13978.199836993199,-13337.241212992814,-13623.03061759837,-14228.718188848281,-14142.75337967317,-13364.68915518393,-13636.08403636027,-14122.525050941116,-14263.54220670965,-13439.70160957594,-13474.793848370773,-13971.0472787675,-14335.425416877917,-13512.121261611137,-13350.585204432631,-13743.841796379304,-14334.799568033168,-13727.52502292693,-13379.061326868694,-13709.688330851595,-14341.192166947385,-13871.93964385267,-13364.577396461655,-13676.160714168635,-14164.345164816996,-13957.546825116495,-13436.505310118833,-13602.131736532658,-14175.588092278016,-14098.385166929385,-13293.543552582689,-13517.977418658427,-14076.838085274469,-14206.455851370794,-13313.905991781474,-13335.87775658104,-13827.414968897698,-14273.15345682543,-13526.024046662336,-13358.676535925453,-13682.41920261612,-14285.603378487038,-13648.064571388313,-13334.089617024616,-13677.747688024961,-14288.598512244049,-13749.541491215408,-13228.589383195565,-13587.290178214334,-14151.492911755195,-13948.695534312194,-13262.564034767633,-13516.569258757741,-14152.498740255684,-14133.186833046298,-13299.466764863344,-13578.081259498747,-14096.082937250489,-14271.678241691381,-13420.590868066654,-13373.987480877338,-13918.252458364066,-14359.431190422916,-13586.865495069684,-13402.597713780131,-13760.15856983168,-14197.537505333126,-13407.336283604656,-13030.53057557709,-13237.127749577494,-13591.514657916387,-12867.608710242357,-12229.332295576609,-12875.208303357162,-13852.605384898829,-13742.187767289612,-13106.30298928058,-13512.121261611137,-14120.736911384693,-14085.667024334316,-13244.257956058736,-13438.427560141989,-14010.67692168676,-14191.211961652276,-13417.886306987562,-13497.86084864865,-13967.292185699009,-14290.274893078196,-13348.819416620663,-13252.684563718387,-13670.975109455003,-14300.556695527637,-13629.154995579123,-13334.581355402632,-13672.047993188859,-14289.090250622065,-13766.640575723717,-13173.201760435315,-13529.756787986373,-14087.11988772391,-13826.811471797404,-13314.06245399266,-13568.045326238314,-14046.640878515349,-13947.80146453398,-13223.202612781837,-13488.651929933063,-13954.730505315127,-14195.838772754523,-13348.282974753736,-13301.187849186403,-13848.000925541035,-14221.319761433573,-13319.091596495104,-13261.759371967242,-13655.060667402824,-14203.795993780614,-13534.24948862189,-13236.233679799281,-13587.491343914431,-14155.337411801507,-13665.968318697014,-13167.591472577033,-13506.130994097113,-14072.45714336123,-13808.930076233159,-13090.388547228402,-13371.059402353694,-13925.18149914521,-13889.441059761175,-13033.704523289744,-13186.545751875134,-13668.114086164724,-13842.748265594038,-13085.202942514772,-13098.345768254492,-13595.135640518147,-14023.752692193115,-13118.149413841893,-13004.781365964576,-13490.14949681157,-14056.900329220336,-13474.100944292659,-13172.08417321255,-13574.192055963524,-14166.334470073518,-13709.151888984668,-13217.480566201279,-13460.265214474824,-14065.706916535726,-13903.61206574584,-13186.232827452759,-13442.830853799684,-14080.749640554148,-14094.853591305446,-13182.678900084366,-13373.048707610216,-13876.387640999275,-14119.284047995097,-13323.696055852897,-13281.205389643359,-13847.285669718465,-14323.042550449676,-13477.85603736115,-13303.646541076487,-13686.062536962336,-14126.682475409803,-13553.471988853455,-13192.267798455692,-13640.397923040144,-14172.9952899212,-13766.238244323522,-13255.389124797479,-13549.53808182932,-13991.566180177473,-13877.169952055212,-13276.042136674183,-13399.244952111836,-13916.218449618633,-14063.896425234847,-13235.71958967681,-13375.485047755845,-13875.135943309779,-14044.696276747738,-13141.574042031056,-13235.786644910175,-13762.796075677405,-14221.208002711297,-13345.332544485635,-13110.393358515903,-13665.2754146189,-14198.319816389063,-13580.048213010814,-13221.772101136698,-13601.304721987812,-14173.218807365753,-13711.320008196833,-13222.643819170455,-13526.851061207184,-14133.879737124413,-13916.576077529917,-13122.776224944142,-13375.686213455941,-14045.92562269278,-14093.199562215754,-13146.312611855581,-13374.926254144462,-13953.590566347906,-14210.14388920592,-13319.002189517283,-13309.279180679225,-13727.390912460198,-14186.696909272303,-13464.780266854796,-13241.195767068359,-13676.98772871348,-14232.562688894594,-13589.435945682044,-13104.157221812871,-13551.259166152378,-14196.62108381046,-13804.459727342097,-13210.417414953401,-13483.153400797059,-14017.225982812166,-13882.020280602013,-13199.576818892578,-13439.254574686835,-13966.778095576537,-14058.509654821117,-13199.33094970357,-13298.215067173847,-13894.492554008075,-14142.41810350634,-13342.40446596199,-13253.824502685608,-13741.807787633872,-14213.943685763323,-13467.976566311905,-13255.76910445322,-13608.814908124794,-14217.162336964886,-13658.480484304488,-13287.419174601935,-13526.225212362435,-14160.411257792863,-13752.000183105492,-13136.947230928807,-13535.456482822477,-14119.351103228462,-13868.899806606747,-13156.37089686047,-13344.885509596528,-14008.53115421905,-14133.924440613324,-13268.509598792745,-13364.64445169502,-13808.907724488703,-14070.69135554926,-13268.934281937396,-13138.221280362759,-13682.84388576077,-14148.52012974264,-13474.659737904041,-13268.174322625915,-13584.898541557615,-14057.481474576172,-13515.474023279432,-13168.507894099701,-13479.465362961933,-14065.25988164662,-13711.990560530492,-13115.35544578498,-13487.087307821192,-14135.55611795856,-13910.1834786157,-13076.128134265917,-13348.372381731557,-13954.015249492557,-14015.303732789009,-13212.56318242111,-13240.301697290148,-13743.90885161267,-14090.629111603394,-13366.142018573526,-13262.474627789812,-13694.37738589971,-14192.888342486423,-13453.626746371598,-13084.979425070218,-13422.311952389713,-13854.728800622082,-13036.00675296864,-12417.489280401383,-12731.33012429835,-13541.647916036596,-13467.194255255969,-13020.226421383193,-13349.378210232046,-13888.390527771775,-13827.97376250908,-13106.682968936322,-13375.105068100103,-13865.36823098281,-14027.217212583688,-13233.484415231278,-13244.302659547648,-13748.982697604026,-14083.029518488589,-13291.800116515175,-13203.667188127898,-13712.035264019403,-14105.113042010433,-13428.503385603832,-13248.705953205343,-13548.196977162002,-14059.873111232891,-13566.234834937435,-13125.033751134128,-13428.413978626011,-14038.43778830025,-13720.595982145785,-13094.344805996992,-13368.131323830048,-14016.376616522863,-13900.147545355267,-13089.494477450191,-13372.735783187842,-13808.505393088508,-13961.950118774192,-13173.42527787987,-13179.348490160524,-13695.1820487001,-13957.680935583227,-13238.357095522535,-13110.058082349073,-13583.803306079306,-14083.253035933143,-13333.776692602241,-13073.91531156484,-13475.732621637897,-13985.799430108003,-13452.352696937645,-13054.983384011197,-13397.277998599768,-13999.143421547822,-13682.262740404933,-12988.866923912397,-13335.900108325495,-13851.912480820714,-13707.14023198369,-12915.21792593216,-13056.793875312076,-13583.825657823762,-13788.992320179024,-12925.767949315066,-12979.412136007802,-13520.950200670983,-13887.049423104458,-13028.876546487398,-12922.057559735485,-13411.828984240174,-13883.160219569234,-13249.644726472465,-12999.551057762035,-13375.46269601139,-14035.085026631956,-13508.299113309278,-13119.043483620106,-13456.800694084252,-13975.517627658563,-13713.845755320282,-13156.12502767146,-13400.966036434895,-13909.401167559763,-13933.004609704569,-13152.436989836335,-13398.060309655704,-13827.16909970869,-13999.210476781187,-13192.714833344799,-13200.962627048806,-13710.180069229613,-14174.0458219106,-13362.632794694042,-13201.856696827019,-13648.802178955339,-14107.705844367249,-13443.344943922157,-13137.483672795734,-13536.81993923425,-14058.420247843296,-13554.366058631667,-13032.206956411239,-13357.558948702688,-14034.213308598199,-13856.762809367516,-13192.983054278262,-13409.07971967217,-13907.367158814332,-13873.034879330979,-13114.863707406963,-13238.826482156097,-13758.616299464262,-13987.565217919973,-13122.239783077215,-13066.986270783696,-13489.322482266723,-14007.681787929749,-13169.469019111279,-13125.257268578682,-13557.91998600006,-14065.550454324539,-13361.962242360383,-13115.869535907452,-13462.343926709167,-14111.818565347025,-13589.055966026302,-13101.720881667243,-13407.403338838023,-13976.545807903507,-13708.280170950911,-13147.586661289533,-13408.118594660593,-13883.36138526933,-13918.788900230993,-13152.057010180595,-13244.593232225567,-13763.1984070776,-14017.047168856523,-13187.953911775818,-13181.270740183681,-13622.136547820157,-14057.056791431522,-13351.792198633219,-13212.585534165566,-13593.772184106372,-14108.890486823379,-13446.228318956892,-13128.40886454688,-13559.484608111932,-14203.058386213588,-13626.182213566568,-13064.237006215693,-13318.599858117088,-13953.90349077028,-13785.483096299542,-13015.86783121441,-13232.85856638653,-13877.326414266397,-13831.862966044304,-13076.530465666112,-13266.140313880482,-13672.249158888955,-13983.206627751188,-13132.163957615372,-13138.042466407118,-13691.672824820618,-14090.718518581214,-13239.80995891213,-13085.426459959324,-13517.86565993615,-14029.698256218226,-13421.104958189126,-13075.658747632355,-13408.051539427226,-13993.644892411816,-13599.874210342672,-13142.468111809269,-13412.477184829377,-13920.889964209791,-13696.165525456134,-13037.571375080512,-13311.469651635845,-13881.886170135282,-13914.117385639835,-13218.24052551276,-13287.329767624113,-13716.706778610562,-13984.972415563157,-13152.12406541396,-13064.460523660246,-13389.074908384671,-13642.789559696861,-12649.36627738074,-12273.968729253857,-12817.026712539997,-13624.751701921428,-13277.763220997242,-12986.631749466867,-13408.185649893958,-14017.293038045531,-13539.368038102155,-13027.066055186517,-13296.114003195049,-13845.653992373229,-13708.414281417643,-13008.871735199898,-13342.4491694509,-13893.710242952138,-13892.905580151748,-13086.700509393277,-13203.913057316908,-13731.213060762057,-14038.482491789162,-13188.691519342843,-13118.55174524209,-13553.58374757573,-14034.213308598199,-13321.997323274294,-13123.424425533347,-13476.269063504824,-13994.896590101313,-13348.104160798093,-12974.405345249814,-13354.742628901318,-13958.016211750057,-13578.595349621219,-13046.959107751742,-13318.599858117088,-13892.79382142947,-13755.420000007154,-13025.903764474842,-13193.273626956181,-13680.27343514841,-13838.926117292182,-13009.676398000289,-12992.063223369507,-13599.941265576037,-14041.455273801717,-13099.351596754981,-13068.72970685121,-13445.66952534551,-13880.0756788344,-13146.98316418924,-12920.93997251272,-13408.543277805244,-14017.091872345432,-13319.628038362032,-12853.057724601953,-13178.297958171124,-13802.716291274583,-13386.750326961319,-12721.696522438113,-13047.6296600854,-13624.46112924351,-13502.4876597509,-12776.882979498265,-12897.35888211237,-13556.645936566109,-13671.623310044208,-12861.372573539325,-12906.83602176142,-13506.153345841569,-13858.618004157306,-12987.056432611518,-12919.084777722928,-13384.157524604503,-13916.173746129722,-13256.90904342044,-13035.984401224185,-13382.011757136794,-13930.769435259037,-13438.494615375355,-13086.25347450417,-13348.618250920565,-14013.58264846595,-13673.456153089543,-12918.011893989074,-13234.28907803167,-13886.13300158179,-13782.845590453815,-12973.108944071406,-13151.118236913471,-13839.909594048215,-13967.806275821482,-13055.944509022775,-13102.458489234268,-13660.112161649724,-14007.413566996285,-13197.341644447048,-13106.660617191867,-13565.854855281694,-14024.982038138156,-13345.489006696822,-13096.937608353808,-13398.440289311444,-14002.764404149582,-13495.849191647672,-13087.281654749115,-13282.322976866124,-13895.744251697572,-13648.243385343956,-12950.220757749172,-13227.181223294881,-13854.818207599905,-13776.989433406525,-12858.466846760137,-13078.564474411545,-13664.671917518606,-13769.926282158647,-12956.680411896756,-13156.572062560566,-13727.256801993466,-14046.417361070797,-13124.385550544925,-13060.280747447105,-13557.49530285541,-14063.672907790293,-13238.982944367284,-12935.826234319955,-13398.596751522631,-14062.30945137852,-13496.922075381528,-12941.570632644967,-13272.510561050245,-13909.490574537585,-13557.785875533329,-12991.593836735945,-13243.38623802498,-13900.70633896665,-13839.127282992278,-12983.99424362114,-13107.01824510315,-13728.352037471777,-13909.065891392935,-12987.52581924508,-13061.845369558976,-13636.866347416204,-14004.217267539176,-13214.619542911,-13072.976538297718,-13499.514877738344,-13993.421374967264,-13246.29196480417,-12942.241184978628,-13352.30628875569,-13958.038563494512,-13381.74353620333,-12911.03814971902,-13204.494202672746,-13805.644369798229,-13514.736415712407,-12932.562879629479,-13258.875996932507,-13873.325452008898,-13713.2869617089,-12942.79997859001,-13110.728634682731,-13618.292047773844,-13826.163271208201,-12949.729019371156,-13028.29540113156,-13574.750849574906,-14017.382445023351,-13106.571210214044,-12994.946598404242,-13485.835610131695,-13981.977281806146,-13243.609755469532,-13013.833822468976,-13377.720222201375,-13985.128877774345,-13412.208963895913,-12890.519248309047,-13293.63295956051,-13928.623667791328,-13672.651490289152,-12981.021461608585,-13253.936261407884,-13875.0241845875,-13852.73949536556,-13102.190268300805,-13129.12412036945,-13599.002492308915,-13708.52604013992,-12638.391570853182,-12300.47789817785,-12641.319649376828,-13034.7774070236,-12465.389068769106,-12718.544926469915,-13297.209238673358,-13791.853343469304,-13196.46992641329,-12791.72453781659,-13229.662266929421,-13884.926007381202,-13375.507399500299,-12885.467754062147,-13166.026850465161,-13764.137180344724,-13529.041532163803,-12912.021626475052,-13256.95374690935,-13757.565767474864,-13781.593892764318,-12882.584379027412,-12986.341176788948,-13546.766465516863,-13793.954407448104,-12977.981624362663,-13051.317697920525,-13529.242697863901,-13831.97472476658,-12982.496676742636,-12943.314068712481,-13320.455052906878,-13798.87179122827,-13233.372656509002,-12912.781585786532,-13365.136190073037,-13879.293367778466,-13345.01962006326,-12809.270657214005,-13174.31934765808,-13790.847514968815,-13461.80748484224,-12793.53502911747,-13100.044500833095,-13674.596092056763,-13646.902280676637,-12836.87506161631,-12988.531647745569,-13449.290507947268,-13694.131516710702,-12853.951794380164,-13005.518973531602,-13497.346758526179,-13803.744471519527,-13037.01258146913,-12788.170610448196,-13163.814027764087,-13711.81174657485,-13014.52672654709,-12673.50616139247,-13036.073808202007,-13615.766300650395,-13200.962627048806,-12555.95833730201,-12799.190020464663,-13483.309863008246,-13454.163188238525,-12713.716949667567,-12831.44358771367,-13443.836682300172,-13519.050302392281,-12732.335952798838,-12872.704907978166,-13429.106882704125,-13718.986656545003,-12868.346317809383,-12773.329052129871,-13356.441361479923,-13941.252403408576,-13131.06872213706,-12912.781585786532,-13376.066193111683,-13904.148507612766,-13271.05769766065,-12853.393000768781,-13247.588365982578,-13837.339143435855,-13407.403338838023,-12867.251082331071,-13185.674033841377,-13800.72698601806,-13611.564172692797,-12843.245308786072,-13020.494642316657,-13568.537064616332,-13691.650473076163,-12927.08670223793,-13025.277915630093,-13511.96479939995,-13797.553038305407,-12939.626030877356,-13010.883392200874,-13398.79791722273,-13767.400535035198,-13050.021296742118,-12857.528073493013,-13290.838991503597,-13861.903710592236,-13292.023633959727,-12861.461980517148,-13128.721788969255,-13768.898101913705,-13359.771771403763,-12725.786891673433,-12888.6417017748,-13629.22205081249,-13454.09613300516,-12706.966722842066,-12979.18861856325,-13624.50583273242,-13723.322894969333,-12926.214984204173,-12957.172150274773,-13492.362319512644,-13805.130279675757,-12937.212042476183,-12816.959657306632,-13248.035400871684,-13795.16140164869,-13053.239947943683,-12899.92933272473,-13307.02165448924,-13864.608271671328,-13198.794507836641,-12784.10259295733,-13156.12502767146,-13828.35374216482,-13458.18650224048,-12828.761378379033,-13107.331169525525,-13666.124780908202,-13611.050082570326,-12836.271564516017,-12962.08953405494,-13659.933347694081,-13801.598704051818,-12865.485294519103,-12935.155681986294,-13506.62273247513,-13769.948633903103,-12906.70191129469,-12893.64849253279,-13464.534397665788,-13816.082634458857,-13041.34881989346,-12777.799401020933,-13149.218338634771,-13790.176962635156,-13239.318220534113,-12790.137563960263,-13150.604146791,-13835.707466090616,-13451.3245166927,-12755.022973420975,-13063.387639926392,-13652.870196446205,-13589.88298057115,-12832.49411970307,-13027.468386586714,-13642.476635274486,-13644.4212370421,-12750.954955930109,-12959.027345064564,-13423.586001823665,-13739.974944588535,-12923.577478358446,-12870.916768421743,-13362.83396039414,-13822.966971751091,-13074.45175343177,-12801.425194910193,-13169.759591789198,-13828.174928209179,-13245.755522937241,-12770.400973606227,-13087.616930915945,-13685.459039862042,-13287.195657157381,-12713.314618267372,-13074.563512154045,-13686.218999173523,-13472.513970436332,-12771.540912573448,-13032.072845944507,-13579.556474632798,-13674.953719968049,-12844.385247753293,-12937.167338987272,-13581.188151978035,-13940.80536851947,-13054.670459588822,-12933.233431963139,-13378.167257090481,-13932.222298648632,-13115.623666718444,-12821.20648875314,-13310.597933602088,-13908.283580336998,-13343.678515395943,-12797.468936141604,-13214.597191166544,-13769.658061225184,-13305.792308544196,-12503.14116515412,-12575.806686378322,-12892.575608798936,-12628.087416659286,-11954.070562609502,-12504.035234932333,-13240.636973456976,-13506.980360386415,-12700.507068694482,-12914.726187554144,-13371.104105842604,-13787.15947713369,-12971.030231837063,-12838.819663383922,-13276.220950629826,-13853.87943433278,-13075.167009254339,-12742.237775592539,-13270.81182847164,-13873.325452008898,-13279.05962217565,-12745.769351216479,-13043.91927050582,-13629.624382212685,-13401.122498646082,-12845.078151831407,-13042.712276305232,-13562.792666291318,-13514.892877923594,-12781.688604556157,-12937.100283753907,-13475.732621637897,-13615.721597161484,-12847.82741639941,-12883.366690083349,-13427.676371058986,-13697.707795823551,-12895.436632089215,-12816.512622417526,-13275.10336340706,-13721.422996690631,-12968.973871347174,-12732.492415010025,-13140.545861786111,-13749.697953426596,-13218.128766790482,-12680.681071362624,-13060.258395702649,-13647.304612076834,-13331.921497812451,-12768.612834049802,-13020.226421383193,-13579.601178121708,-13559.439904623021,-12775.407764364216,-12850.084942589396,-13321.30441919618,-13553.293174897812,-12626.187518380586,-12613.715244974524,-13096.602332186978,-13557.629413322142,-12788.52823835948,-12588.502477228938,-13005.496621787146,-13480.76176414034,-12767.919929971687,-12401.016044737822,-12827.263811500528,-13518.357398314167,-13000.936865918264,-12497.217952873463,-12941.257708222594,-13630.853728157726,-13255.567938753122,-12520.486118851439,-12831.376532480304,-13521.307828582267,-13467.395420956067,-12698.51776343796,-12952.053600794507,-13439.858071787128,-13616.816832639794,-12805.29204670096,-12707.011426330975,-13081.961939568751,-13591.626416638663,-12925.432673148236,-12826.660314400235,-13175.928673258863,-13674.149057167657,-13122.530355755134,-12693.108641279774,-13031.983438966685,-13724.351075214277,-13262.407572556445,-12771.831485251367,-12938.351981443404,-13552.957898730981,-13339.766960116263,-12748.116284384285,-13034.442130856769,-13603.606951666708,-13551.39327661911,-12682.424507430138,-12824.134567276784,-13435.790054296263,-13668.784638498384,-12747.669249495179,-12839.177291295206,-13301.009035230762,-13684.050879961358,-12838.082055816896,-12648.516911091438,-13111.443890505301,-13735.079912552825,-12939.022533777063,-12521.71546479648,-12979.23332205216,-13654.36776332471,-13133.147434371405,-12595.185648821074,-12871.7884864555,-13539.323334613246,-13415.271152886291,-12767.986985205054,-12955.160493273796,-13551.080352196735,-13518.91619192555,-12703.971589085055,-12808.48834615807,-13386.347995561124,-13618.582620451763,-12833.499948203558,-12773.843142252344,-13309.323884168136,-13680.876932248704,-12834.841052870877,-12665.370126410739,-13049.931889764297,-13680.09462119277,-13026.127281919395,-12675.473114904538,-12998.321711816992,-13635.547594493342,-13307.602799845077,-12696.32729248134,-12978.316900529493,-13614.089919816248,-13445.200138711947,-12669.147571223686,-12858.82447467142,-13380.335376302646,-13513.618828489642,-12757.146389144229,-12855.404657769759,-13300.182020685914,-13548.755770773385,-12841.904204118753,-12846.128683820807,-13258.406610298945,-13615.498079716932,-12932.495824396114,-12697.46723144856,-13098.859858376964,-13658.100504648746,-13052.77056131012,-12674.869617804245,-13011.15161313434,-13542.184357903525,-13196.84990606903,-12583.339224259762,-12902.03039670353,-13462.120409264615,-13297.879791007017,-12562.082715282764,-12757.347554844328,-13395.489859043344,-13572.895654785116,-12728.200880074606,-12864.412410785248,-13339.386980460524,-13673.724374023006,-12763.784857247456,-12744.919984927177,-13250.71761020632,-13719.992485045492,-12842.664163430234,-12740.181415102652,-13039.180700681294,-13563.932605258538,-13081.671366890832,-12676.613053871759,-13050.267165931125,-13628.015056611903,-13050.20011069776,-12379.334852616174,-12610.340131561772,-13109.655750948878,-12829.25311675705,-11922.778120372071,-12239.681153259417,-13043.963973994729,-13537.334029356722,-12683.855019075278,-12718.85785089229,-13304.026520732228,-13654.61363251372,-12761.974365946577,-12769.819828250389,-13222.107377303528,-13661.855597717238,-12907.171297928251,-12660.7880187974,-13115.467204507257,-13653.630155757684,-12961.530740443557,-12571.559854931815,-12967.096324812928,-13658.636946515673,-13301.433718375412,-12658.463437374048,-12857.997460126575,-13470.636423902086,-13436.482958374378,-12631.484881816494,-12790.718709316101,-13341.800968861697,-13499.760746927352,-12622.231259611995,-12669.572254368337,-13292.873000249028,-13668.002327442447,-12748.47391229557,-12645.700591290068,-13097.16112579836,-13559.283442411834,-12755.04532516543,-12545.587127874747,-12994.5666187485,-13555.953032487992,-13024.160328407328,-12545.184796474552,-12848.229747799605,-13498.710214937952,-13151.900547969408,-12430.341533463185,-12620.376064822205,-13185.204647207815,-13247.588365982578,-12643.733637778001,-12812.846936326854,-13278.25495937526,-13442.652039844043,-12480.543551509805,-12477.123734608143,-12881.042108659996,-13273.471686061823,-12565.39077346215,-12448.55820519426,-12966.559882946001,-13402.620065524587,-12654.238957671996,-12297.169839998465,-12699.61299891627,-13369.941815130927,-12849.548500722469,-12481.571731754748,-12742.975383159564,-13340.057532794182,-13152.79461774762,-12375.311538614218,-12631.149605649663,-13394.416975309488,-13403.268266113791,-12577.416011979105,-12673.304995692373,-13260.686488233387,-13499.045491104782,-12646.326440134817,-12694.114469780263,-13189.630292609965,-13614.40284423862,-12668.40996365666,-12629.048541670865,-13163.769324275176,-13628.395036267644,-12940.698914611212,-12604.595733236758,-12949.483150182146,-13600.768280120885,-13055.363363666936,-12570.35286073123,-12852.342468779383,-13500.140726583091,-13209.970380064295,-12527.638677077137,-12800.978160021086,-13453.671449860509,-13444.66369684502,-12522.05074096331,-12717.60615320279,-13297.25394216227,-13463.081534276193,-12546.950584286522,-12651.132065192709,-13135.650829750399,-13562.747962802407,-12626.053407913854,-12392.50003010035,-12937.212042476183,-13549.672192296051,-12857.796294426476,-12386.487410841872,-12794.786726806966,-13524.906459439571,-13003.082633385973,-12457.633013443115,-12808.711863602623,-13499.693691693985,-13202.147269504938,-12483.873961433645,-12717.18147005814,-13278.992566942283,-13362.856312138596,-12495.452165061495,-12606.965018149021,-13167.055030710106,-13407.828021982674,-12628.445044570572,-12591.63172145268,-13076.73163136621,-13527.96864842995,-12695.835554103322,-12536.378209159162,-13025.412026096825,-13499.023139360326,-12830.705980146646,-12480.56590325426,-12818.993666052063,-13499.939560882995,-12904.153812426784,-12444.825463870224,-12751.7596187305,-13429.106882704125,-13260.373563811012,-12455.688411675503,-12615.123404875209,-13246.962517137828,-13285.586331556598,-12463.824446657234,-12595.364462776717,-13007.843554954954,-13307.625151589531,-12455.911929120057,-12442.746751635881,-12972.058412082008,-13369.472428497367,-12671.069821246841,-12460.874016389134,-12710.364187999272,-13313.526012125732,-12720.735397426533,-12482.823429444246,-12833.63405867029,-13315.87294529354,-12851.224881556616,-12253.919214477446,-12585.149715560641,-13281.674776276921,-13164.998670220217,-12409.196783208465,-12666.286547933407,-13213.881935343974,-13264.66509874643,-12395.428108623995,-12574.264416010907,-13171.123048200972,-13431.319705405202,-12474.03919387331,-12389.840172510168,-12916.670789321755,-13472.71513613643,-12819.463052685625,-12493.9993016719,-12848.833244899899,-13397.568571277687,-12589.128326073685,-11949.08612359597,-12133.286849652153,-12604.193401836563,-12086.079965362545,-11599.86246822625,-12280.80836305718,-13159.455437595301,-13130.64403899241,-12284.228179958842,-12520.933153740545,-13119.31170455357,-13293.923532238428,-12557.366497202695,-12637.609259797247,-13048.479026374702,-13381.631777481054,-12556.114799513198,-12512.528897825348,-12947.18092050325,-13434.04661822875,-12585.462639983016,-12425.580611894204,-12861.193759583684,-13437.13115896358,-12810.611761881324,-12293.05711901869,-12693.37686221324,-13392.002986908316,-12994.723080959688,-12351.976317402878,-12681.75395509648,-13246.873110160008,-13111.35448352748,-12328.127006069066,-12535.797063803324,-13123.26796332216,-13238.871185645008,-12461.812789656256,-12576.901921856634,-13088.443945460791,-13327.942887299407,-12419.813861824736,-12288.966749783367,-12883.567855783445,-13405.436385325955,-12572.453924710027,-12352.333945314163,-12658.284623418407,-13192.021929266684,-12664.543111865893,-12228.505281031763,-12611.994160651466,-13271.169456382926,-12931.400588917802,-12304.344749968619,-12587.809573150824,-13039.828901270497,-12887.345300596393,-12142.048733478634,-12282.1494677245,-12868.726297465122,-13019.533517305079,-12170.323690214598,-12166.121562257,-12777.732345787568,-13044.388657139381,-12204.544210975673,-12109.169317384878,-12508.326769867752,-13130.576983759045,-12318.471052464372,-12014.509679616653,-12516.954543227499,-13194.145344989938,-12658.55284435187,-12190.104984057545,-12567.402430463128,-13238.133578077983,-12800.44171815416,-12120.747521012727,-12498.626112774147,-13165.780981276153,-12970.13616205885,-12148.68720158186,-12403.072405227711,-13174.56521684709,-13240.86049090153,-12287.312720693675,-12203.404272008453,-12850.599032711869,-13403.067100413693,-12521.693113052024,-12246.789007996204,-12840.428988984704,-13424.211850668413,-12724.065807350375,-12302.087223778633,-12652.294355904383,-13297.186886928903,-12777.24060740955,-12355.284375582263,-12647.824007013323,-13208.070481785595,-12943.202309990205,-12271.085354219122,-12463.198597812487,-13141.238765864226,-13171.190103434337,-12410.269666942319,-12564.474351939483,-13049.48485487519,-13196.358167691013,-12469.837065915712,-12403.78766105028,-12898.901152479786,-13323.53959364171,-12620.890154944678,-12455.911929120057,-12856.58930022589,-13398.037957911249,-12742.818920948377,-12469.792362426802,-12802.229857710583,-13468.915339579027,-13112.963809128263,-12543.396656918128,-12817.071416028908,-13450.56455738122,-13219.291057502158,-12457.878882632123,-12750.932604185655,-13454.319650449712,-13513.14944185608,-12652.763742537945,-12718.85785089229,-13287.173305412925,-13511.763633699851,-12733.051208621408,-12702.27285650645,-13192.647778111432,-13627.590373467252,-12822.63700039828,-13314.084805737115,-16214.44716625776,-18465.670164307376,-17543.99598169279,-16398.29026440266,-16023.384454653795,-16085.65641470628,-15106.918228497296,-13964.453514153185,-14121.630981162905,-14748.552709645357,-14104.822469332514,-13151.900547969408,-13247.677772960398,-13770.507427514485,-13732.57651717383,-12725.89865039571,-12830.34835223536,-13374.233350066346,-13641.359048051721,-12758.7110112561,-12703.189278029118,-13113.433195761823,-13673.433801345087,-12607.300294315852,-12364.314480342207,-12925.276210937049,-13655.485350547475,-12893.98376869962,-12394.422280123506,-12689.04062378891,-13430.04565597125,-12935.535661642036,-12345.784884188759,-12708.37488274275,-13360.17410280396,-13130.487576781223,-12213.350798291063,-12409.286190186285,-13185.338757674546,-13293.34238688259,-12281.098935735099,-12444.445484214484,-13128.230050591237,-13545.268898638356,-12530.320886411773,-12411.051977998255,-13042.600517582956,-13602.332902232756,-12726.546850984914,-12473.23453107292,-12882.673786005234,-13527.856889707673,-12762.890787469243,-12248.957127208369,-12731.196013831617,-13606.713844145996,-13142.490463553724,-12254.23213889982,-12644.292431389384,-13519.76555821485,-13262.4299243009,-12315.006532073801,-12385.816858508213,-12924.337437669927,-12793.467973884104,-11557.103581083249,-11551.13566531368,-12183.98060607679,-12841.25600352955,-12086.079965362545,-12197.481059727796,-12749.971479174075,-13462.567444153721,-12622.320666589818,-12267.777296039736,-12740.8072639474,-13413.751234263329,-12699.32242623835,-12201.862001641037,-12670.198103213084,-13373.518094243776,-12920.112957967873,-12169.384916947474,-12530.209127689497,-13350.898128855006,-13238.848833900553,-12145.177977702377,-12267.218502428354,-12996.868848427397,-13215.04422605565,-12246.341973107097,-12400.300788915252,-12892.93323671022,-13280.154857653959,-12281.9483020244,-12177.900931584947,-12758.979232189564,-13330.043951278205,-12339.548747485727,-12051.546520179096,-12557.120628013687,-13230.75750240773,-12625.271096857918,-12078.882703647936,-12503.252923876396,-13197.587513636056,-12746.015220405487,-11837.349753063889,-12171.55303615964,-12996.555924005024,-12925.499728381603,-12009.771109792127,-12179.912588585925,-12880.684480748712,-13160.640080051433,-12052.686459146316,-12023.696246587784,-12572.58803517676,-13183.997653007229,-12166.322727957098,-11958.540911500564,-12384.721623029904,-13007.396520065848,-12160.667736609905,-11737.3704001153,-12270.191284440909,-13116.428329518836,-12302.981293556846,-11695.147954839225,-12087.644587474417,-12849.280279789005,-12530.05266547831,-11714.303399837423,-12031.988743780703,-12811.483479915081,-12774.446639352636,-11824.3410377909,-12030.178252479822,-12804.219162967107,-12993.650197225834,-11925.46032970671,-12091.757308454193,-12764.991851448041,-13178.610882593499,-12050.026601556136,-12015.157880205856,-12507.455051833995,-13316.20822146037,-12375.557407803228,-11900.605189872407,-12331.278602037264,-13265.872092947018,-12578.53359920187,-11874.833628515438,-12383.447573595951,-13095.127117052927,-12749.122112884774,-11854.851168972395,-12134.40443687492,-13024.048569685052,-12827.420273711716,-11775.055441266948,-12063.929386607337,-12826.190927766673,-13040.834729770986,-11912.675131878274,-12002.305627144055,-12579.271206768895,-13040.968840237718,-12061.00130808369,-11844.211738611668,-12352.937442414457,-13039.001886725651,-12157.158512730422,-11811.064101584447,-12189.836763124082,-13023.57918305149,-12276.941511266412,-11511.930705539073,-11974.053022152546,-12892.93323671022,-12560.383982704161,-11729.793158744951,-12055.05574405858,-12729.631391719746,-12684.994958042498,-11759.968013759615,-11922.152271527324,-12670.22045495754,-12864.010079385052,-11842.758875222073,-11903.287399207044,-12608.619047238713,-13131.381646559435,-12033.2404414702,-11799.910581101249,-12441.919737091033,-13146.804350233597,-12310.335017482641,-11847.899776446793,-12197.995149850269,-13140.389399574924,-12446.233623770908,-11842.714171733161,-12260.200054669387,-13023.199203395749,-12706.854964119788,-11880.578026840452,-12185.433469466385,-13053.329354921503,-12924.046864992008,-11901.611018372896,-12133.465663607796,-12880.8409429599,-13138.467149551769,-12003.84789751147,-12001.165688176834,-12638.704495275557,-13236.479548988289,-12185.612283422028,-12006.843031268481,-12572.409221221116,-13240.5252147347,-12297.505116165295,-11898.660588104796,-12456.068391331244,-13369.852408153107,-12719.7519206705,-11971.437868051276,-12224.213746096344,-13133.750931471699,-12926.773777815555,-12058.743781893705,-12386.77798351979,-13079.59265465649,-12990.431546024269,-11970.610853506429,-12169.988414047768,-12779.319319643893,-13180.5107808722,-12119.808747745605,-12167.060335524124,-12681.597492885292,-13390.751289218819,-12292.565380640672,-11968.263920338622,-12560.428686193072,-13337.576489159643,-12394.377576634595,-11911.892820822337,-12424.84300432718,-13201.856696827019,-12652.584928582302,-12069.114991320968,-12416.841079812179,-12995.259522826616,-12790.361081404815,-11939.050190335536,-12355.597300004638,-13192.558371133611,-13120.250477820693,-12048.841959100004,-12240.083484659612,-12910.389949129814,-13229.349342507046,-12002.596199821974,-12091.064404376079,-12788.595293592847,-13345.824282863652,-12292.990063785322,-12137.220756676288,-12611.770643206912,-13195.061766512605,-12394.534038845783,-11710.950638169126,-11809.141851561291,-12547.039991264342,-11788.734708873595,-10968.157466430363,-11479.207751656504,-12585.797916149846,-12653.143722193685,-11839.517872276054,-12098.82045970207,-12914.7485392986,-13030.262354643626,-11875.727698293651,-11986.771164747617,-12690.918170323155,-13165.870388253974,-12112.544430797629,-11982.524333301108,-12680.70342310708,-13389.499591529322,-12215.65302796996,-11862.763686509572,-12391.158925433032,-13337.956468815384,-13437.399379897044,-13056.100971233962,-12478.308377064273,-11882.2544076746,-10945.582204530503,-9857.275767001602,-8964.882369623467,-8278.594407867718,-7490.717767562601,-6685.652635771351,-6268.569084235321,-6056.987471221384,-5737.938670866331,-5300.067996986866,-5147.651451546127,-5096.220087554466,-4748.829275230083,-3976.1741728990287,-3312.9532114211574,-2696.514451088244,-2017.356695813739,-1064.077146539348,-368.3120451345498,142.98410928059928,484.1611366464063,911.5264906318773,975.3854245406897,836.7599054288752,672.452231937913,833.250681549392,957.2805115318909,965.5059534914438,1021.787646029907,1216.9183751247376,1341.7305161631723,1247.8308377064275,1197.070026048425,1407.42229311732,1681.2535144392866,1633.4207813049295,1650.6539762799712,2061.4790393685153,2752.3714604820566,3038.6749552100846,3344.737392036604,3677.1972390648416,4373.185857914193,4413.597811889388,-333.35391680644955,-23441.660218436744,-65950.99013459565,-76511.8541135614,-76605.03853619559,-80309.41549651808,-81615.67379423068,-82724.29796746945,-83798.79102692497,-84512.10224772719,-84632.86872301922,-84842.86336217682,-85437.08448852117,-85601.68273469004,-85094.40989427685,-84386.44074039946,-84035.3842419844,-83714.56965381738,-83014.96005236627,-82427.06446970279,-82528.07200289631,-82751.96942710513,-82904.16245510131,-83086.44093113435,-83697.31410709789,-84288.51774794076,-84599.43051331407,-84519.9030065421,-84507.31897441375,-84302.50993996978,-83815.86775968883,-82891.19844331723,-82035.28309289015,-81095.16872109995,-79842.35344437999,-78057.90192579055,-76515.96683454119,-75661.19142308133,-74811.62396807957,-73421.14429725936,-71709.91709350552,-70635.15581311654,-69770.5679858408,-68599.56009382727,-66647.33638135629,-64317.859925968645,-60826.47273856077,-56463.99336624067,-51611.36258976014,-47216.89787112449,-43015.90985249398,-38749.9453127319,-34639.817135312216,-31008.284510169568,-27463.253136068957,-24248.155861873136,-21056.438512377565,-18098.900389540242,-15330.435673050366,-12406.425166896006,-8796.618437363915,-5027.108493698656,-1973.3461109812392,1058.7574313589848,4752.472609576298,8955.315822996596,12966.582234690457,17679.268739136307,22893.461333925883,28433.631769851658,33206.15389420437,37721.02746022075,42414.24559524603,47537.19836916905,52133.8569681474,55806.248582154345,58714.76932940118,61473.64514751973,63557.922966232654,65196.4399452734,66830.46422367862,68928.1754408092,70833.37108294619,72112.98610126806,72910.45163994451,73615.26919785372,73960.8048153883,73662.09610248759,73333.77132818357,73436.94698058927,73896.07416344574,74235.59716172185,74727.67081590544,75435.03647268254,76255.52430814794,76583.75967547414,76814.92141663092,77166.33554295725,77955.77680537425,78861.82711861457,80162.65394242453,81874.90932642334,84063.21216383125,85913.31075588593,87464.16419317295,88894.74289354598,90527.94015740635,91781.47068994888,92499.81105325355,92997.36088482868,93715.00834405523,94328.83195028687,94286.52009803297,94127.465084489,94336.9679852686,94965.58844632965,94923.0530766312,94774.48103123678,94819.6315550365,95415.50671047052,95190.80462346133,94806.46637755232,94407.62184949183,94708.4539781158,94339.47138064759,93611.85504339398,92906.54574710676,93076.10608054472,92855.09203137064,92121.48542660302,91336.40275435481,91359.93914126625,91310.09475113092,90549.10725940553,89654.94807421543,89285.13846220238,89166.33894042241,88301.25937476866,87382.44621544436,86911.3608493043,87024.32656578143,86345.77230760721,85484.15726234404,84831.6204347158,85088.86666165193,84496.25486090838,83584.95188772105,82722.01808953502,82969.76482507764,82503.35097352875,81485.8325106898,80294.26101377739,80650.25724771706,80630.74417480758,79619.95358704968,78419.44139235513,78583.77141759056,78966.45563440987,78014.87481771408,76780.54443365865,76671.89260386142,77622.10996414542,76908.79874334321,75754.62171490451,75339.14748896928,76981.73248550088,76463.21671762667,75165.31797234034,74085.50519770446,75902.05382133172,75740.98715078678,74402.54234105854,72880.83557854123,74739.20431604437,75420.03845215302,74164.89859400972,72193.51943654055,73949.31601873827,76188.55848175984,74718.81952510113,71244.8666983684,71259.55179447554,75757.23686900579,75008.8557611532,70620.96245538742,66914.01504445256,73110.58915979734,75806.79068646321,72822.49752551288,66454.93256508501,70649.50563305683,74523.82290647304,72685.88366340204,66169.8137128131,68307.84747694105,72762.70660909494,71854.95756327601,66140.19765140982,66577.8671595892,71645.18644156295,72025.23315253653,67988.95513879719,67192.94246351034,72231.56210560347,73093.57948226684,69803.60386414574,67357.51835793476,71640.38081650506,72988.14630367116,70498.40784053896,67033.73098775519,70609.94304537095,72430.4479277668,70345.05252183111,65846.07104612244,68242.24510696472,70617.18501057447,69109.49279183063,64203.687215290935,65395.21400871444,68627.90210579659,67957.52858609303,63392.87768517467,63393.14590610813,67431.72614952638,67399.94196891093,63166.87919698706,61661.377449199856,66225.49190825128,66896.51362854405,63267.126770869116,60144.07398034025,64272.01649809081,65487.43730633704,62773.622605040386,58929.43548314995,62738.7091802012,64897.50771492812,62844.857614619454,58159.59670062026,60574.278005871536,63231.811014629726,61888.8064490326,57150.90717684117,58014.28800991631,61036.154453296,60352.97338401954,56293.1366316243,56032.828215697795,59309.21397319007,59047.07271421823,55482.304749763585,53861.04331744234,56840.843777757145,57024.061027057294,54280.78672656855,51812.14831020216,54329.13354982538,54869.37521331015,52702.30653313477,49604.71237954049,51423.33971540209,52305.87599347544,50598.20271708998,47200.80461511667,48209.53884238468,49469.90900873054,48178.69343503636,44708.38394264984,44772.62285621439,46331.27705231632,45344.335775892236,41903.97762107583,40855.36788169955,42444.44280200515,41528.22244503766,38094.100426924284,36016.28226235894,38120.78840980392,37839.5811128117,34842.30158833285,31821.239807753544,33095.40100042832,32747.272580536915,29905.24827304462,25915.99832963924,26011.10500229657,25019.223990347862,20970.227834013443,14323.042550449676,10853.090685974443,7394.337045471317,1536.5259690911735,-6328.449407631088,-10711.78295752799,-13264.799209213163,-18040.33881906734,-24822.81921181908,-28762.15770985576,-29170.501729309766,-31353.820127704163,-35399.597632837016,-37734.907893527496,-35829.82401011277,-35985.66037245517,-38375.911221016795,-40322.59170086285,-37628.91592132043,-37038.15931536667,-39179.9481725631,-42731.662718255844,-41313.98097443354,-39896.5674515447,-40130.81373343632,-41272.71965416904,-37122.93948208565,-31307.306147492665,-26625.397995161773,-20741.167156835458,-7958.316261567625,6554.380840585332,16630.122557893104,22179.032525900904,27575.481244979055,33687.029324415846,36616.60541493957,36680.68786629294,36651.13886012302,39835.27896824825,41350.14609696223,40679.86198423648,54266.012223483594,84471.53383154082,97992.19345953387,108414.99071299919,108079.49102872504,116111.88097141754,121973.17891993272,121772.70612391307,120469.55471867976,123643.25656214435,127435.09589852046,128081.2848307234,125139.45998423816,126751.57955307717,130924.42672543845,131272.15281392966,128557.01935971015,128367.54362196251,132049.30061689625,132414.7069352516,129357.77060482152,127388.29134563105,131112.4943032854,132217.74336311143,129835.65090127599,126676.67885740745,130715.37085954797,133023.1437710695,131100.75963744638,126175.15041531927,129369.86289857184,132408.42609505967,130839.40068953046,125313.580073545,127185.80689261043,131123.73723074642,130285.03272354994,124836.48208814647,124912.05333614987,129489.22121396319,129334.56949407692,124284.39400010038,122460.64811475851,127414.75581106613,128006.47354203148,123637.51216381934,120069.74906560768,124987.51282543098,126408.5920344105,122851.37895958174,117792.84391317892,122208.1404576469,124672.71085652243,122071.57129902499,116130.70114024892,119420.54264790329,122903.72674509606,121173.14293064391,114882.44561939784,116464.5914989223,120827.5179061315,119904.72613629415,113837.52391785668,113448.76002654554,118415.29529277032,118278.14498879254,112880.48927551381,110535.41130249636,115630.73732027262,116229.65231295256,111756.01771545623,107753.91551898903,112497.67094822777,113898.85710464205,110394.6623676613,105175.44063036927,109070.65678485118,111307.10527981583,108676.81904754866,102682.14823986868,105318.42473964987,108516.22176363728,106781.88285611664,100591.36606351925,101678.95724522558,105848.89869080768,104985.38374726579,99160.27327302376,98492.82783184384,103449.43892353046,103583.72820421794,98611.96262979062,96280.83214531328,101654.07975364683,102737.69232484011,98801.14779486034,94960.58165557166,100077.81238291413,102087.61418910197,99158.73100265635,94269.89040015823,98531.8539776628,101211.51521343175,98992.50107914222,93482.50549823111,96359.95732068508,98478.83563981482,95700.96083890926,94079.94527577702,94429.90653871377,94270.56095249188,93655.23977938174,93194.07858777983,93307.08900774588,93190.41290168917,92779.07374847816,92396.07660723646,92356.08933640592,92196.54258448393,91792.98183834337,91456.45397382426,91367.35992042541,91213.28934589498,90769.38370101259,90360.81616411402,90148.94397842218,89947.3312434353,89465.82996437907,89038.08463073787,88770.86952577467,88557.72329064886,88076.15495635927,87628.51657015283,87334.83699975455,87134.18538977926,86680.64614303663,86221.87658809144,85885.95222067264,85656.31039813881,85184.48742443173,84677.01341831844,84322.87237916856,84144.77367934867,83741.25763669702,83211.76716229525,82796.1364741488,82558.31391314435,82194.80749306768,81702.24210050609,81323.447087222,81132.4514308514,80878.31209639455,80445.06823361733,80096.20220615891,79897.98693632924,79679.36452381189,79240.68918713203,78847.32083646308,78584.64313562431,78355.71656891306,77872.87418518952,77388.19895842063,77071.27357378883,76896.90761529299,76523.47702067817,76137.70826312402,75892.95666133841,75786.89763389798,75508.88663636288,75177.92435621315,74966.4992054104,74898.0805156327,74674.69718154636,74322.63485463081,74068.04848528487,73964.67166717908,73786.2153394479,73447.85463188346,73178.96314608611,73047.6466474112,72917.06775630328,72595.49320882479,72332.90491496383,72204.31532911246,72115.55655188044,71796.7983242033,71494.11100078953,71312.14544917888,71227.1641167598,70926.95783698057,70589.89353059453,70354.59671671352,70291.00600373818,70076.20573952267,69743.2094506275,69507.08562220164,69442.8467086371,69294.16290452039,68959.11025513534,68702.73574623297,68602.53287583982,68485.47679012737,68131.89454458887,67837.85734627931,67691.40871660814,67618.4079192171,67301.97427296333,67011.84862993343,66845.88692735278,66806.54785711144,66513.02474892435,66184.23058798678,65952.93473636327,65884.76191577458,65609.65664501867,65247.87130926506,64991.563855596054,64938.14318634787,64757.98812603809,64433.86547969169,64210.392738627525,64187.90688370549,64115.88956307049,63825.36158864041,63602.69351037664,63540.22038462405,63509.978474376025,63194.349490922636,62887.77296397364,62691.59170288941,62602.85527740184,62216.661836703046,61813.23520102921,61522.41665392121,61405.89701007569,61033.27107826127,60596.294474160015,60246.8696530902,60109.27231422333,59780.679318985865,59323.809662319385,58951.94368981644,58793.58158035059,58528.065207966,58069.496818720916,57692.28877929316,57509.42915790429,57316.24303057707,56876.8747898191,56482.09827924947,56245.3262502344,56122.88339410823,55729.31387773918,55356.50913196911,55110.48348074955,55017.34376160429,54646.729486790835,54242.229967383144,53951.09849585277,53858.51757031889,53528.337601225096,53120.8876515493,52820.72607525899,52748.842865090715,52508.58396394062,52109.6500289023,51788.88014422419,51676.58498008073,51486.25987604378,51077.69233914523,50727.351096552746,50569.39131848709,50426.98835456233,50020.208957220195,49654.98145282048,49464.61164529463,49391.74495837033,49043.81770417902,48711.55902285087,48524.31845954877,48521.74800893641,48244.988709090794,47913.62409754087,47682.998798251014,47662.591655563316,47402.50675708136,47018.25791815018,46715.43648426968,46644.022660734976,46418.47120743647,46005.455673391305,45659.65183492325,45540.60644395428,45366.128726736155,44946.76529726569,44593.20540347164,44442.4428871206,44347.11269701871,43971.51398319173,43620.18926384321,43433.06045926338,43389.00517094197,43048.47634416537,42698.85035739546,42474.9752849311,42442.92288338219,42135.89932154409,41750.30937794559,41456.33923486939,41390.111016048315,41106.288564954826,40687.61803956247,40356.923980346204,40270.087453137334,40055.71187206649,39643.12102116597,39307.084895024884,39207.686687432135,39091.65878196464,38714.897777425984,38384.82956705446,38245.3770333978,38181.78632042245,37820.336260835684,37474.55477411208,37283.2014898302,37268.15876581178,36954.653198081636,36605.47424620083,36384.86252842695,36401.2910606016,36148.29166511198,35792.45189338349,35516.45255284936,35499.01819217422,35285.8272535595,34905.66878386364,34602.355611605126,34557.89799188352,34419.71950766081,34031.40265123876,33680.56967026826,33551.465994294405,33451.57604832364,33051.412767340276,32675.031742457362,32491.456865245924,32453.81652758319,32072.696932875748,31673.673590859606,31411.4652766544,31393.874453768072,31045.81308911003,30614.066793211317,30278.47770195934,30273.85089085709,30009.072126039522,29572.296687638365,29200.58717734661,29198.441409878902,29052.37275986347,28627.868429168277,28225.201752805922,28170.931717268435,28152.178603670432,27737.598447513396,27306.634462670623,27161.526937666767,27265.373142406126,26889.84148381251,26420.36544327324,26130.262151987812,27035.82072685012,27570.854433876808,27042.906229842454,25632.53350645703,25815.706052268273,26536.013369085,26175.703248465452,24862.381799504972,24664.144177930855,25481.90510057272,25289.791856979355,24160.380561397145,23627.760842771633,24493.868588670324,24461.950297588148,23500.60176856539,22652.77774963114,23479.322907843936,23623.245790391662,22855.306906140675,21783.518407764248,22478.83647427994,22816.861905677546,22225.613561345766,21018.88758169265,21498.801886892546,22065.55271930131,21662.684877238855,20425.605228615434,20647.2227748898,21485.88257859738,21295.40101234925,20074.034640077905,19981.34195582175,21213.615979387283,21287.55555004544,19977.676269731077,19348.809939481012,21158.340115349307,21562.482006845716,20150.32114390387,18700.98932993285,20825.388529943055,21745.54279393468,20568.388172195933,18353.889090286386,20464.318450012022,22118.459298427024,21303.35823337534,18429.41563480087,20098.4427450231,22543.58947796696,22109.608007622723,18757.606298638144,19499.170124431865,22802.154457825956,22821.0863853796,19171.068867572412,18581.653366285966,22819.85703943456,23532.430652669747,19998.53044730788,17789.485191045427,22808.70351895136,24428.08740473836,21319.898524272267,17292.98589145969,22259.387047217733,24827.513078154694,22441.151433128292,17199.84617231443,21226.423528960175,24721.096422802977,23085.395763563607,17150.001782179093,19516.51507812918,23884.515331329745,23008.014024259333,17044.85917626133,17440.417997886896,22458.272869381057,22319.043853168947,16916.58251483232,15275.852713090506,20353.342038791423,20699.14587725948,16204.321826019506,12888.418184330249,17196.381651923853,18007.079423317842,14572.130390659619,10370.270653995354,13629.914954890604,14917.196621560648,12407.74391981887,7883.952007764818,9949.901396024394,11696.89139090674,9961.34548918551,5612.880660638888,6553.442067318209,8750.573843785984,7592.887591467809,3588.4608135772723,3358.908398021269,5836.800436592154,5245.8650166827465,1890.711711729969,680.5882669196448,3353.074592718434,3283.2700947845096,452.8016391756105,-1634.6724789944267,1096.3307137883562,1597.5462314541617,-704.0352468532618,-3615.0817412235433,-1160.4802203750874,-51.788991902946464,-1783.2445243888528,-5181.469640907007,-3199.0263699324573,-1268.9308844722373,-2453.238064436682,-6182.961902971495,-5018.145444172078,-2341.6805078602442,-3041.0889436112575,-6920.636525229994,-7040.419523765984,-3721.766617508724,-3877.9606077624094,-7606.320989885448,-9016.090216170576,-4997.425377062008,-4423.097303282893,-7841.50604504419,-10969.275053653128,-6918.691923462382,-5652.3538413469605,-8718.163814325788,-13500.610113216653,-9770.014556648082,-7371.135934726708,-9640.776770207498,-15523.331227699666,-12468.9429961375,-8426.272383483933,-9598.777842375976,-15875.550016826395,-14051.178282639776,-8354.098600637746,-8436.464778955553,-14708.721901026,-15033.828024128441,-8236.215500380456,-7540.897433864765,-13501.48183125041,-16528.913858999476,-9354.383868501649,-7681.646368699833,-12943.068199523474,-18687.041841392736,-12046.495025932196,-9358.720106925977,-13327.54055589921,-20261.4316655912,-13509.617866232142,-8228.81707296575,-10076.434621385888,-17485.680280408895,-12521.134319440642,-5879.268751057238,-6817.326762357565,-14847.682696304644,-13207.377577707479,-6180.3467488702245,-6564.550884312497,-14431.224993613363,-15880.690918051116,-8142.673449834997,-7184.722385969447,-13560.512788356877,-16975.524064960966,-8001.075148710627,-4651.174503704847,-8641.385572121808,-13537.065808423258,-4704.595172953031,272.08778525445285,-2287.566934533946,-9168.998499989331,-2367.429717472758,2917.8190729402395,73.91721891370045,-9355.970842357974,-5929.336658637126,238.6272238048582,-2022.385838316183,-12756.408781577204,-13538.205747390479,-7410.810281134878,-9990.31334999959,-21809.580541799136,-27032.31150297064,-20418.22915294518,-21254.407913018218,-30392.136322514576,-36792.64775426957,-27460.705037201053,-24084.272871526824,-28766.672762235736,-34647.90846680504,-24190.555416411808,-18244.47730117766,-21556.894070731887,-30531.678263149057,-23146.281915459862,-15479.96884345637,-16131.544546073026,-24146.20955541248,-18286.833856920464,-8134.4703596199,-6419.286897097457,-12580.277035269384,-8345.94021391156,3964.2159896154394,7268.742593376946,1080.460975225088,-155.3893274532947,10315.106548679656,13566.793628548818,8727.39508478583,5582.705805624224,17005.564809508898,22788.452838474852,20437.38459794338,15544.744198887849,25583.605537844367,32501.135170595073,31428.184381506966,24941.976361510322,32305.8256275446,40309.962965245606,40833.306709922166,34675.91520260754,39985.95207762147,49660.16705753411,51741.40503900112,46381.9484569965,48703.601801824785,58526.567641087495,61106.69655879695,56440.971069451705,55922.41059808858,65916.43433766774,69957.85325263182,67401.59599800063,65462.31394556927,75663.22543182677,81535.47573512504,81311.28773823832,79071.75470253882,88584.72419795087,96341.18185534261,98298.83704171624,95708.49337679069,102656.24256804498,109756.72122916237,110713.28648487169,106366.2074644813,109574.2639391737,116317.44996517301,117762.2443750196,114097.80998203874,115979.75980994223,123765.63236303716,126709.82649443466,124446.13122297899,124229.40870874033,131830.61114914552,135356.6435404591,133880.86961279745,132312.33594564628,138743.8492469608,141875.1274794492,140052.43212609674,135943.2874254331,140476.02003526926,143768.5437522583,142141.94025301223,136750.2301037586,139012.5172153136,142842.93566261957,142551.53597015573,138234.74356350227,140540.5718732562,146476.09996510745,147750.6187856935,145107.92733525365,147317.7101990831,156325.5973250386,165566.09905554046,179393.17874827134,-187500.04470348894,-187500.04470348894,-187500.04470348894,-187500.04470348894,-187500.04470348894,180291.42830269676,-187500.04470348894,-187500.04470348894,-187601.20869889364,-187500.04470348894,-187500.04470348894,-187500.04470348894,-187500.04470348894,-187500.04470348894,-187500.04470348894,-187500.04470348894,-187500.04470348894,-187500.04470348894,-187500.04470348894,-187500.04470348894,-187500.04470348894,-187500.04470348894,-187500.04470348894,-187500.04470348894,-187500.04470348894,-187500.04470348894,-187500.04470348894,-187500.04470348894,-187500.04470348894,-187500.04470348894,-187500.04470348894,-187500.04470348894,-187500.04470348894,-187500.04470348894,-187500.04470348894,-187500.04470348894,-187500.04470348894,-187500.04470348894,-187500.04470348894,-187500.04470348894,-187500.04470348894,-187500.04470348894,-187500.04470348894,-187500.04470348894,-187500.04470348894,-187500.04470348894,-187500.04470348894,-187500.04470348894,-187500.04470348894,-187500.04470348894,-187500.04470348894,-187500.04470348894,-187500.04470348894,-187500.04470348894,-187500.04470348894,-187500.04470348894,-187500.04470348894,-187500.04470348894,-187500.04470348894,-187500.04470348894,-187500.04470348894,-187500.04470348894,-187500.04470348894,-187500.04470348894,-187500.04470348894,-187500.04470348894,-187500.04470348894,-187500.04470348894,-187500.04470348894,-187500.04470348894,-187500.04470348894,-187500.04470348894,-187500.04470348894,-187500.04470348894,-187500.04470348894,-187500.04470348894,-187500.04470348894,-187500.04470348894,-187500.04470348894,-187500.04470348894,-187500.04470348894,-187500.04470348894,-187500.04470348894,-187500.04470348894,-187500.04470348894,-187500.04470348894,-187500.04470348894,-187500.04470348894,-187500.04470348894,-187500.04470348894,-187500.04470348894,-187500.04470348894,-187500.04470348894,-187500.04470348894,-187500.04470348894,-187500.04470348894,-187500.04470348894,-187500.04470348894,-187500.04470348894,-187500.04470348894,-187500.04470348894,-187500.04470348894,-187500.04470348894,-187500.04470348894,-187500.04470348894,-187500.04470348894,-187500.04470348894,-187500.04470348894,-187500.04470348894,-187500.04470348894,-187500.04470348894,-187500.04470348894,-187500.04470348894,-187500.04470348894,-187500.04470348894,-187500.04470348894,-187500.04470348894,-187500.04470348894,-187500.04470348894,-187500.04470348894,-187500.04470348894,-187500.04470348894,-187500.04470348894,-187500.04470348894,-187500.04470348894,-187500.04470348894,-187500.04470348894,-187500.04470348894,-187500.04470348894,-187500.04470348894,-187500.04470348894,