9778 
9777 
9778 
9799 
9792 
9776 
9779 
9787 
9776 
9788 
9810 
9791 
9774 
9805 
9805 
9765 
9831 
9831 
9830 
9853 
9820 
9807 
9821 
9806 
9801 
9812 
9824 
9803 
9830 
9932 
10059 
9963 
9965 
9928 
9899 
9871 
9821 
9851 
9878 
9928 
9910 
9863 
9853 
9880 
9925 
9888 
9826 
9829 
9839 
9867 
9845 
9820 
9814 
9835 
9807 
9819 
9858 
9861 
9844 
9866 
9833 
9806 
9803 
9833 
9853 
9835 
9873 
9879 
9870 
9851 
9814 
9853 
9845 
9833 
9816 
9819 
9879 
9867 
9889 
9877 
9852 
9837 
9874 
9837 
9872 
9900 
9913 
9907 
9924 
9925 
9883 
9862 
9852 
9802 
9806 
9821 
9793 
9813 
9822 
9847 
9797 
9808 
9815 
9862 
9824 
9793 
9818 
9856 
9827 
9783 
9814 
9913 
9981 
10100 
10379 
10549 
10558 
10342 
10120 
9883 
9648 
9541 
9567 
9663 
9742 
9767 
9807 
9841 
9876 
9903 
9880 
9868 
9853 
9860 
9896 
9897 
9915 
9934 
9864 
9892 
9885 
9881 
9903 
9925 
9942 
9907 
9917 
9912 
9894 
9912 
9953 
9959 
9966 
9944 
9930 
9956 
9990 
10004 
9970 
9995 
10010 
9969 
9976 
10002 
10069 
10071 
10041 
10046 
10116 
10136 
10096 
10082 
10097 
10092 
10110 
10142 
10129 
9998 
10061 
10022 
10061 
10068 
10053 
10101 
10050 
10001 
10013 
10012 
10005 
10007 
9981 
9905 
9934 
9910 
9932 
9954 
9900 
9906 
9909 
9885 
9880 
9859 
9856 
9904 
9908 
9889 
9891 
9883 
9885 
9835 
9906 
9916 
9886 
9921 
9892 
9863 
9837 
9887 
9932 
9910 
9888 
9890 
9905 
9910 
9942 
9916 
9903 
9905 
9953 
9955 
10000 
10084 
10067 
9997 
9975 
9984 
9981 
9970 
9954 
9952 
9925 
9906 
9972 
9967 
9926 
9929 
9919 
9928 
9950 
9925 
9896 
9890 
9910 
9936 
9906 
9923 
9931 
9876 
9902 
9893 
9895 
9905 
9888 
9893 
9898 
9924 
9910 
9895 
9876 
9908 
9917 
9874 
9873 
9880 
9876 
9856 
9879 
9929 
9922 
9890 
9882 
9888 
9876 
9889 
9918 
9931 
9898 
9885 
9894 
9867 
9874 
9891 
9882 
9870 
9904 
9948 
9885 
9890 
9955 
9960 
9927 
9928 
9912 
9968 
9918 
9926 
9962 
9940 
9938 
9976 
9990 
9991 
9945 
9887 
9857 
9866 
9867 
9893 
9922 
9901 
9897 
9914 
9930 
9880 
9878 
9871 
9877 
9885 
9893 
9872 
9912 
9901 
9873 
9907 
10017 
10154 
10364 
10602 
10774 
10685 
10463 
10266 
10071 
9808 
9752 
9876 
9936 
9986 
10057 
10075 
10098 
10099 
10149 
10107 
10072 
10087 
10105 
10141 
10171 
10175 
10174 
10143 
10085 
10127 
10128 
10116 
10143 
10139 
10185 
10207 
10176 
10189 
10185 
10196 
10160 
10180 
10234 
10261 
10231 
10198 
10231 
10219 
10216 
10272 
10254 
10262 
10252 
10255 
10313 
10317 
10377 
10340 
10323 
10379 
10406 
10383 
10301 
10163 
10295 
10341 
10307 
10320 
10348 
10374 
10400 
10391 
10332 
10326 
10301 
10275 
10247 
10228 
10219 
10222 
10230 
10209 
10136 
10136 
10133 
10144 
10142 
10119 
10119 
10092 
10097 
10071 
10093 
10127 
10137 
10131 
10122 
10120 
10107 
10110 
10117 
10088 
10105 
10107 
10093 
10121 
10141 
10159 
10142 
10136 
10126 
10130 
10131 
10100 
10119 
10112 
10085 
10149 
10324 
10311 
10262 
10206 
10228 
10220 
10148 
10151 
10144 
10172 
10166 
10161 
10207 
10172 
10168 
10173 
10169 
10135 
10128 
10162 
10137 
10143 
10169 
10152 
10173 
10156 
10174 
10155 
10117 
10170 
10204 
10128 
10078 
10132 
10154 
10175 
10190 
10155 
10163 
10120 
10137 
10164 
10168 
10169 
10158 
10136 
10166 
10167 
10132 
10144 
10142 
10162 
10150 
10137 
10145 
10133 
10165 
10154 
10142 
10154 
10135 
10153 
10198 
10197 
10210 
10179 
10144 
10188 
10191 
10166 
10197 
10166 
10148 
10177 
10218 
10204 
10219 
10204 
10192 
10260 
10225 
10118 
10098 
10134 
10156 
10136 
10182 
10178 
10113 
10134 
10150 
10124 
10167 
10115 
10117 
10126 
10159 
10146 
10146 
10149 
10150 
10208 
10207 
10328 
10541 
10779 
10899 
10870 
10640 
10333 
10065 
9881 
9833 
9870 
9991 
10040 
10090 
10134 
10173 
10155 
10179 
10191 
10210 
10234 
10167 
10186 
10186 
10189 
10203 
10196 
10199 
10177 
10172 
10233 
10248 
10225 
10196 
10203 
10213 
10275 
10265 
10258 
10273 
10242 
10272 
10262 
10278 
10279 
10290 
10280 
10330 
10298 
10310 
10323 
10303 
10354 
10368 
10400 
10373 
10405 
10428 
10431 
10403 
10425 
10471 
10490 
10487 
10424 
10262 
10322 
10377 
10381 
10369 
10380 
10398 
10382 
10328 
10341 
10302 
10271 
10252 
10209 
10198 
10202 
10207 
10154 
10125 
10160 
10152 
10135 
10113 
10118 
10147 
10133 
10140 
10135 
10130 
10083 
10083 
10116 
10129 
10122 
10115 
10132 
10118 
10104 
10139 
10149 
10135 
10133 
10177 
10152 
10125 
10139 
10146 
10158 
10160 
10150 
10176 
10166 
10288 
10351 
10280 
10283 
10228 
10214 
10205 
10206 
10190 
10225 
10206 
10195 
10186 
10151 
10172 
10158 
10213 
10196 
10157 
10189 
10174 
10171 
10179 
10146 
10142 
10166 
10169 
10146 
10140 
10156 
10144 
10138 
10125 
10192 
10190 
10176 
10138 
10151 
10178 
10162 
10159 
10151 
10210 
10214 
10182 
10217 
10244 
10209 
10202 
10198 
10227 
10200 
10204 
10243 
10187 
10197 
10204 
10142 
10122 
10165 
10150 
10142 
10140 
10137 
10147 
10143 
10165 
10145 
10151 
10155 
10155 
10152 
10189 
10113 
10137 
10164 
10143 
10220 
10283 
10478 
10727 
10797 
10796 
10633 
10377 
10155 
9945 
9822 
9841 
9949 
10039 
10108 
10156 
10154 
10187 
10198 
10195 
10203 
10193 
10177 
10180 
10186 
10186 
10189 
10177 
10208 
10250 
10219 
10235 
10263 
10215 
10203 
10193 
10213 
10240 
10271 
10245 
10269 
10268 
10265 
10295 
10265 
10296 
10262 
10245 
10314 
10326 
10297 
10266 
10270 
10324 
10338 
10344 
10325 
10339 
10353 
10338 
10361 
10412 
10433 
10434 
10446 
10442 
10416 
10238 
10220 
10294 
10351 
10322 
10304 
10323 
10224 
10230 
10249 
10187 
10156 
10145 
10123 
10116 
10107 
10105 
10098 
10114 
10130 
10091 
10041 
10064 
10116 
10096 
10050 
10048 
10055 
10092 
10109 
10122 
10102 
10076 
10045 
10057 
10053 
10036 
10058 
10064 
10091 
10075 
10096 
10088 
10109 
10117 
10074 
10073 
10100 
10097 
10099 
10109 
10264 
10336 
10221 
10176 
10179 
10176 
10154 
10131 
10161 
10158 
10148 
10120 
10093 
10121 
10103 
10112 
10116 
10100 
10117 
10120 
10147 
10098 
10106 
10150 
10080 
10111 
10117 
10091 
10086 
10068 
10110 
10117 
10114 
10091 
10080 
10100 
10124 
10052 
10061 
10128 
10138 
10078 
10111 
10128 
10131 
10141 
10131 
10077 
10057 
10076 
10094 
10075 
10069 
10084 
10126 
10128 
10127 
10112 
10125 
10125 
10138 
10163 
10136 
10126 
10135 
10160 
10214 
10198 
10109 
10147 
10161 
10135 
10129 
10177 
10139 
10080 
10086 
10100 
10150 
10097 
10096 
10071 
10073 
10091 
10120 
10111 
10111 
10107 
10070 
10105 
10081 
10066 
10067 
10036 
10076 
10201 
10317 
10554 
10819 
10867 
10720 
10491 
10302 
10080 
9904 
9862 
9916 
9998 
10048 
10125 
10108 
10091 
10115 
10122 
10138 
10126 
10133 
10138 
10162 
10183 
10147 
10131 
10137 
10147 
10187 
10193 
10173 
10172 
10219 
10180 
10166 
10239 
10215 
10197 
10226 
10254 
10200 
10153 
10227 
10234 
10258 
10253 
10276 
10274 
10268 
10241 
10267 
10338 
10322 
10312 
10289 
10329 
10341 
10377 
10371 
10311 
10183 
10273 
10310 
10304 
10356 
10354 
10373 
10381 
10375 
10351 
10332 
10302 
10282 
10298 
10246 
10243 
10243 
10175 
10148 
10138 
10166 
10150 
10119 
10121 
10096 
10092 
10099 
10063 
10084 
10079 
10089 
10121 
10048 
10032 
10101 
10078 
10061 
10103 
10093 
10109 
10059 
10051 
10071 
10075 
10120 
10079 
10080 
10100 
10106 
10064 
10084 
10092 
10120 
10101 
10113 
10087 
10127 
10332 
10285 
10210 
10182 
10176 
10166 
10143 
10119 
10151 
10135 
10146 
10118 
10129 
10153 
10134 
10145 
10133 
10134 
10129 
10099 
10095 
10124 
10118 
10110 
10076 
10090 
10120 
10103 
10146 
10136 
10118 
10095 
10090 
10093 
10091 
10142 
10145 
10079 
10111 
10127 
10089 
10110 
10138 
10092 
10099 
10100 
10106 
10101 
10106 
10130 
10121 
10076 
10070 
10091 
10133 
10112 
10095 
10147 
10178 
10164 
10068 
10091 
10113 
10113 
10104 
10111 
10079 
10094 
10145 
10105 
10096 
10125 
10151 
10144 
10161 
10157 
10102 
10132 
10149 
10162 
10173 
10149 
10189 
10166 
10208 
10198 
10197 
10139 
10099 
10111 
10113 
10149 
10119 
10124 
10118 
10096 
10122 
10120 
10066 
10100 
10095 
10132 
10121 
10066 
10071 
10106 
10112 
10081 
10091 
10128 
10200 
10399 
10650 
10824 
10929 
10803 
10551 
10306 
10098 
9925 
9884 
9974 
10011 
10080 
10139 
10134 
10148 
10167 
10112 
10124 
10186 
10221 
10195 
10156 
10131 
10172 
10194 
10192 
10161 
10214 
10186 
10118 
10175 
10208 
10193 
10221 
10246 
10245 
10216 
10170 
10210 
10237 
10265 
10294 
10237 
10233 
10246 
10261 
10287 
10267 
10296 
10314 
10351 
10305 
10292 
10357 
10352 
10381 
10409 
10381 
10385 
10402 
10250 
10231 
10310 
10352 
10376 
10402 
10369 
10367 
10405 
10405 
10368 
10308 
10300 
10292 
10341 
10252 
10155 
10177 
10165 
10152 
10165 
10145 
10150 
10127 
10117 
10099 
10129 
10079 
10093 
10105 
10127 
10134 
10138 
10141 
10102 
10110 
10073 
10092 
10105 
10080 
10081 
10107 
10114 
10147 
10133 
10151 
10130 
10095 
10089 
10092 
10178 
10229 
10160 
10109 
10134 
10255 
10309 
10236 
10217 
10191 
10181 
10204 
10248 
10201 
10167 
10148 
10160 
10144 
10147 
10154 
10185 
10150 
10150 
10174 
10223 
10128 
10124 
10162 
10142 
10162 
10114 
10149 
10154 
10164 
10146 
10110 
10112 
10136 
10114 
10134 
10143 
10136 
10167 
10164 
10141 
10130 
10109 
10097 
10133 
10115 
10149 
10176 
10161 
10111 
10107 
10105 
10121 
10126 
10134 
10138 
10135 
10113 
10122 
10109 
10136 
10156 
10138 
10146 
10153 
10086 
10065 
10134 
10179 
10178 
10134 
10141 
10157 
10165 
10147 
10138 
10169 
10182 
10189 
10179 
10177 
10173 
10175 
10215 
10236 
10211 
10149 
10103 
10104 
10108 
10094 
10057 
10115 
10144 
10132 
10168 
10136 
10085 
10115 
10117 
10108 
10116 
10140 
10156 
10111 
10071 
10097 
10133 
10186 
10355 
10633 
10859 
10898 
10755 
10478 
10203 
10006 
9812 
9815 
9924 
10033 
10065 
10061 
10109 
10182 
10166 
10162 
10154 
10152 
10156 
10207 
10221 
10197 
10184 
10159 
10164 
10162 
10203 
10198 
10231 
10190 
10212 
10260 
10225 
10237 
10231 
10223 
10250 
10262 
10263 
10254 
10298 
10261 
10256 
10294 
10292 
10266 
10306 
10302 
10296 
10342 
10348 
10356 
10333 
10390 
10431 
10427 
10414 
10436 
10438 
10421 
10443 
10398 
10246 
10316 
10362 
10370 
10402 
10388 
10351 
10364 
10366 
10346 
10297 
10242 
10233 
10199 
10187 
10228 
10167 
10140 
10138 
10133 
10137 
10144 
10122 
10124 
10103 
10119 
10113 
10084 
10100 
10113 
10103 
10124 
10096 
10064 
10119 
10127 
10123 
10158 
10158 
10130 
10125 
10171 
10138 
10149 
10162 
10136 
10129 
10078 
10138 
10131 
10128 
10136 
10192 
10341 
10306 
10258 
10200 
10231 
10207 
10232 
10229 
10187 
10203 
10194 
10176 
10133 
10136 
10170 
10160 
10204 
10174 
10145 
10130 
10123 
10130 
10135 
10127 
10142 
10155 
10156 
10140 
10178 
10195 
10119 
10111 
10106 
10156 
10143 
10126 
10137 
10149 
10152 
10123 
10159 
10165 
10118 
10118 
10119 
10088 
10074 
10126 
10197 
10154 
10144 
10143 
10111 
10146 
10162 
10170 
10181 
10150 
10164 
10168 
10164 
10172 
10164 
10164 
10143 
10193 
10169 
10178 
10192 
10208 
10223 
10194 
10166 
10148 
10129 
10118 
10143 
10199 
10187 
10157 
10127 
10109 
10096 
10110 
10125 
10130 
10126 
10106 
10125 
10147 
10138 
10121 
10150 
10150 
10097 
10210 
10406 
10584 
10783 
10915 
10801 
10568 
10316 
10084 
9905 
9839 
9913 
10017 
10082 
10104 
10128 
10175 
10217 
10205 
10128 
10144 
10182 
10163 
10172 
10202 
10209 
10175 
10198 
10206 
10211 
10226 
10205 
10219 
10243 
10227 
10228 
10234 
10254 
10258 
10270 
10241 
10213 
10198 
10230 
10259 
10246 
10274 
10305 
10348 
10288 
10305 
10358 
10346 
10320 
10338 
10343 
10390 
10371 
10394 
10436 
10417 
10415 
10423 
10277 
10232 
10316 
10341 
10367 
10394 
10396 
10397 
10408 
10361 
10311 
10295 
10296 
10266 
10253 
10223 
10208 
10237 
10213 
10137 
10165 
10188 
10136 
10073 
10107 
10113 
10145 
10090 
10082 
10095 
10119 
10123 
10141 
10100 
10143 
10164 
10137 
10106 
10127 
10143 
10131 
10158 
10164 
10129 
10086 
10083 
10136 
10131 
10137 
10166 
10147 
10155 
10190 
10170 
10222 
10340 
10293 
10267 
10253 
10258 
10191 
10143 
10218 
10255 
10192 
10132 
10150 
10170 
10161 
10130 
10118 
10188 
10196 
10199 
10196 
10164 
10160 
10151 
10128 
10152 
10162 
10144 
10152 
10181 
10175 
10160 
10128 
10186 
10140 
10136 
10080 
10143 
10154 
10131 
10144 
10170 
10158 
10124 
10167 
10155 
10114 
10093 
10154 
10138 
10138 
10172 
10160 
10131 
10122 
10138 
10159 
10132 
10135 
10180 
10144 
10126 
10152 
10189 
10163 
10151 
10119 
10114 
10137 
10161 
10146 
10141 
10119 
10106 
10167 
10163 
10132 
10161 
10138 
10124 
10144 
10155 
10139 
10168 
10204 
10209 
10183 
10163 
10225 
10171 
10219 
10217 
10232 
10240 
10228 
10162 
10141 
10153 
10096 
10130 
10127 
10127 
10116 
10162 
10135 
10117 
10142 
10125 
10099 
10118 
10171 
10123 
10106 
10135 
10133 
10086 
10107 
10180 
10311 
10509 
10755 
10986 
10890 
10649 
10417 
10228 
10038 
9942 
9952 
9998 
10109 
10137 
10153 
10188 
10187 
10194 
10165 
10167 
10175 
10186 
10196 
10223 
10192 
10148 
10162 
10216 
10188 
10185 
10225 
10215 
10200 
10222 
10257 
10268 
10255 
10229 
10249 
10250 
10261 
10262 
10254 
10271 
10280 
10276 
10297 
10292 
10259 
10284 
10298 
10346 
10341 
10338 
10379 
10365 
10376 
10413 
10415 
10416 
10383 
10315 
10216 
10292 
10355 
10395 
10413 
10393 
10386 
10370 
10376 
10374 
10380 
10346 
10316 
10319 
10246 
10240 
10254 
10243 
10214 
10188 
10220 
10200 
10192 
10114 
10133 
10129 
10139 
10126 
10095 
10130 
10145 
10114 
10136 
10113 
10112 
10124 
10122 
10151 
10139 
10135 
10112 
10157 
10129 
10129 
10117 
10115 
10140 
10175 
10163 
10119 
10143 
10138 
10113 
10171 
10122 
10205 
10403 
10312 
10294 
10258 
10215 
10186 
10189 
10217 
10252 
10181 
10157 
10203 
10197 
10204 
10192 
10170 
10201 
10156 
10135 
10162 
10189 
10137 
10146 
10216 
10189 
10165 
10143 
10158 
10167 
10179 
10151 
10167 
10188 
10166 
10152 
10158 
10170 
10172 
10111 
10107 
10148 
10170 
10133 
10134 
10166 
10189 
10167 
10125 
10144 
10181 
10184 
10132 
10160 
10155 
10126 
10134 
10153 
10165 
10143 
10142 
10178 
10176 
10145 
10151 
10129 
10149 
10168 
10156 
10154 
10160 
10178 
10157 
10105 
10188 
10178 
10130 
10129 
10157 
10178 
10171 
10159 
10175 
10188 
10133 
10155 
10196 
10188 
10219 
10205 
10200 
10208 
10211 
10176 
10160 
10194 
10206 
10226 
10234 
10234 
10180 
10149 
10161 
10163 
10156 
10164 
10139 
10180 
10174 
10167 
10129 
10157 
10159 
10128 
10114 
10089 
10140 
10188 
10192 
10125 
10163 
10165 
10174 
10342 
10586 
10801 
10973 
10937 
10719 
10482 
10178 
9982 
9873 
9943 
10027 
10090 
10151 
10193 
10200 
10239 
10225 
10196 
10236 
10215 
10207 
10186 
10216 
10165 
10195 
10234 
10215 
10227 
10220 
10239 
10250 
10259 
10245 
10278 
10257 
10250 
10261 
10320 
10291 
10284 
10292 
10343 
10356 
10301 
10260 
10297 
10325 
10337 
10312 
10319 
10335 
10365 
10402 
10428 
10406 
10444 
10457 
10468 
10434 
10405 
10296 
10319 
10370 
10403 
10457 
10467 
10480 
10429 
10401 
10417 
10422 
10388 
10359 
10325 
10334 
10339 
10347 
10274 
10241 
10268 
10197 
10199 
10194 
10167 
10174 
10193 
10162 
10111 
10183 
10148 
10082 
10137 
10118 
10162 
10137 
10138 
10168 
10182 
10141 
10121 
10124 
10183 
10199 
10151 
10172 
10185 
10169 
10149 
10153 
10180 
10177 
10129 
10182 
10170 
10143 
10139 
10267 
10411 
10312 
10215 
10209 
10248 
10243 
10228 
10224 
10242 
10229 
10220 
10222 
10180 
10184 
10220 
10182 
10213 
10201 
10186 
10144 
10170 
10201 
10203 
10149 
10172 
10157 
10125 
10181 
10195 
10197 
10230 
10221 
10128 
10137 
10165 
10171 
10173 
10206 
10199 
10164 
10155 
10111 
10131 
10173 
10169 
10157 
10203 
10210 
10154 
10164 
10136 
10145 
10139 
10150 
10188 
10145 
10197 
10208 
10202 
10162 
10144 
10157 
10145 
10164 
10147 
10132 
10187 
10157 
10163 
10168 
10203 
10196 
10182 
10187 
10169 
10186 
10237 
10218 
10206 
10222 
10283 
10273 
10225 
10206 
10191 
10175 
10207 
10177 
10159 
10170 
10170 
10171 
10165 
10139 
10103 
10135 
10175 
10178 
10157 
10154 
10122 
10129 
10115 
10131 
10149 
10128 
10152 
10229 
10397 
10612 
10861 
10983 
10857 
10651 
10397 
10137 
9946 
9879 
9978 
10057 
10109 
10158 
10205 
10162 
10163 
10180 
10222 
10189 
10197 
10234 
10241 
10244 
10211 
10175 
10213 
10195 
10232 
10260 
10225 
10231 
10236 
10268 
10286 
10265 
10271 
10276 
10260 
10261 
10280 
10248 
10310 
10306 
10275 
10318 
10308 
10305 
10289 
10324 
10331 
10360 
10415 
10370 
10414 
10442 
10407 
10411 
10445 
10463 
10460 
10476 
10472 
10352 
10297 
10336 
10387 
10417 
10412 
10394 
10405 
10439 
10376 
10346 
10329 
10361 
10311 
10277 
10253 
10190 
10184 
10189 
10166 
10207 
10198 
10159 
10124 
10142 
10147 
10144 
10152 
10162 
10168 
10113 
10130 
10147 
10181 
10173 
10130 
10115 
10164 
10165 
10128 
10137 
10175 
10137 
10159 
10169 
10164 
10203 
10190 
10147 
10183 
10167 
10149 
10185 
10271 
10433 
10342 
10293 
10281 
10306 
10290 
10209 
10221 
10255 
10206 
10215 
10213 
10194 
10198 
10209 
10195 
10193 
10209 
10226 
10182 
10184 
10236 
10266 
10205 
10183 
10174 
10146 
10197 
10208 
10168 
10152 
10183 
10209 
10222 
10224 
10131 
10171 
10204 
10196 
10175 
10159 
10199 
10197 
10202 
10204 
10240 
10197 
10179 
10184 
10197 
10203 
10222 
10207 
10190 
10226 
10208 
10165 
10145 
10175 
10145 
10159 
10178 
10196 
10178 
10184 
10207 
10176 
10201 
10201 
10224 
10253 
10253 
10229 
10251 
10251 
10257 
10241 
10211 
10212 
10207 
10245 
10275 
10233 
10245 
10293 
10254 
10153 
10132 
10185 
10191 
10171 
10230 
10266 
10228 
10175 
10211 
10234 
10189 
10175 
10135 
10129 
10126 
10188 
10201 
10220 
10234 
10317 
10505 
10706 
10891 
10974 
10753 
10530 
10341 
10104 
9972 
9967 
9989 
10054 
10143 
10162 
10201 
10210 
10235 
10254 
10226 
10204 
10174 
10218 
10251 
10246 
10211 
10196 
10275 
10293 
10277 
10261 
10300 
10324 
10324 
10334 
10313 
10317 
10297 
10312 
10309 
10311 
10317 
10318 
10319 
10291 
10292 
10323 
10355 
10362 
10385 
10392 
10387 
10409 
10444 
10422 
10466 
10468 
10510 
10545 
10468 
10472 
10521 
10525 
10489 
10514 
10350 
10311 
10405 
10405 
10444 
10480 
10462 
10465 
10510 
10392 
10324 
10307 
10269 
10300 
10300 
10265 
10230 
10236 
10213 
10215 
10154 
10178 
10202 
10184 
10246 
10215 
10202 
10216 
10224 
10201 
10159 
10144 
10157 
10144 
10195 
10209 
10176 
10130 
10198 
10185 
10202 
10190 
10214 
10229 
10201 
10212 
10205 
10229 
10231 
10231 
10192 
10222 
10241 
10345 
10467 
10366 
10299 
10294 
10280 
10264 
10296 
10255 
10262 
10250 
10241 
10251 
10205 
10210 
10243 
10246 
10214 
10247 
10249 
10230 
10243 
10213 
10203 
10222 
10230 
10219 
10209 
10248 
10238 
10187 
10196 
10236 
10239 
10237 
10212 
10198 
10179 
10162 
10208 
10225 
10216 
10198 
10211 
10229 
10231 
10243 
10190 
10199 
10244 
10227 
10260 
10280 
10308 
10283 
10218 
10259 
10248 
10240 
10248 
10295 
10286 
10251 
10241 
10231 
10213 
10189 
10211 
10232 
10172 
10151 
10149 
10174 
10194 
10197 
10190 
10189 
10207 
10229 
10189 
10178 
10208 
10192 
10202 
10285 
10424 
10680 
10875 
10938 
10819 
10534 
10277 
10101 
9935 
9835 
9929 
10039 
10114 
10162 
10194 
10198 
10232 
10261 
10267 
10252 
10248 
10254 
10281 
10269 
10213 
10174 
10208 
10237 
10218 
10306 
10328 
10308 
10324 
10310 
10288 
10291 
10358 
10409 
10290 
10264 
10268 
10291 
10333 
10343 
10352 
10316 
10354 
10380 
10362 
10350 
10371 
10408 
10446 
10398 
10435 
10446 
10468 
10514 
10495 
10501 
10481 
10475 
10495 
10513 
10555 
10603 
10532 
10282 
10302 
10385 
10385 
10361 
10365 
10319 
10353 
10326 
10238 
10252 
10257 
10260 
10243 
10211 
10208 
10182 
10175 
10188 
10179 
10207 
10169 
10136 
10155 
10151 
10137 
10097 
10114 
10145 
10131 
10119 
10105 
10125 
10148 
10145 
10207 
10208 
10175 
10150 
10145 
10184 
10191 
10191 
10161 
10162 
10196 
10190 
10172 
10177 
10214 
10347 
10292 
10264 
10255 
10258 
10261 
10244 
10224 
10225 
10248 
10186 
10185 
10171 
10175 
10150 
10141 
10109 
10071 
10020 
9994 
10007 
10046 
10027 
10049 
10020 
9984 
9981 
9971 
9976 
9998 
9965 
10033 
10004 
9987 
9992 
9977 
10017 
10038 
10000 
10000 
10003 
9984 
9978 
9997 
9994 
9967 
9990 
9969 
9981 
10009 
9999 
10006 
10050 
10051 
9981 
9942 
9989 
10016 
10041 
10056 
10029 
10010 
10052 
10082 
10060 
10059 
10024 
10019 
10012 
10025 
10078 
10009 
9964 
9981 
9962 
9972 
9974 
9995 
9965 
9929 
9914 
9947 
9979 
10005 
10009 
9981 
9948 
9925 
9911 
9962 
10031 
10192 
10398 
10611 
10707 
10567 
10394 
10145 
9928 
9782 
9741 
9804 
9867 
9945 
9970 
9969 
9977 
10022 
10029 
10020 
10010 
10019 
10012 
10010 
10038 
10022 
10015 
9992 
10037 
10050 
10087 
10090 
10047 
10008 
10007 
10066 
10067 
10044 
10064 
10046 
10054 
10047 
10067 
10077 
10124 
10110 
10053 
10111 
10146 
10128 
10192 
10202 
10118 
10184 
10115 
10118 
10134 
10191 
10180 
10208 
10268 
10279 
10159 
10024 
10119 
10154 
10174 
10215 
10263 
10224 
10194 
10197 
10168 
10167 
10133 
10069 
10049 
10069 
10001 
9998 
9969 
9986 
9977 
9925 
9977 
9996 
9980 
9926 
9900 
9923 
9958 
9939 
9887 
9878 
9918 
9924 
9909 
9885 
9960 
9940 
9936 
9917 
9910 
9908 
9898 
9896 
9899 
9970 
9946 
9968 
9972 
9914 
9945 
9967 
9964 
9938 
9964 
9939 
10049 
10112 
10051 
10055 
10024 
9989 
10005 
9983 
9968 
9986 
9999 
9984 
9946 
9939 
9952 
9967 
10011 
9964 
9977 
10009 
9964 
9986 
9969 
9949 
9923 
9926 
9911 
9951 
9947 
9984 
9968 
9930 
9916 
9914 
9941 
9951 
9926 
9980 
9966 
10003 
9997 
9975 
9930 
9915 
9898 
9932 
9937 
9946 
9964 
9949 
9947 
9921 
9955 
9929 
9950 
9989 
9970 
9918 
9960 
10007 
9991 
9929 
9967 
9961 
9934 
9908 
9999 
10009 
10024 
10007 
9950 
9945 
9959 
9960 
9986 
10007 
10003 
9973 
9985 
10015 
9965 
9911 
9900 
9923 
9947 
9916 
9908 
9899 
9933 
9939 
9883 
9915 
9951 
9975 
9964 
9945 
9946 
9957 
9965 
10070 
10169 
10395 
10633 
10749 
10536 
10293 
10051 
9862 
9727 
9683 
9770 
9824 
9958 
9968 
9964 
9995 
10029 
10038 
10021 
9968 
10003 
10042 
10015 
9986 
9972 
9999 
9943 
9953 
9988 
10016 
10044 
10013 
10032 
10043 
10072 
10010 
10035 
10019 
10057 
10058 
10064 
10059 
10052 
10086 
10041 
10076 
10106 
10070 
10070 
10106 
10120 
10097 
10147 
10175 
10179 
10192 
10227 
10184 
10215 
10290 
10283 
10163 
9972 
10080 
10127 
10107 
10162 
10197 
10180 
10200 
10166 
10150 
10102 
10097 
10091 
10073 
10019 
10057 
10045 
10024 
10009 
9986 
9914 
9938 
9898 
9875 
9865 
9893 
9885 
9897 
9887 
9897 
9919 
9897 
9917 
9884 
9923 
9955 
9937 
9912 
9927 
9895 
9882 
9955 
9964 
9926 
9916 
9938 
9948 
9919 
9929 
9922 
9902 
9914 
9929 
9938 
9949 
10005 
10139 
10188 
10076 
10013 
9977 
10022 
10085 
10044 
10012 
9961 
9962 
9973 
9951 
9971 
9970 
9975 
9965 
9918 
9962 
9943 
9959 
9933 
9932 
9951 
9933 
9947 
9956 
9934 
9957 
9978 
9936 
9934 
9927 
9940 
9969 
9915 
9886 
9886 
9906 
9939 
9904 
9921 
9949 
9914 
9941 
9966 
9918 
9890 
9945 
9946 
9893 
9911 
9935 
9949 
9944 
9961 
9914 
9883 
9912 
9961 
9916 
9942 
9951 
9895 
9912 
9982 
9964 
9943 
9921 
9934 
9959 
9974 
9948 
9959 
9957 
9892 
9911 
9930 
9978 
9988 
9968 
9957 
9978 
10011 
10044 
9992 
9947 
9954 
9966 
9915 
9942 
9956 
9940 
9927 
9911 
9925 
9922 
9936 
9921 
9932 
9954 
9938 
9907 
9911 
9914 
9943 
9988 
9965 
9914 
9921 
9981 
10082 
10267 
10458 
10665 
10697 
10473 
10197 
9914 
9742 
9602 
9668 
9770 
9835 
9896 
9905 
9947 
9954 
9968 
9968 
9973 
9965 
9953 
9969 
9971 
9952 
9983 
10036 
10018 
10021 
10042 
9972 
10025 
9993 
9950 
10006 
10060 
9995 
10042 
10040 
10014 
10055 
10075 
10037 
10053 
9922 
9818 
9927 
10003 
10018 
9965 
10049 
10121 
10109 
10065 
10139 
10176 
10122 
10135 
10121 
10166 
10204 
10240 
10271 
10262 
10241 
10252 
10274 
10210 
10197 
10178 
10214 
10229 
10181 
10121 
10094 
10096 
10106 
10054 
10053 
10005 
10004 
10048 
10012 
9999 
9909 
9879 
9927 
9950 
9953 
9938 
9931 
9987 
9991 
9952 
9952 
9910 
9955 
9965 
9951 
9947 
9984 
9970 
9983 
9961 
9978 
9975 
9960 
9975 
9995 
10003 
9986 
9939 
9961 
10000 
9994 
9974 
9983 
9986 
9989 
9958 
9960 
9989 
10028 
10022 
10013 
10151 
10209 
10172 
10131 
10077 
10033 
10045 
10003 
9999 
9991 
9987 
10019 
9996 
10026 
10064 
10002 
9951 
9990 
9998 
10017 
10048 
10035 
9991 
9934 
9942 
9948 
9971 
9979 
9978 
9955 
9980 
9990 
9995 
10002 
9953 
9947 
9963 
9999 
10049 
9995 
9928 
9911 
9910 
9919 
9944 
9951 
9972 
9954 
9920 
9910 
9913 
9960 
9958 
9937 
9940 
9914 
9947 
9954 
9922 
9981 
10020 
9981 
9923 
9915 
9907 
9911 
9979 
9976 
9974 
9998 
9966 
9942 
9960 
9972 
9950 
9918 
9947 
9915 
9917 
9907 
9914 
9897 
9897 
9864 
9863 
9875 
9841 
9856 
9912 
9913 
9908 
9886 
9857 
9858 
9831 
9875 
10023 
10230 
10439 
10574 
10599 
10412 
10153 
9977 
9744 
9602 
9601 
9694 
9792 
9810 
9826 
9900 
9902 
9887 
9885 
9926 
9935 
9942 
9949 
9919 
9948 
9955 
9991 
9981 
9945 
9927 
9891 
9991 
9968 
9947 
10018 
9985 
9959 
9946 
9964 
9982 
9984 
9997 
10001 
10027 
9997 
9980 
9987 
10045 
10099 
10041 
10052 
10053 
10038 
10031 
10056 
10053 
10092 
10122 
10150 
10156 
10129 
10106 
10110 
10185 
10210 
10226 
10199 
10151 
10111 
10136 
10148 
10155 
10082 
10060 
10046 
9972 
9987 
10018 
9975 
9918 
9881 
9885 
9866 
9904 
9927 
9897 
9828 
9823 
9868 
9858 
9852 
9855 
9825 
9850 
9857 
9821 
9763 
9762 
9785 
9783 
9636 
9602 
9657 
9670 
9718 
9765 
9831 
9792 
9743 
9752 
9769 
9794 
9813 
9833 
9854 
9796 
9740 
9774 
9765 
9791 
9797 
9862 
9799 
9765 
9788 
9825 
9818 
9810 
9840 
9839 
9834 
9790 
9774 
9791 
9816 
9861 
9836 
9788 
9826 
9793 
9787 
9753 
9761 
9791 
9785 
9789 
9841 
9837 
9844 
9768 
9722 
9777 
9780 
9769 
9728 
9779 
9795 
9815 
9784 
9813 
9837 
9833 
9774 
9744 
9778 
9924 
9984 
9904 
9924 
9875 
9837 
9832 
9805 
9807 
9807 
9791 
9815 
9834 
9843 
9864 
9788 
9775 
9794 
9765 
9791 
9762 
9768 
9789 
9781 
9776 
9764 
9741 
9771 
9801 
9780 
9797 
9763 
9778 
9783 
9820 
9790 
9772 
9770 
9786 
9797 
9809 
9841 
9862 
9790 
9795 
9802 
9790 
9839 
9836 
9795 
9828 
9786 
9758 
9750 
9760 
9738 
9720 
9729 
9733 
9734 
9753 
9767 
9766 
9739 
9712 
9704 
9767 
9740 
9697 
9694 
9728 
9768 
9858 
10016 
10176 
10383 
10393 
10196 
10011 
9845 
9630 
9524 
9504 
9580 
9655 
9684 
9739 
9772 
9767 
9734 
9764 
9800 
9788 
9749 
9728 
9750 
9750 
9753 
9795 
9786 
9819 
9812 
9769 
9835 
9822 
9800 
9793 
9822 
9812 
9783 
9799 
9812 
9798 
9817 
9843 
9846 
9882 
9867 
9868 
9851 
9866 
9907 
9887 
9914 
9931 
9919 
9875 
9935 
9934 
9927 
9967 
9966 
9993 
9998 
9944 
9996 
10027 
10051 
10090 
10066 
10065 
10023 
10003 
9985 
9958 
9940 
9903 
9870 
9873 
9904 
9839 
9843 
9832 
9788 
9814 
9808 
9776 
9767 
9751 
9706 
9670 
9705 
9715 
9774 
9762 
9752 
9698 
9685 
9711 
9705 
9700 
9733 
9689 
9680 
9664 
9728 
9740 
9705 
9723 
9729 
9693 
9648 
9638 
9706 
9726 
9673 
9705 
9704 
9750 
9722 
9733 
9728 
9723 
9738 
9752 
9730 
9726 
9691 
9735 
9774 
9718 
9670 
9717 
9764 
9762 
9746 
9722 
9680 
9694 
9717 
9682 
9724 
9730 
9700 
9702 
9717 
9733 
9723 
9705 
9708 
9728 
9716 
9655 
9680 
9712 
9726 
9715 
9723 
9756 
9709 
9708 
9716 
9659 
9701 
9697 
9667 
9672 
9672 
9676 
9657 
9667 
9674 
9618 
9647 
9687 
9705 
9684 
9660 
9653 
9700 
9697 
9690 
9655 
9686 
9747 
9688 
9653 
9654 
9610 
9625 
9673 
9662 
9645 
9643 
9681 
9644 
9643 
9665 
9639 
9668 
9688 
9666 
9625 
9619 
9651 
9684 
9695 
9680 
9682 
9675 
9647 
9654 
9648 
9661 
9677 
9657 
9653 
9678 
9713 
9697 
9674 
9689 
9728 
9743 
9721 
9691 
9704 
9695 
9707 
9683 
9674 
9617 
9627 
9642 
9641 
9636 
9628 
9646 
9642 
9638 
9594 
9633 
9637 
9625 
9624 
9647 
9647 
9636 
9640 
9706 
9821 
10002 
10228 
10381 
10350 
10114 
9858 
9716 
9565 
9367 
9432 
9473 
9548 
9650 
9673 
9669 
9669 
9686 
9705 
9727 
9696 
9673 
9669 
9696 
9722 
9665 
9676 
9673 
9706 
9738 
9682 
9709 
9708 
9689 
9709 
9729 
9737 
9763 
9780 
9763 
9724 
9753 
9768 
9767 
9743 
9781 
9824 
9807 
9759 
9790 
9816 
9795 
9830 
9818 
9837 
9817 
9869 
9879 
9903 
9930 
9923 
9911 
9960 
9950 
9904 
9935 
9963 
9997 
9973 
9916 
9919 
9955 
9929 
9871 
9853 
9857 
9804 
9748 
9758 
9761 
9713 
9714 
9710 
9706 
9669 
9660 
9670 
9653 
9670 
9612 
9597 
9660 
9613 
9623 
9641 
9624 
9600 
9583 
9621 
9650 
9653 
9663 
9613 
9615 
9622 
9656 
9711 
9661 
9658 
9640 
9649 
9638 
9656 
9638 
9660 
9681 
9660 
9663 
9642 
9629 
9687 
9657 
9660 
9660 
9667 
9659 
9658 
9646 
9657 
9639 
9648 
9646 
9671 
9663 
9642 
9602 
9611 
9676 
9668 
9643 
9658 
9656 
9626 
9642 
9656 
9630 
9615 
9642 
9645 
9648 
9666 
9667 
9634 
9589 
9629 
9666 
9620 
9614 
9643 
9635 
9616 
9624 
9621 
9618 
9662 
9656 
9630 
9610 
9630 
9606 
9615 
9602 
9664 
9655 
9620 
9625 
9611 
9632 
9630 
9660 
9663 
9655 
9639 
9613 
9618 
9605 
9653 
9678 
9670 
9662 
9601 
9637 
9666 
9667 
9625 
9662 
9665 
9615 
9618 
9637 
9630 
9650 
9660 
9675 
9666 
9635 
9636 
9631 
9639 
9687 
9623 
9606 
9648 
9659 
9644 
9645 
9665 
9662 
9624 
9634 
9625 
9626 
9677 
9672 
9633 
9682 
9686 
9670 
9698 
9702 
9705 
9676 
9681 
9695 
9684 
9683 
9723 
9688 
9687 
9667 
9648 
9622 
9588 
9602 
9622 
9616 
9651 
9666 
9636 
9630 
9660 
9619 
9600 
9627 
9640 
9607 
9586 
9594 
9633 
9665 
9731 
9893 
10088 
10310 
10361 
10199 
10008 
9754 
9541 
9370 
9330 
9480 
9587 
9568 
9561 
9627 
9657 
9676 
9654 
9695 
9685 
9664 
9630 
9654 
9703 
9689 
9686 
9690 
9733 
9699 
9698 
9741 
9719 
9745 
9749 
9727 
9683 
9693 
9706 
9745 
9776 
9803 
9744 
9751 
9822 
9765 
9774 
9792 
9801 
9814 
9800 
9793 
9821 
9823 
9826 
9858 
9901 
9928 
9907 
9884 
9902 
9923 
9947 
9927 
9929 
9941 
9964 
9993 
9988 
9946 
9963 
9960 
9941 
9903 
9850 
9856 
9841 
9828 
9793 
9769 
9733 
9700 
9709 
9729 
9704 
9696 
9663 
9635 
9640 
9695 
9657 
9688 
9638 
9619 
9627 
9667 
9665 
9600 
9562 
9630 
9685 
9658 
9676 
9653 
9634 
9659 
9688 
9643 
9611 
9622 
9631 
9667 
9669 
9663 
9658 
9673 
9690 
9669 
9655 
9644 
9615 
9656 
9623 
9657 
9698 
9687 
9647 
9669 
9661 
9667 
9647 
9614 
9656 
9679 
9684 
9663 
9654 
9612 
9648 
9615 
9621 
9660 
9644 
9635 
9658 
9665 
9712 
9644 
9629 
9654 
9624 
9605 
9643 
9684 
9631 
9591 
9644 
9699 
9675 
9658 
9605 
9625 
9636 
9618 
9638 
9632 
9649 
9669 
9642 
9632 
9605 
9597 
9624 
9634 
9662 
9662 
9643 
9598 
9621 
9624 
9632 
9671 
9675 
9634 
9598 
9587 
9626 
9648 
9600 
9608 
9644 
9634 
9609 
9600 
9644 
9628 
9585 
9599 
9598 
9637 
9650 
9633 
9642 
9628 
9626 
9635 
9659 
9671 
9651 
9632 
9652 
9694 
9685 
9660 
9678 
9669 
9672 
9672 
9653 
9696 
9705 
9675 
9612 
9602 
9604 
9610 
9611 
9644 
9637 
9630 
9629 
9585 
9597 
9630 
9620 
9567 
9580 
9597 
9612 
9622 
9627 
9592 
9542 
9642 
9819 
9972 
10183 
10342 
10310 
10078 
9824 
9642 
9451 
9350 
9381 
9447 
9512 
9582 
9624 
9590 
9635 
9659 
9645 
9635 
9640 
9644 
9663 
9672 
9678 
9673 
9646 
9691 
9672 
9715 
9712 
9690 
9711 
9719 
9720 
9676 
9688 
9684 
9718 
9724 
9730 
9703 
9699 
9727 
9717 
9742 
9763 
9790 
9799 
9744 
9752 
9799 
9857 
9827 
9819 
9862 
9853 
9864 
9870 
9879 
9869 
9871 
9913 
9936 
9945 
9931 
9877 
9924 
9940 
9914 
9900 
9895 
9878 
9871 
9837 
9832 
9781 
9761 
9697 
9679 
9704 
9693 
9668 
9675 
9653 
9639 
9636 
9617 
9619 
9607 
9585 
9559 
9603 
9629 
9587 
9613 
9607 
9615 
9575 
9555 
9575 
9588 
9590 
9618 
9630 
9604 
9613 
9633 
9588 
9578 
9592 
9589 
9601 
9622 
9637 
9629 
9626 
9616 
9631 
9582 
9599 
9627 
9630 
9653 
9608 
9619 
9626 
9617 
9597 
9597 
9617 
9618 
9599 
9593 
9616 
9639 
9608 
9612 
9613 
9636 
9585 
9594 
9616 
9592 
9576 
9602 
9569 
9561 
9558 
9564 
9565 
9583 
9607 
9599 
9573 
9585 
9571 
9584 
9609 
9619 
9587 
9567 
9585 
9642 
9579 
9576 
9600 
9619 
9588 
9589 
9547 
9568 
9579 
9579 
9577 
9586 
9603 
9608 
9588 
9558 
9576 
9563 
9575 
9638 
9609 
9589 
9568 
9568 
9549 
9558 
9595 
9620 
9584 
9593 
9573 
9551 
9577 
9611 
9552 
9541 
9560 
9617 
9582 
9546 
9559 
9599 
9591 
9573 
9569 
9590 
9594 
9587 
9590 
9614 
9595 
9590 
9596 
9589 
9605 
9612 
9635 
9648 
9654 
9615 
9606 
9602 
9667 
9619 
9602 
9679 
9656 
9544 
9501 
9513 
9545 
9594 
9603 
9601 
9587 
9580 
9582 
9591 
9566 
9563 
9552 
9521 
9529 
9565 
9554 
9516 
9512 
9570 
9627 
9810 
10037 
10222 
10338 
10180 
9977 
9758 
9528 
9361 
9298 
9392 
9451 
9506 
9556 
9579 
9603 
9598 
9586 
9601 
9627 
9657 
9601 
9618 
9645 
9635 
9600 
9605 
9621 
9639 
9649 
9649 
9671 
9668 
9638 
9686 
9681 
9674 
9659 
9636 
9665 
9680 
9672 
9686 
9680 
9700 
9696 
9698 
9747 
9774 
9769 
9732 
9702 
9712 
9751 
9758 
9761 
9784 
9791 
9846 
9913 
9868 
9803 
9830 
9883 
9872 
9877 
9883 
9865 
9894 
9871 
9872 
9845 
9800 
9807 
9802 
9759 
9744 
9749 
9687 
9676 
9685 
9661 
9617 
9593 
9565 
9622 
9603 
9554 
9574 
9610 
9612 
9565 
9532 
9590 
9618 
9568 
9510 
9534 
9563 
9552 
9557 
9571 
9563 
9560 
9575 
9546 
9564 
9583 
9570 
9576 
9567 
9564 
9573 
9561 
9576 
9541 
9528 
9572 
9557 
9576 
9582 
9587 
9570 
9580 
9611 
9596 
9576 
9576 
9564 
9571 
9552 
9609 
9566 
9557 
9548 
9575 
9580 
9569 
9558 
9581 
9580 
9541 
9539 
9586 
9564 
9564 
9569 
9549 
9576 
9558 
9541 
9581 
9596 
9538 
9528 
9529 
9530 
9563 
9572 
9555 
9569 
9563 
9544 
9517 
9532 
9570 
9606 
9559 
9520 
9538 
9573 
9597 
9556 
9535 
9505 
9533 
9529 
9539 
9578 
9572 
9541 
9567 
9581 
9493 
9508 
9546 
9562 
9553 
9552 
9545 
9546 
9570 
9560 
9544 
9542 
9562 
9528 
9510 
9529 
9537 
9500 
9538 
9556 
9557 
9513 
9548 
9559 
9543 
9541 
9544 
9550 
9545 
9566 
9566 
9601 
9568 
9565 
9590 
9638 
9591 
9578 
9585 
9561 
9567 
9551 
9601 
9610 
9608 
9607 
9586 
9516 
9498 
9533 
9540 
9510 
9506 
9547 
9533 
9516 
9549 
9534 
9529 
9488 
9513 
9545 
9527 
9473 
9482 
9558 
9621 
9764 
9991 
10239 
10355 
10233 
9979 
9706 
9516 
9338 
9278 
9391 
9494 
9503 
9494 
9565 
9540 
9544 
9566 
9501 
9532 
9578 
9589 
9617 
9619 
9596 
9598 
9588 
9597 
9604 
9608 
9626 
9597 
9616 
9602 
9587 
9631 
9610 
9594 
9629 
9677 
9630 
9627 
9649 
9661 
9683 
9701 
9652 
9657 
9697 
9727 
9754 
9720 
9738 
9737 
9737 
9711 
9742 
9779 
9792 
9770 
9821 
9858 
9806 
9809 
9868 
9866 
9885 
9873 
9854 
9838 
9850 
9811 
9792 
9810 
9784 
9695 
9681 
9711 
9662 
9664 
9638 
9599 
9604 
9598 
9554 
9539 
9541 
9558 
9521 
9525 
9551 
9558 
9562 
9533 
9542 
9518 
9499 
9519 
9547 
9529 
9503 
9533 
9523 
9520 
9532 
9532 
9525 
9531 
9518 
9553 
9592 
9555 
9507 
9543 
9561 
9562 
9556 
9540 
9530 
9497 
9516 
9501 
9523 
9572 
9578 
9572 
9549 
9517 
9553 
9575 
9576 
9614 
9578 
9545 
9534 
9545 
9586 
9581 
9538 
9568 
9553 
9523 
9497 
9494 
9548 
9552 
9535 
9499 
9559 
9589 
9565 
9554 
9556 
9522 
9544 
9552 
9554 
9578 
9567 
9544 
9495 
9527 
9548 
9550 
9511 
9528 
9527 
9534 
9545 
9544 
9532 
9528 
9552 
9545 
9515 
9527 
9528 
9529 
9468 
9504 
9477 
9474 
9466 
9491 
9470 
9466 
9463 
9473 
9451 
9472 
9460 
9456 
9440 
9428 
9415 
9388 
9418 
9422 
9391 
9432 
9435 
9452 
9409 
9389 
9367 
9359 
9373 
9402 
9383 
9384 
9392 
9369 
9384 
9379 
9355 
9372 
9361 
9389 
9396 
9409 
9373 
9362 
9368 
9378 
9381 
9408 
9404 
9395 
9343 
9320 
9322 
9338 
9302 
9286 
9301 
9314 
9302 
9281 
9261 
9289 
9253 
9261 
9262 
9257 
9242 
9267 
9245 
9252 
9258 
9292 
9381 
9580 
9829 
9997 
10015 
9816 
9544 
9295 
9053 
8915 
8937 
9048 
9125 
9156 
9188 
9247 
9235 
9225 
9217 
9227 
9239 
9250 
9245 
9241 
9258 
9214 
9220 
9228 
9306 
9270 
9222 
9161 
9120 
9133 
9186 
9212 
9137 
9111 
9091 
9110 
9127 
9147 
9139 
9132 
9161 
9129 
9144 
9142 
9170 
9163 
9197 
9171 
9199 
9217 
9178 
9164 
9183 
9248 
9240 
9246 
9239 
9243 
9238 
9206 
9240 
9287 
9261 
9260 
9289 
9259 
9272 
9231 
9230 
9200 
9168 
9179 
9128 
9077 
9091 
9043 
8968 
8986 
8992 
8985 
8982 
8952 
8915 
8939 
8923 
8909 
8916 
8926 
8924 
8918 
8889 
8880 
8889 
8895 
8925 
8863 
8856 
8891 
8890 
8868 
8861 
8868 
8865 
8893 
8893 
8890 
8902 
8903 
8859 
8887 
8865 
8912 
8894 
8887 
8871 
8888 
8863 
8840 
8873 
8865 
8909 
8855 
8847 
8877 
8898 
8875 
8796 
8848 
8878 
8864 
8881 
8874 
8869 
8848 
8855 
8853 
8825 
8795 
8765 
8781 
8781 
8739 
8733 
8708 
8774 
8773 
8733 
8737 
8746 
8725 
8693 
8696 
8660 
8687 
8687 
8690 
8703 
8622 
8585 
8573 
8593 
8632 
8637 
8564 
8543 
8565 
8524 
8535 
8546 
8506 
8489 
8521 
8502 
8447 
8453 
8399 
8384 
8412 
8442 
8484 
8428 
8387 
8391 
8430 
8418 
8369 
8445 
8442 
8425 
8404 
8364 
8414 
8413 
8445 
8437 
8397 
8429 
8456 
8444 
8435 
8453 
8437 
8427 
8460 
8484 
8445 
8375 
8399 
8447 
8411 
8332 
8352 
8365 
8362 
8344 
8379 
8365 
8367 
8322 
8328 
8337 
8364 
8352 
8353 
8352 
8377 
8387 
8450 
8554 
8717 
8943 
9067 
9029 
8801 
8531 
8354 
8166 
8052 
8066 
8160 
8271 
8305 
8324 
8351 
8362 
8359 
8351 
8400 
8377 
8384 
8428 
8419 
8411 
8403 
8390 
8402 
8399 
8423 
8433 
8439 
8433 
8416 
8374 
8420 
8420 
8449 
8455 
8434 
8452 
8446 
8452 
8471 
8495 
8467 
8486 
8520 
8465 
8480 
8508 
8509 
8508 
8525 
8539 
8571 
8603 
8560 
8580 
8611 
8619 
8617 
8664 
8663 
8668 
8660 
8625 
8655 
8664 
8667 
8636 
8624 
8609 
8584 
8531 
8538 
8524 
8488 
8463 
8427 
8398 
8403 
8362 
8398 
8405 
8359 
8358 
8326 
8288 
8314 
8283 
8304 
8326 
8302 
8304 
8274 
8287 
8293 
8302 
8307 
8326 
8310 
8316 
8278 
8267 
8293 
8316 
8315 
8296 
8295 
8306 
8315 
8317 
8300 
8260 
8293 
8323 
8321 
8335 
8280 
8255 
8288 
8325 
8324 
8331 
8341 
8296 
8301 
8286 
8316 
8359 
8354 
8300 
8291 
8269 
8284 
8261 
8269 
8287 
8261 
8253 
8240 
8241 
8248 
8244 
8244 
8247 
8264 
8268 
8231 
8193 
8216 
8188 
8180 
8225 
8233 
8202 
8170 
8179 
8214 
8197 
8172 
8147 
8157 
8146 
8158 
8193 
8151 
8137 
8128 
8127 
8154 
8158 
8115 
8107 
8120 
8188 
8161 
8160 
8188 
8175 
8117 
8116 
8111 
8132 
8121 
8145 
8142 
8142 
8145 
8127 
8135 
8128 
8098 
8090 
8137 
8158 
8155 
8137 
8161 
8181 
8159 
8130 
8175 
8208 
8220 
8157 
8149 
8181 
8178 
8178 
8169 
8177 
8188 
8189 
8154 
8144 
8122 
8128 
8155 
8153 
8094 
8105 
8125 
8105 
8119 
8112 
8086 
8094 
8098 
8117 
8076 
8055 
8113 
8106 
8070 
8083 
8189 
8334 
8501 
8737 
8854 
8779 
8594 
8337 
8129 
7930 
7856 
7895 
7952 
8050 
8072 
8094 
8116 
8139 
8144 
8138 
8150 
8139 
8158 
8203 
8156 
8152 
8163 
8141 
8151 
8172 
8193 
8161 
8174 
8204 
8194 
8202 
8195 
8196 
8204 
8210 
8196 
8244 
8257 
8245 
8174 
8189 
8222 
8254 
8295 
8247 
8265 
8268 
8276 
8283 
8289 
8290 
8308 
8303 
8333 
8383 
8393 
8390 
8381 
8377 
8405 
8427 
8442 
8448 
8388 
8395 
8404 
8367 
8379 
8326 
8252 
8245 
8247 
8231 
8168 
8164 
8146 
8140 
8109 
8084 
8095 
8100 
8081 
8047 
8055 
8005 
8015 
8024 
8036 
8029 
8025 
8013 
8006 
7977 
8041 
8051 
8001 
8007 
7967 
7961 
8012 
8005 
7996 
8005 
8035 
8039 
8036 
8036 
8037 
8042 
8031 
7999 
7973 
7999 
8010 
8019 
8041 
8063 
8035 
7995 
7991 
7978 
8021 
8013 
7999 
8014 
8028 
8032 
8001 
8017 
8051 
8021 
8002 
8000 
8010 
8031 
8024 
7981 
7996 
7982 
7992 
8018 
8023 
7985 
8006 
8027 
8017 
7985 
8006 
7988 
7957 
7977 
8014 
7989 
8005 
7994 
8008 
8017 
7961 
7979 
7978 
7961 
8002 
7986 
8012 
8013 
8002 
7951 
7992 
7973 
7971 
7984 
7991 
7978 
8005 
7972 
7938 
7970 
7963 
7955 
7971 
7968 
7963 
7964 
8007 
7981 
7978 
7981 
7960 
7973 
7963 
7965 
7955 
7961 
7967 
7983 
7984 
7989 
7973 
7934 
7949 
7987 
8026 
7985 
7960 
7952 
7963 
7959 
7962 
7975 
7955 
7990 
8010 
8027 
8003 
8003 
7975 
7971 
8005 
8027 
8009 
8017 
8019 
8054 
8035 
8014 
8043 
8021 
7985 
7945 
7952 
7973 
7957 
7968 
7969 
7977 
7954 
7937 
7940 
7940 
7940 
7964 
7945 
7937 
7958 
7950 
7949 
7967 
7920 
7926 
7963 
8012 
8164 
8338 
8589 
8728 
8639 
8431 
8227 
8005 
7816 
7716 
7793 
7834 
7886 
7955 
7970 
7977 
7976 
7963 
7960 
8004 
8019 
8002 
8010 
7980 
7952 
7982 
8030 
8060 
8035 
8049 
8051 
8018 
8003 
7998 
7991 
7998 
8028 
8080 
8060 
8019 
8051 
8102 
8079 
8064 
8044 
8047 
8075 
8064 
8094 
8136 
8121 
8137 
8114 
8079 
8133 
8145 
8174 
8216 
8244 
8260 
8228 
8198 
8243 
8243 
8224 
8263 
8286 
8275 
8253 
8255 
8227 
8215 
8185 
8211 
8170 
8153 
8141 
8093 
8097 
8040 
8031 
8053 
8044 
8017 
7973 
7962 
7949 
7944 
7948 
7963 
7950 
7952 
7932 
7916 
7930 
7946 
7920 
7937 
7925 
7953 
7840 
7647 
7683 
7749 
7819 
7822 
7792 
7815 
7847 
7826 
7884 
7880 
7845 
7853 
7883 
7917 
7928 
7892 
7899 
7900 
7909 
7961 
7951 
7893 
7904 
7925 
7891 
7903 
7920 
7882 
7919 
7929 
7884 
7896 
7908 
7909 
7926 
7921 
7955 
7941 
7916 
7907 
7908 
7924 
7908 
7911 
7903 
7889 
7904 
7944 
7921 
7908 
7883 
7912 
7888 
7888 
7861 
7885 
7912 
7893 
7910 
7906 
7895 
7875 
7876 
8082 
8207 
8116 
8072 
8068 
8053 
8028 
7993 
7972 
7994 
7964 
7943 
7914 
7916 
7918 
7940 
7970 
7968 
7949 
7889 
7887 
7894 
7940 
7963 
7907 
7906 
7929 
7943 
7962 
7916 
7894 
7908 
7865 
7901 
7917 
7940 
7918 
7940 
7946 
7912 
7882 
7850 
7883 
7913 
7892 
7901 
7904 
7926 
7949 
7931 
7922 
7935 
7905 
7918 
7934 
7926 
7950 
7968 
7931 
7940 
7973 
7948 
7954 
7963 
7942 
7944 
7947 
7934 
7916 
7897 
7914 
7876 
7907 
7877 
7884 
7889 
7911 
7869 
7852 
7863 
7855 
7865 
7855 
7851 
7867 
7879 
7870 
7914 
7940 
8027 
8211 
8426 
8600 
8621 
8456 
8184 
7930 
7769 
7649 
7599 
7716 
7787 
7848 
7864 
7850 
7846 
7858 
7898 
7920 
7940 
7930 
7891 
7904 
7871 
7934 
7926 
7929 
7946 
8007 
7962 
7942 
7966 
7957 
7961 
7964 
7961 
7980 
7978 
7995 
7995 
7998 
8011 
7973 
7979 
7998 
8020 
8029 
8035 
8073 
8076 
8089 
8053 
8062 
8047 
8101 
8132 
8120 
8138 
8146 
8178 
8175 
8171 
8174 
8203 
8201 
8220 
8200 
8226 
8214 
8219 
8200 
8188 
8157 
8117 
8079 
8058 
8020 
8004 
8012 
8007 
7962 
7941 
7963 
7951 
7897 
7915 
7899 
7872 
7892 
7910 
7866 
7852 
7832 
7819 
7646 
7623 
7658 
7678 
7729 
7715 
7752 
7748 
7787 
7833 
7805 
7827 
7813 
7816 
7817 
7844 
7861 
7851 
7821 
7819 
7840 
7832 
7828 
7810 
7854 
7893 
7844 
7828 
7831 
7861 
7885 
7863 
7850 
7884 
7941 
7890 
7814 
7857 
7867 
7848 
7839 
7835 
7865 
7889 
7859 
7811 
7832 
7828 
7839 
7869 
7895 
7863 
7842 
7787 
7825 
7837 
7848 
7854 
7840 
7911 
7870 
7796 
7820 
7833 
7848 
7821 
7846 
7865 
7894 
7833 
7829 
7812 
7810 
7836 
7849 
7947 
8151 
8044 
7995 
7956 
7975 
7961 
7957 
7965 
7956 
7924 
7923 
7884 
7894 
7870 
7856 
7873 
7878 
7934 
7881 
7843 
7830 
7877 
7926 
7924 
7929 
7941 
7930 
7906 
7912 
7908 
7931 
7932 
7936 
7952 
7941 
7940 
7928 
7944 
7929 
7882 
7846 
7858 
7899 
7876 
7836 
7842 
7824 
7838 
7853 
7852 
7853 
7855 
7875 
7868 
7835 
7859 
7858 
7901 
7883 
7862 
7898 
7964 
8135 
8339 
8519 
8549 
8382 
8141 
7930 
7751 
7570 
7529 
7630 
7748 
7800 
7841 
7854 
7877 
7871 
7898 
7858 
7893 
7888 
7902 
7907 
7893 
7906 
7923 
7939 
7927 
7933 
7940 
7921 
7935 
7927 
7975 
7985 
7956 
7974 
7964 
7948 
7955 
7937 
7975 
8020 
8017 
7990 
8019 
8037 
7989 
8001 
8016 
8047 
8076 
8080 
8049 
8057 
8110 
8114 
8149 
8159 
8167 
8154 
8152 
8169 
8172 
8173 
8197 
8186 
8176 
8181 
8166 
8194 
8193 
8138 
8074 
8069 
8070 
8062 
8026 
7982 
7916 
7913 
7928 
7932 
7898 
7890 
7868 
7826 
7867 
7904 
7840 
7747 
7522 
7558 
7669 
7709 
7704 
7713 
7748 
7758 
7733 
7757 
7756 
7734 
7762 
7806 
7788 
7763 
7790 
7796 
7773 
7816 
7775 
7737 
7752 
7798 
7797 
7826 
7825 
7796 
7801 
7828 
7838 
7831 
7807 
7793 
7776 
7831 
7824 
7819 
7812 
7813 
7803 
7844 
7806 
7776 
7780 
7773 
7810 
7827 
7814 
7761 
7806 
7818 
7796 
7805 
7824 
7817 
7823 
7807 
7806 
7819 
7780 
7774 
7803 
7853 
7919 
8111 
8005 
7955 
7967 
7914 
7867 
7862 
7890 
7901 
7856 
7859 
7871 
7839 
7818 
7849 
7886 
7840 
7790 
7760 
7772 
7842 
7829 
7828 
7825 
7824 
7844 
7825 
7836 
7811 
7768 
7765 
7792 
7820 
7811 
7822 
7846 
7837 
7796 
7796 
7813 
7791 
7782 
7815 
7828 
7847 
7882 
7905 
7815 
7795 
7839 
7872 
7832 
7826 
7846 
7843 
7855 
7858 
7855 
7835 
7837 
7834 
7816 
7813 
7790 
7795 
7784 
7794 
7778 
7727 
7775 
7797 
7740 
7732 
7768 
7776 
7790 
7770 
7751 
7769 
7843 
7856 
7984 
8205 
8416 
8511 
8435 
8227 
7972 
7742 
7573 
7510 
7584 
7660 
7690 
7752 
7805 
7808 
7789 
7788 
7810 
7848 
7814 
7819 
7837 
7818 
7835 
7785 
7791 
7793 
7804 
7810 
7832 
7877 
7882 
7850 
7867 
7861 
7843 
7835 
7846 
7899 
7877 
7870 
7881 
7868 
7890 
7879 
7907 
7932 
7913 
7900 
7899 
7950 
7967 
7949 
7958 
7983 
7972 
7983 
8025 
8036 
8000 
7997 
8050 
8092 
8098 
8089 
8058 
8062 
8075 
8068 
8019 
8054 
8036 
8014 
8001 
8012 
7946 
7899 
7851 
7563 
7548 
7622 
7644 
7654 
7653 
7638 
7655 
7691 
7671 
7683 
7651 
7638 
7687 
7671 
7663 
7685 
7703 
7689 
7658 
7692 
7658 
7662 
7682 
7670 
7666 
7689 
7691 
7662 
7675 
7699 
7713 
7674 
7685 
7704 
7735 
7714 
7702 
7702 
7709 
7703 
7704 
7702 
7711 
7738 
7711 
7700 
7728 
7696 
7702 
7682 
7723 
7741 
7737 
7704 
7707 
7728 
7758 
7994 
7994 
7889 
7873 
7846 
7801 
7818 
7808 
7779 
7774 
7795 
7767 
7720 
7754 
7811 
7806 
7755 
7727 
7757 
7758 
7776 
7755 
7719 
7739 
7756 
7730 
7709 
7731 
7754 
7757 
7778 
7733 
7715 
7751 
7782 
7756 
7756 
7720 
7713 
7734 
7759 
7755 
7719 
7739 
7724 
7724 
7743 
7760 
7742 
7712 
7697 
7726 
7754 
7741 
7764 
7746 
7712 
7719 
7720 
7733 
7735 
7764 
7767 
7734 
7724 
7767 
7767 
7680 
7718 
7731 
7701 
7705 
7734 
7737 
7729 
7724 
7736 
7729 
7741 
7736 
7753 
7799 
7777 
7743 
7725 
7791 
7810 
7774 
7791 
7773 
7761 
7769 
7762 
7709 
7706 
7698 
7691 
7692 
7694 
7719 
7712 
7734 
7758 
7692 
7671 
7656 
7683 
7697 
7683 
7686 
7696 
7674 
7687 
7705 
7739 
7859 
7992 
8194 
8365 
8427 
8219 
8055 
7872 
7678 
7497 
7464 
7572 
7652 
7668 
7679 
7695 
7720 
7732 
7755 
7725 
7742 
7757 
7738 
7734 
7751 
7749 
7736 
7736 
7753 
7772 
7765 
7780 
7819 
7817 
7813 
7783 
7758 
7797 
7807 
7786 
7820 
7830 
7835 
7810 
7793 
7868 
7837 
7798 
7819 
7833 
7828 
7867 
7900 
7972 
7914 
7888 
7909 
7912 
7926 
7985 
7982 
7981 
7995 
7984 
8002 
8018 
7977 
8080 
8027 
7975 
8001 
7998 
7977 
8006 
8002 
7883 
7627 
7618 
7665 
7683 
7695 
7671 
7659 
7690 
7678 
7642 
7653 
7635 
7649 
7651 
7646 
7661 
7640 
7636 
7615 
7638 
7684 
7672 
7649 
7683 
7672 
7644 
7630 
7650 
7662 
7625 
7629 
7642 
7701 
7709 
7684 
7705 
7682 
7643 
7640 
7664 
7666 
7688 
7696 
7692 
7682 
7693 
7688 
7677 
7673 
7697 
7686 
7691 
7684 
7684 
7746 
7944 
7976 
7913 
7869 
7818 
7815 
7806 
7792 
7795 
7785 
7750 
7761 
7737 
7716 
7702 
7731 
7721 
7771 
7748 
7719 
7724 
7724 
7694 
7703 
7732 
7727 
7742 
7711 
7718 
7724 
7702 
7709 
7723 
7711 
7663 
7669 
7722 
7709 
7706 
7710 
7693 
7668 
7652 
7702 
7725 
7728 
7690 
7667 
7702 
7706 
7673 
7705 
7709 
7690 
7686 
7694 
7695 
7719 
7670 
7666 
7709 
7718 
7703 
7688 
7655 
7667 
7700 
7652 
7642 
7700 
7689 
7690 
7685 
7704 
7710 
7688 
7696 
7725 
7763 
7728 
7686 
7706 
7721 
7752 
7751 
7702 
7717 
7745 
7728 
7744 
7782 
7765 
7735 
7696 
7693 
7652 
7639 
7705 
7725 
7680 
7690 
7645 
7613 
7698 
7723 
7653 
7614 
7685 
7696 
7647 
7640 
7632 
7630 
7620 
7729 
7883 
8017 
8190 
8350 
8409 
8224 
7946 
7730 
7532 
7437 
7398 
7450 
7560 
7599 
7645 
7664 
7691 
7703 
7727 
7707 
7706 
7710 
7709 
7709 
7691 
7767 
7759 
7690 
7716 
7728 
7748 
7725 
7775 
7808 
7806 
7785 
7772 
7745 
7747 
7763 
7783 
7825 
7818 
7796 
7775 
7783 
7826 
7851 
7839 
7806 
7846 
7846 
7854 
7876 
7867 
7858 
7869 
7903 
7950 
7954 
7936 
7987 
8002 
7960 
7961 
7993 
7963 
7990 
7996 
8006 
7831 
7664 
7668 
7722 
7730 
7738 
7754 
7724 
7721 
7710 
7666 
7615 
7653 
7642 
7624 
7594 
7637 
7585 
7590 
7615 
7591 
7622 
7605 
7627 
7601 
7558 
7589 
7602 
7581 
7620 
7587 
7585 
7586 
7581 
7616 
7614 
7577 
7600 
7610 
7627 
7627 
7620 
7624 
7644 
7657 
7644 
7642 
7662 
7629 
7622 
7629 
7636 
7646 
7697 
7928 
7924 
7845 
7809 
7783 
7763 
7767 
7732 
7686 
7736 
7689 
7675 
7657 
7662 
7681 
7675 
7687 
7699 
7682 
7690 
7673 
7630 
7640 
7665 
7614 
7628 
7655 
7648 
7656 
7639 
7657 
7644 
7637 
7628 
7633 
7626 
7631 
7621 
7655 
7658 
7621 
7624 
7614 
7616 
7624 
7642 
7683 
7627 
7567 
7579 
7600 
7652 
7603 
7591 
7630 
7632 
7628 
7606 
7631 
7614 
7615 
7616 
7630 
7646 
7660 
7628 
7634 
7687 
7699 
7670 
7648 
7620 
7610 
7620 
7632 
7660 
7687 
7648 
7667 
7638 
7632 
7638 
7606 
7552 
7573 
7582 
7596 
7563 
7574 
7596 
7576 
7574 
7588 
7581 
7588 
7529 
7530 
7521 
7552 
7561 
7607 
7706 
7820 
8012 
8245 
8283 
8119 
7887 
7662 
7450 
7295 
7275 
7352 
7453 
7535 
7510 
7524 
7574 
7580 
7559 
7598 
7602 
7609 
7602 
7599 
7575 
7611 
7643 
7616 
7624 
7649 
7644 
7640 
7631 
7661 
7657 
7634 
7642 
7655 
7669 
7650 
7649 
7647 
7662 
7670 
7661 
7690 
7671 
7669 
7715 
7744 
7749 
7723 
7690 
7720 
7757 
7749 
7767 
7788 
7813 
7840 
7842 
7807 
7798 
7860 
7865 
7887 
7891 
7878 
7799 
7526 
7602 
7663 
7657 
7658 
7675 
7659 
7612 
7599 
7600 
7577 
7579 
7546 
7548 
7511 
7506 
7462 
7456 
7495 
7469 
7470 
7467 
7471 
7445 
7463 
7491 
7480 
7437 
7452 
7437 
7427 
7421 
7456 
7496 
7444 
7451 
7484 
7464 
7431 
7470 
7463 
7450 
7477 
7478 
7478 
7475 
7440 
7484 
7527 
7514 
7542 
7633 
7817 
7776 
7644 
7599 
7622 
7617 
7592 
7568 
7541 
7560 
7533 
7562 
7600 
7555 
7515 
7520 
7550 
7541 
7515 
7493 
7543 
7561 
7499 
7510 
7508 
7510 
7507 
7486 
7489 
7526 
7491 
7475 
7471 
7489 
7473 
7488 
7452 
7485 
7526 
7490 
7439 
7447 
7466 
7483 
7462 
7460 
7435 
7484 
7454 
7450 
7435 
7432 
7470 
7448 
7443 
7467 
7449 
7458 
7423 
7467 
7440 
7419 
7430 
7438 
7452 
7468 
7494 
7393 
7421 
7370 
7386 
7406 
7425 
7446 
7429 
7443 
7416 
7435 
7423 
7417 
7420 
7445 
7438 
7430 
7464 
7495 
7485 
7452 
7503 
7487 
7402 
7400 
7408 
7441 
7489 
7460 
7488 
7469 
7378 
7380 
7402 
7371 
7359 
7338 
7357 
7414 
7411 
7389 
7378 
7358 
7321 
7330 
7361 
7352 
7367 
7347 
7341 
7384 
7508 
7698 
7896 
8104 
8111 
7905 
7671 
7511 
7292 
7123 
7102 
7196 
7237 
7287 
7334 
7370 
7396 
7348 
7356 
7387 
7371 
7385 
7395 
7419 
7371 
7357 
7358 
7392 
7401 
7389 
7400 
7431 
7402 
7387 
7398 
7412 
7413 
7401 
7408 
7452 
7461 
7459 
7414 
7411 
7457 
7489 
7471 
7429 
7435 
7460 
7488 
7476 
7496 
7502 
7491 
7513 
7523 
7526 
7569 
7549 
7549 
7581 
7514 
7258 
7367 
7423 
7409 
7444 
7486 
7488 
7471 
7452 
7493 
7485 
7444 
7404 
7409 
7436 
7375 
7354 
7355 
7327 
7319 
7254 
7210 
7264 
7267 
7262 
7275 
7255 
7214 
7214 
7212 
7172 
7188 
7257 
7270 
7254 
7248 
7230 
7235 
7225 
7233 
7209 
7241 
7238 
7235 
7315 
7280 
7241 
7248 
7240 
7263 
7284 
7265 
7270 
7293 
7277 
7245 
7407 
7566 
7505 
7464 
7454 
7436 
7402 
7376 
7342 
7339 
7346 
7338 
7360 
7350 
7298 
7318 
7313 
7306 
7317 
7321 
7280 
7272 
7347 
7337 
7278 
7290 
7306 
7290 
7310 
7268 
7271 
7273 
7289 
7278 
7316 
7261 
7248 
7284 
7323 
7292 
7328 
7317 
7344 
7325 
7288 
7295 
7323 
7348 
7319 
7279 
7314 
7293 
7333 
7322 
7304 
7328 
7344 
7343 
7286 
7291 
7316 
7327 
7309 
7275 
7338 
7360 
7339 
7296 
7310 
7302 
7286 
7309 
7300 
7324 
7299 
7297 
7305 
7323 
7332 
7320 
7274 
7301 
7343 
7309 
7290 
7341 
7340 
7329 
7371 
7379 
7364 
7340 
7365 
7358 
7359 
7331 
7375 
7433 
7398 
7349 
7333 
7349 
7365 
7332 
7301 
7338 
7313 
7277 
7290 
7321 
7344 
7315 
7282 
7292 
7321 
7262 
7231 
7286 
7332 
7324 
7280 
7262 
7273 
7253 
7267 
7358 
7496 
7726 
7964 
8066 
7982 
7796 
7523 
7286 
7079 
7069 
7051 
7158 
7235 
7300 
7286 
7337 
7361 
7305 
7294 
7289 
7317 
7325 
7307 
7303 
7378 
7365 
7349 
7382 
7401 
7372 
7308 
7296 
7346 
7357 
7384 
7403 
7429 
7408 
7379 
7337 
7358 
7399 
7419 
7372 
7399 
7394 
7404 
7449 
7454 
7427 
7447 
7472 
7480 
7491 
7510 
7511 
7503 
7519 
7610 
7574 
7571 
7595 
7600 
7505 
7292 
7327 
7386 
7429 
7462 
7478 
7493 
7463 
7439 
7437 
7466 
7420 
7384 
7380 
7358 
7363 
7338 
7300 
7298 
7274 
7266 
7233 
7218 
7226 
7251 
7228 
7205 
7208 
7197 
7179 
7161 
7200 
7204 
7221 
7216 
7253 
7262 
7237 
7217 
7232 
7240 
7266 
7258 
7256 
7211 
7244 
7272 
7247 
7227 
7260 
7256 
7242 
7270 
7261 
7314 
7591 
7532 
7474 
7414 
7375 
7390 
7393 
7369 
7344 
7313 
7310 
7317 
7283 
7274 
7308 
7313 
7298 
7278 
7302 
7315 
7251 
7240 
7307 
7282 
7260 
7264 
7287 
7287 
7247 
7235 
7268 
7253 
7289 
7269 
7243 
7241 
7249 
7244 
7233 
7267 
7235 
7202 
7220 
7282 
7287 
7210 
7206 
7198 
7209 
7197 
7212 
7209 
7234 
7272 
7260 
7243 
7250 
7226 
7215 
7210 
7251 
7242 
7209 
7205 
7221 
7258 
7253 
7274 
7299 
7298 
7273 
7244 
7237 
7259 
7235 
7247 
7270 
7268 
7251 
7218 
7215 
7280 
7232 
7181 
7188 
7203 
7234 
7214 
7215 
7194 
7203 
7137 
7134 
7159 
7196 
7187 
7193 
7232 
7238 
7153 
7173 
7279 
7456 
7657 
7825 
7856 
7716 
7423 
7191 
6974 
6868 
6875 
6934 
6965 
6997 
7079 
7091 
7106 
7117 
7103 
7095 
7126 
7196 
7139 
7101 
7079 
7091 
7137 
7099 
7125 
7133 
7117 
7097 
7109 
7126 
7163 
7152 
7168 
7185 
7182 
7162 
7175 
7167 
7166 
7147 
7177 
7193 
7216 
7221 
7208 
7225 
7274 
7278 
7233 
7241 
7223 
7281 
7310 
7339 
7324 
7309 
7354 
7321 
7343 
7378 
7388 
7372 
7287 
7071 
7125 
7155 
7144 
7177 
7201 
7191 
7174 
7119 
7104 
7091 
7121 
7080 
7072 
7079 
7037 
6979 
6964 
6947 
6953 
6984 
6996 
7016 
6959 
6925 
6949 
6966 
6921 
6957 
6998 
6974 
6936 
6927 
6935 
6929 
6894 
6937 
6969 
6969 
6960 
6989 
6973 
6968 
6964 
6943 
6954 
6992 
6987 
6963 
6973 
6983 
6986 
7275 
7279 
7164 
7170 
7128 
7106 
7077 
7109 
7102 
7082 
7067 
7069 
7059 
7033 
7025 
7022 
7060 
7057 
7046 
7033 
7028 
7006 
6976 
6996 
7046 
7066 
6994 
6992 
7002 
7006 
7030 
7000 
6999 
7006 
7005 
7020 
7000 
7012 
7030 
6983 
6994 
6993 
6941 
6979 
6982 
7007 
7043 
7023 
6952 
6918 
6934 
6932 
6943 
6981 
6945 
6975 
6949 
6970 
6990 
6974 
6946 
6997 
7008 
6944 
6933 
6964 
6987 
7037 
7023 
6928 
6952 
6978 
6988 
7033 
6983 
6952 
6967 
7030 
7019 
7024 
7000 
6986 
6979 
6984 
6968 
6950 
6953 
6930 
6936 
6961 
6949 
6906 
6902 
6922 
6901 
6931 
6943 
6942 
6935 
6952 
6939 
6917 
6903 
6954 
7013 
7117 
7306 
7530 
7678 
7618 
7445 
7219 
6983 
6810 
6738 
6784 
6822 
6879 
6917 
6925 
6921 
6920 
6981 
6962 
6971 
7012 
7000 
6925 
6966 
7000 
6953 
6944 
6998 
6995 
6979 
6992 
6998 
7012 
6962 
6966 
7001 
7025 
7007 
6978 
7028 
7007 
6990 
7009 
7027 
7028 
7021 
7042 
7063 
7047 
7054 
7075 
7108 
7076 
7056 
7075 
7079 
7125 
7152 
7172 
7175 
7179 
7155 
7165 
7118 
6895 
6923 
6998 
7011 
7063 
7086 
7103 
7103 
7080 
7053 
7029 
7043 
6977 
6970 
6935 
6944 
6934 
6913 
6886 
6862 
6883 
6836 
6809 
6824 
6810 
6821 
6855 
6842 
6866 
6842 
6857 
6826 
6801 
6812 
6817 
6844 
6843 
6822 
6862 
6846 
6859 
6914 
6927 
6834 
6842 
6837 
6851 
6849 
6837 
6857 
6855 
6858 
6850 
6851 
6886 
6992 
7189 
7129 
7063 
7058 
7033 
7019 
6956 
6944 
6957 
6927 
6946 
6936 
6920 
6869 
6859 
6892 
6900 
6898 
6897 
6874 
6875 
6857 
6845 
6829 
6850 
6838 
6841 
6812 
6818 
6833 
6824 
6809 
6819 
6844 
6780 
6820 
6771 
6821 
6849 
6834 
6822 
6845 
6808 
6813 
6838 
6812 
6807 
6817 
6818 
6785 
6818 
6840 
6793 
6806 
6797 
6797 
6817 
6809 
6824 
6869 
6879 
6769 
6787 
6791 
6778 
6827 
6843 
6852 
6850 
6832 
6785 
6785 
6792 
6781 
6827 
6859 
6849 
6860 
6844 
6851 
6849 
6843 
6866 
6846 
6864 
6879 
6855 
6864 
6889 
6855 
6839 
6857 
6778 
6766 
6804 
6801 
6746 
6737 
6770 
6826 
6814 
6785 
6769 
6792 
6771 
6783 
6739 
6722 
6763 
6791 
6759 
6785 
6776 
6866 
7059 
7319 
7502 
7564 
7402 
7166 
6931 
6725 
6567 
6506 
6606 
6670 
6736 
6767 
6773 
6793 
6812 
6772 
6831 
6824 
6811 
6787 
6819 
6802 
6778 
6778 
6798 
6830 
6818 
6815 
6819 
6872 
6872 
6827 
6794 
6845 
6863 
6821 
6838 
6835 
6875 
6896 
6879 
6923 
6889 
6894 
6894 
6917 
6915 
6913 
6928 
6968 
6967 
6986 
6976 
6995 
7039 
6967 
6982 
7026 
7058 
6928 
6734 
6811 
6852 
6892 
6935 
6931 
6965 
6986 
6942 
6944 
6964 
6946 
6874 
6824 
6817 
6851 
6817 
6759 
6736 
6780 
6800 
6730 
6735 
6744 
6683 
6653 
6670 
6690 
6678 
6718 
6707 
6681 
6690 
6674 
6689 
6718 
6722 
6672 
6680 
6680 
6691 
6701 
6731 
6719 
6707 
6712 
6740 
6713 
6722 
6772 
6740 
6696 
6719 
6759 
6761 
6741 
6754 
6771 
6949 
7021 
6935 
6956 
6941 
6886 
6823 
6828 
6856 
6861 
6826 
6779 
6792 
6808 
6813 
6804 
6755 
6760 
6760 
6784 
6766 
6770 
6758 
6778 
6796 
6768 
6755 
6754 
6770 
6766 
6763 
6773 
6777 
6772 
6755 
6735 
6736 
6737 
6717 
6723 
6724 
6777 
6769 
6755 
6734 
6739 
6761 
6745 
6726 
6745 
6743 
6717 
6718 
6728 
6758 
6783 
6775 
6762 
6755 
6790 
6803 
6802 
6781 
6749 
6771 
6754 
6780 
6804 
6837 
6853 
6819 
6739 
6688 
6719 
6743 
6714 
6750 
6762 
6743 
6746 
6730 
6701 
6741 
6712 
6697 
6678 
6760 
6762 
6721 
6695 
6721 
6773 
6783 
6838 
7069 
7265 
7410 
7430 
7251 
7025 
6785 
6562 
6398 
6432 
6503 
6605 
6609 
6668 
6683 
6700 
6740 
6786 
6766 
6768 
6737 
6748 
6773 
6790 
6781 
6753 
6773 
6780 
6794 
6815 
6833 
6795 
6791 
6826 
6820 
6796 
6780 
6812 
6808 
6852 
6841 
6821 
6864 
6844 
6772 
6824 
6865 
6901 
6899 
6872 
6899 
6929 
6925 
6971 
6949 
6962 
6974 
6950 
6985 
7017 
7001 
6955 
7038 
6836 
6697 
6779 
6806 
6848 
6868 
6883 
6917 
6940 
6852 
6874 
6855 
6839 
6789 
6763 
6744 
6696 
6664 
6694 
6676 
6676 
6671 
6692 
6618 
6586 
6677 
6665 
6619 
6630 
6667 
6659 
6620 
6607 
6662 
6637 
6593 
6645 
6651 
6635 
6650 
6632 
6651 
6675 
6667 
6665 
6657 
6634 
6658 
6672 
6651 
6648 
6673 
6680 
6666 
6694 
6785 
7028 
6968 
6879 
6841 
6864 
6843 
6781 
6814 
6813 
6756 
6752 
6772 
6721 
6699 
6741 
6779 
6725 
6723 
6733 
6746 
6754 
6748 
6744 
6730 
6706 
6721 
6714 
6736 
6735 
6701 
6689 
6682 
6705 
6687 
6718 
6667 
6708 
6681 
6658 
6681 
6728 
6696 
6682 
6675 
6705 
6690 
6713 
6674 
6672 
6695 
6698 
6720 
6756 
6734 
6716 
6714 
6706 
6763 
6755 
6736 
6721 
6724 
6730 
6740 
6692 
6657 
6661 
6713 
6691 
6694 
6684 
6659 
6664 
6680 
6663 
6666 
6672 
6683 
6675 
6694 
6692 
6638 
6659 
6640 
6660 
6748 
6870 
7100 
7247 
7379 
7355 
7153 
6905 
6704 
6536 
6438 
6448 
6489 
6569 
6644 
6650 
6681 
6733 
6709 
6717 
6692 
6674 
6701 
6724 
6701 
6723 
6739 
6751 
6733 
6746 
6719 
6750 
6743 
6757 
6754 
6735 
6752 
6735 
6775 
6791 
6772 
6736 
6763 
6736 
6732 
6783 
6781 
6794 
6797 
6792 
6803 
6808 
6789 
6801 
6793 
6834 
6875 
6864 
6817 
6526 
6493 
6609 
6653 
6715 
6729 
6752 
6741 
6777 
6790 
6787 
6792 
6759 
6764 
6777 
6744 
6656 
6606 
6609 
6634 
6603 
6601 
6584 
6523 
6529 
6472 
6472 
6486 
6458 
6462 
6471 
6468 
6465 
6459 
6486 
6459 
6450 
6452 
6470 
6471 
6473 
6458 
6465 
6490 
6476 
6488 
6482 
6457 
6441 
6425 
6433 
6455 
6441 
6478 
6476 
6478 
6484 
6478 
6460 
6473 
6478 
6470 
6481 
6495 
6500 
6496 
6570 
6819 
6802 
6698 
6625 
6637 
6653 
6621 
6582 
6573 
6587 
6585 
6551 
6581 
6547 
6560 
6525 
6549 
6534 
6519 
6506 
6462 
6479 
6504 
6554 
6507 
6502 
6488 
6532 
6545 
6528 
6509 
6489 
6517 
6521 
6513 
6466 
6457 
6447 
6529 
6469 
6455 
6501 
6469 
6444 
6484 
6476 
6500 
6477 
6456 
6504 
6539 
6517 
6468 
6478 
6465 
6457 
6456 
6458 
6478 
6503 
6511 
6459 
6460 
6448 
6461 
6488 
6466 
6493 
6521 
6459 
6464 
6506 
6515 
6540 
6506 
6504 
6492 
6537 
6511 
6521 
6505 
6507 
6493 
6465 
6488 
6463 
6446 
6434 
6423 
6412 
6424 
6444 
6478 
6458 
6409 
6392 
6394 
6400 
6429 
6440 
6417 
6411 
6442 
6392 
6363 
6194 
6369 
6665 
6909 
7044 
6915 
6697 
6517 
6315 
6130 
6097 
6184 
6286 
6308 
6296 
6306 
6365 
6354 
6354 
6370 
6409 
6403 
6374 
6393 
6432 
6440 
6374 
6366 
6430 
6403 
6374 
6433 
6407 
6386 
6400 
6419 
6422 
6450 
6466 
6471 
6447 
6474 
6462 
6481 
6467 
6501 
6496 
6480 
6481 
6531 
6535 
6538 
6554 
6585 
6572 
6593 
6516 
6536 
6569 
6593 
6609 
6628 
6649 
6640 
6668 
6628 
6654 
6686 
6650 
6627 
6640 
6680 
6661 
6648 
6657 
6595 
6547 
6514 
6475 
6499 
6496 
6425 
6420 
6432 
6402 
6389 
6355 
6332 
6343 
6348 
6332 
6359 
6412 
6373 
6308 
6320 
6318 
6337 
6358 
6357 
6374 
6314 
6312 
6340 
6355 
6349 
6330 
6332 
6353 
6330 
6374 
6370 
6346 
6352 
6358 
6349 
6369 
6357 
6341 
6369 
6370 
6374 
6364 
6352 
6329 
6359 
6375 
6311 
6359 
6402 
6393 
6342 
6342 
6338 
6339 
6358 
6372 
6514 
6718 
6634 
6561 
6523 
6508 
6471 
6458 
6484 
6467 
6436 
6423 
6415 
6418 
6412 
6399 
6404 
6390 
6349 
6317 
6332 
6411 
6416 
6381 
6378 
6394 
6433 
6416 
6325 
6353 
6376 
6364 
6338 
6370 
6344 
6360 
6367 
6347 
6365 
6379 
6381 
6387 
6340 
6326 
6356 
6340 
6352 
6343 
6372 
6358 
6411 
6343 
6344 
6327 
6328 
6333 
6362 
6381 
6390 
6365 
6358 
6366 
6361 
6355 
6359 
6339 
6345 
6378 
6369 
6362 
6355 
6378 
6395 
6386 
6413 
6427 
6446 
6419 
6394 
6433 
6425 
6435 
6435 
6459 
6426 
6345 
6323 
6313 
6356 
6361 
6348 
6344 
6333 
6330 
6315 
6358 
6342 
6330 
6341 
6352 
6330 
6379 
6342 
6330 
6347 
6357 
6364 
6459 
6591 
6754 
7001 
7098 
7006 
6786 
6493 
6310 
6134 
6074 
6145 
6225 
6238 
6296 
6385 
6392 
6396 
6398 
6394 
6385 
6370 
6383 
6415 
6392 
6387 
6434 
6433 
6362 
6395 
6391 
6407 
6395 
6373 
6396 
6435 
6453 
6415 
6438 
6477 
6464 
6446 
6485 
6532 
6491 
6466 
6456 
6460 
6501 
6555 
6540 
6448 
6500 
6512 
6536 
6555 
6574 
6596 
6595 
6616 
6641 
6596 
6579 
6645 
6664 
6661 
6682 
6655 
6658 
6671 
6697 
6672 
6642 
6624 
6586 
6535 
6549 
6539 
6521 
6496 
6513 
6461 
6409 
6376 
6370 
6423 
6404 
6374 
6336 
6352 
6337 
6328 
6346 
6353 
6352 
6329 
6320 
6338 
6369 
6358 
6346 
6336 
6350 
6341 
6338 
6327 
6336 
6358 
6360 
6383 
6375 
6308 
6348 
6341 
6346 
6349 
6340 
6319 
6366 
6371 
6337 
6338 
6341 
6359 
6348 
6359 
6365 
6356 
6377 
6407 
6319 
6325 
6324 
6340 
6334 
6312 
6333 
6316 
6309 
6349 
6342 
6322 
6323 
6317 
6318 
6320 
6302 
6316 
6328 
6314 
6309 
6351 
6360 
6309 
6326 
6328 
6347 
6324 
6303 
6280 
6283 
6303 
6300 
6300 
6321 
6338 
6314 
6293 
6289 
6329 
6324 
6313 
6313 
6302 
6319 
6312 
6260 
6259 
6278 
6284 
6270 
6276 
6260 
6234 
6244 
6320 
6364 
6341 
6295 
6308 
6325 
6327 
6321 
6319 
6339 
6310 
6292 
6344 
6362 
6346 
6314 
6301 
6268 
6260 
6266 
6224 
6228 
6261 
6279 
6229 
6228 
6264 
6254 
6257 
6268 
6245 
6204 
6216 
6245 
6246 
6256 
6201 
6203 
6281 
6327 
6457 
6691 
6905 
6981 
6802 
6597 
6346 
6163 
5992 
5935 
5988 
6091 
6163 
6171 
6228 
6247 
6282 
6251 
6249 
6259 
6251 
6257 
6272 
6258 
6273 
6280 
6288 
6314 
6325 
6328 
6299 
6297 
6313 
6328 
6339 
6333 
6325 
6329 
6359 
6322 
6323 
6375 
6388 
6391 
6375 
6340 
6346 
6356 
6405 
6393 
6407 
6424 
6436 
6452 
6440 
6443 
6467 
6482 
6486 
6529 
6508 
6498 
6517 
6546 
6567 
6558 
6565 
6548 
6542 
6542 
6536 
6488 
6492 
6494 
6465 
6402 
6410 
6378 
6365 
6323 
6302 
6295 
6292 
6283 
6235 
6215 
6226 
6242 
6248 
6211 
6235 
6208 
6208 
6221 
6185 
6184 
6187 
6193 
6223 
6218 
6227 
6177 
6212 
6178 
6162 
6166 
6169 
6194 
6198 
6178 
6204 
6226 
6206 
6210 
6204 
6215 
6202 
6210 
6196 
6209 
6202 
6210 
6223 
6223 
6192 
6151 
6153 
6242 
6217 
6212 
6197 
6201 
6175 
6198 
6160 
6164 
6212 
6177 
6160 
6179 
6173 
6172 
6192 
6180 
6161 
6186 
6169 
6164 
6176 
6167 
6146 
6154 
6161 
6182 
6198 
6187 
6170 
6161 
6112 
6141 
6166 
6147 
6149 
6168 
6199 
6179 
6139 
6153 
6173 
6161 
6173 
6172 
6145 
6159 
6154 
6130 
6145 
6163 
6142 
6163 
6168 
6143 
6111 
6117 
6120 
6148 
6188 
6143 
6132 
6172 
6191 
6185 
6162 
6125 
6152 
6165 
6169 
6184 
6176 
6160 
6176 
6203 
6212 
6193 
6199 
6209 
6193 
6167 
6144 
6169 
6225 
6205 
6182 
6184 
6194 
6153 
6152 
6125 
6117 
6132 
6103 
6124 
6123 
6137 
6124 
6094 
6106 
6122 
6129 
6125 
6099 
6101 
6113 
6098 
6113 
6192 
6252 
6397 
6588 
6814 
6867 
6679 
6455 
6221 
6027 
5901 
5909 
5973 
6030 
6043 
6110 
6143 
6151 
6188 
6151 
6132 
6164 
6181 
6195 
6174 
6180 
6180 
6168 
6181 
6194 
6188 
6176 
6209 
6223 
6230 
6210 
6210 
6202 
6246 
6240 
6214 
6210 
6239 
6259 
6247 
6244 
6228 
6262 
6284 
6236 
6241 
6299 
6298 
6347 
6350 
6367 
6371 
6334 
6343 
6385 
6412 
6411 
6409 
6415 
6406 
6424 
6441 
6462 
6448 
6435 
6416 
6455 
6478 
6436 
6388 
6368 
6372 
6346 
6306 
6299 
6264 
6274 
6272 
6211 
6226 
6207 
6187 
6155 
6143 
6165 
6134 
6127 
6146 
6147 
6153 
6135 
6152 
6169 
6139 
6140 
6146 
6151 
6202 
6171 
6117 
6135 
6155 
6136 
6143 
6148 
6164 
6189 
6154 
6147 
6162 
6117 
6099 
6139 
6137 
6158 
6150 
6144 
6180 
6172 
6124 
6150 
6153 
6142 
6160 
6166 
6155 
6156 
6149 
6169 
6174 
6176 
6153 
6164 
6136 
6134 
6112 
6115 
6115 
6108 
6117 
6163 
6149 
6146 
6109 
6120 
6106 
6106 
6104 
6120 
6115 
6138 
6131 
6135 
6136 
6108 
6125 
6101 
6088 
6125 
6111 
6096 
6103 
6120 
6137 
6161 
6134 
6122 
6125 
6078 
6067 
6098 
6124 
6113 
6127 
6131 
6132 
6090 
6096 
6077 
6132 
6150 
6134 
6134 
6175 
6170 
6146 
6144 
6177 
6158 
6144 
6172 
6131 
6162 
6172 
6119 
6121 
6151 
6152 
6135 
6161 
6155 
6161 
6133 
6141 
6163 
6157 
6183 
6180 
6185 
6183 
6203 
6181 
6199 
6230 
6186 
6186 
6185 
6170 
6204 
6222 
6178 
6168 
6168 
6162 
6127 
6155 
6182 
6152 
6095 
6118 
6122 
6128 
6149 
6153 
6145 
6128 
6116 
6110 
6156 
6143 
6101 
6098 
6125 
6131 
6196 
6322 
6563 
6779 
6923 
6819 
6586 
6349 
6132 
5961 
5902 
5983 
6039 
6072 
6126 
6146 
6134 
6146 
6167 
6165 
6180 
6174 
6168 
6198 
6176 
6189 
6188 
6165 
6179 
6200 
6208 
6202 
6195 
6232 
6233 
6221 
6196 
6187 
6208 
6261 
6263 
6256 
6206 
6221 
6260 
6254 
6240 
6265 
6287 
6281 
6317 
6345 
6339 
6352 
6330 
6328 
6328 
6359 
6369 
6353 
6352 
6391 
6432 
6447 
6443 
6470 
6487 
6441 
6443 
6433 
6412 
6433 
6435 
6426 
6400 
6392 
6321 
6297 
6303 
6283 
6252 
6230 
6215 
6207 
6182 
6170 
6193 
6205 
6160 
6134 
6106 
6142 
6145 
6137 
6157 
6125 
6146 
6131 
6130 
6169 
6133 
6134 
6133 
6102 
6145 
6164 
6175 
6190 
6177 
6138 
6113 
6126 
6150 
6157 
6134 
6148 
6124 
6135 
6139 
6161 
6177 
6131 
6102 
6117 
6140 
6146 
6167 
6182 
6172 
6162 
6152 
6185 
6171 
6157 
6129 
6133 
6153 
6155 
6144 
6131 
6164 
6133 
6124 
6130 
6153 
6154 
6122 
6146 
6131 
6133 
6134 
6124 
6146 
6135 
6164 
6131 
6092 
6132 
6142 
6139 
6144 
6142 
6117 
6128 
6128 
6128 
6128 
6094 
6138 
6144 
6129 
6073 
6077 
6103 
6148 
6117 
6081 
6114 
6120 
6122 
6121 
6121 
6125 
6127 
6106 
6116 
6122 
6102 
6130 
6108 
6109 
6123 
6099 
6099 
6127 
6133 
6134 
6108 
6103 
6140 
6141 
6144 
6152 
6132 
6166 
6187 
6160 
6178 
6172 
6169 
6177 
6181 
6189 
6200 
6168 
6188 
6191 
6186 
6157 
6163 
6124 
6128 
6116 
6105 
6113 
6122 
6112 
6113 
6151 
6131 
6094 
6109 
6152 
6151 
6117 
6121 
6114 
6129 
6099 
6093 
6129 
6144 
6214 
6372 
6612 
6793 
6872 
6707 
6462 
6207 
6008 
5839 
5825 
5919 
6015 
6080 
6094 
6124 
6126 
6109 
6120 
6158 
6181 
6155 
6166 
6173 
6182 
6157 
6163 
6190 
6171 
6170 
6183 
6181 
6221 
6210 
6173 
6198 
6204 
6213 
6228 
6246 
6249 
6241 
6234 
6248 
6258 
6284 
6274 
6296 
6313 
6284 
6249 
6303 
6345 
6358 
6332 
6350 
6364 
6391 
6393 
6366 
6405 
6399 
6407 
6386 
6422 
6466 
6459 
6479 
6467 
6446 
6410 
6444 
6467 
6470 
6461 
6345 
6279 
6275 
6281 
6247 
6230 
6235 
6284 
6213 
6145 
6152 
6162 
6128 
6116 
6112 
6116 
6116 
6091 
6135 
6151 
6116 
6106 
6104 
6130 
6174 
6177 
6110 
6118 
6149 
6149 
6140 
6113 
6102 
6137 
6149 
6150 
6126 
6125 
6125 
6119 
6135 
6121 
6134 
6133 
6160 
6181 
6162 
6128 
6158 
6183 
6191 
6167 
6147 
6120 
6124 
6122 
6112 
6121 
6134 
6122 
6111 
6136 
6129 
6127 
6130 
6118 
6112 
6119 
6117 
6133 
6090 
6068 
6091 
6115 
6115 
6129 
6119 
6089 
6119 
6125 
6091 
6133 
6120 
6127 
6110 
6137 
6117 
6121 
6120 
6106 
6138 
6147 
6107 
6074 
6084 
6101 
6113 
6092 
6094 
6096 
6100 
6095 
6151 
6138 
6124 
6102 
6116 
6142 
6125 
6142 
6147 
6144 
6134 
6159 
6169 
6194 
6184 
6143 
6134 
6161 
6133 
6135 
6095 
6099 
6127 
6119 
6132 
6150 
6120 
6087 
6092 
6114 
6110 
6077 
6078 
6107 
6130 
6106 
6096 
6041 
6072 
6131 
6245 
6349 
6525 
6724 
6832 
6727 
6457 
6207 
5999 
5810 
5764 
5857 
5979 
6011 
6065 
6070 
6085 
6096 
6108 
6143 
6112 
6086 
6095 
6155 
6173 
6161 
6146 
6148 
6171 
6139 
6149 
6178 
6162 
6185 
6177 
6186 
6189 
6217 
6183 
6170 
6198 
6189 
6220 
6214 
6219 
6208 
6242 
6224 
6278 
6288 
6272 
6259 
6296 
6317 
6300 
6325 
6357 
6335 
6312 
6349 
6380 
6381 
6421 
6428 
6410 
6441 
6430 
6435 
6430 
6426 
6417 
6388 
6410 
6409 
6377 
6329 
6290 
6251 
6236 
6233 
6223 
6214 
6209 
6158 
6100 
6113 
6093 
6095 
6117 
6121 
6087 
6076 
6103 
6100 
6092 
6066 
6052 
6064 
6077 
6129 
6111 
6076 
6081 
6066 
6076 
6084 
6111 
6125 
6120 
6104 
6094 
6074 
6102 
6060 
6086 
6103 
6113 
6092 
6081 
6079 
6084 
6069 
6056 
6098 
6127 
6115 
6089 
6118 
6119 
6095 
6092 
6091 
6094 
6097 
6070 
6084 
6107 
6096 
6078 
6119 
6113 
6074 
6056 
6050 
6049 
6094 
6112 
6114 
6113 
6053 
6042 
6059 
6092 
6087 
6077 
6060 
6101 
6114 
6104 
6057 
6073 
6063 
6061 
6076 
6067 
6063 
6063 
6066 
6076 
6081 
6076 
6055 
6086 
6099 
6095 
6090 
6070 
6061 
6060 
6067 
6069 
6116 
6095 
6070 
6082 
6119 
6080 
6037 
6062 
6070 
6069 
6093 
6105 
6075 
6042 
6119 
6116 
6089 
6122 
6116 
6111 
6115 
6116 
6136 
6132 
6137 
6167 
6202 
6153 
6102 
6106 
6098 
6082 
6071 
6067 
6098 
6101 
6063 
6068 
6094 
6072 
6049 
6026 
6023 
6077 
6089 
6085 
6085 
6092 
6082 
6114 
6230 
6400 
6613 
6792 
6792 
6609 
6429 
6199 
6014 
5879 
5855 
5924 
5976 
6070 
6075 
6061 
6087 
6136 
6132 
6123 
6108 
6148 
6151 
6132 
6127 
6138 
6201 
6205 
6142 
6128 
6148 
6159 
6162 
6172 
6156 
6174 
6167 
6167 
6187 
6219 
6217 
6175 
6190 
6229 
6223 
6218 
6212 
6244 
6246 
6223 
6268 
6264 
6283 
6297 
6355 
6359 
6346 
6302 
6338 
6346 
6325 
6337 
6367 
6409 
6375 
6388 
6385 
6431 
6416 
6402 
6349 
6371 
6385 
6346 
6330 
6322 
6336 
6315 
6283 
6218 
6214 
6179 
6151 
6158 
6130 
6128 
6119 
6111 
6135 
6139 
6104 
6075 
6068 
6078 
6061 
6066 
6070 
6085 
6105 
6101 
6124 
6113 
6088 
6065 
6065 
6086 
6112 
6086 
6068 
6085 
6110 
6101 
6089 
6109 
6110 
6082 
6094 
6110 
6078 
6097 
6107 
6085 
6085 
6077 
6069 
6114 
6138 
6134 
6108 
6086 
6095 
6114 
6090 
6102 
6105 
6110 
6130 
6087 
6036 
6053 
6079 
6067 
6061 
6063 
6051 
6035 
6070 
6075 
6114 
6115 
6131 
6116 
6096 
6049 
6069 
6055 
6036 
6063 
6085 
6064 
6072 
6056 
6026 
6062 
6068 
6075 
6074 
6075 
6049 
6047 
6017 
6062 
6108 
6101 
6118 
6111 
6045 
6059 
6089 
6087 
6059 
6089 
6054 
6040 
6042 
6029 
6034 
6063 
6071 
6074 
6058 
6017 
6075 
6096 
6060 
6066 
6077 
6043 
6026 
6029 
6032 
6093 
6052 
6089 
6050 
6095 
6098 
6084 
6075 
6073 
6088 
6107 
6100 
6104 
6110 
6125 
6080 
6090 
6092 
6083 
6098 
6022 
6005 
6032 
6052 
6058 
6084 
6007 
6034 
6025 
6006 
6036 
6080 
6017 
6010 
6024 
6023 
6063 
6048 
6005 
5985 
6025 
6137 
6267 
6476 
6731 
6797 
6670 
6529 
6255 
6005 
5806 
5790 
5873 
5921 
5988 
6059 
6083 
6062 
6060 
6065 
6069 
6067 
6084 
6064 
6055 
6079 
6088 
6070 
6067 
6106 
6108 
6125 
6135 
6132 
6133 
6114 
6119 
6153 
6157 
6180 
6141 
6113 
6120 
6144 
6144 
6146 
6149 
6161 
6195 
6202 
6221 
6241 
6197 
6198 
6226 
6259 
6278 
6265 
6259 
6308 
6326 
6292 
6314 
6349 
6336 
6334 
6334 
6309 
6338 
6373 
6373 
6372 
6344 
6359 
6325 
6337 
6278 
6237 
6242 
6210 
6187 
6194 
6201 
6166 
6143 
6114 
6089 
6087 
6087 
6065 
6077 
6058 
6042 
6076 
6055 
6044 
6031 
6066 
6062 
6080 
6065 
6068 
6100 
6083 
6056 
6054 
6078 
6090 
6044 
6053 
6071 
6103 
6116 
6072 
6129 
6095 
6044 
6040 
6049 
6035 
6067 
6063 
6104 
6099 
6075 
6124 
6121 
6110 
6091 
6095 
6116 
6131 
6088 
6050 
6070 
6085 
6073 
6081 
6086 
6058 
6113 
6079 
6063 
6079 
6125 
6120 
6072 
6041 
6072 
6096 
6076 
6077 
6101 
6092 
6085 
6103 
6080 
6078 
6055 
6072 
6100 
6072 
6052 
6064 
6073 
6063 
6096 
6107 
6053 
6033 
6033 
6062 
6078 
6106 
6080 
6080 
6108 
6085 
6095 
6074 
6074 
6098 
6084 
6097 
6096 
6071 
6060 
6063 
6074 
6090 
6104 
6095 
6071 
6079 
6071 
6032 
6050 
6104 
6154 
6104 
6065 
6066 
6090 
6074 
6083 
6094 
6076 
6083 
6103 
6098 
6118 
6099 
6087 
6114 
6155 
6154 
6125 
6141 
6147 
6145 
6156 
6129 
6135 
6136 
6151 
6134 
6152 
6140 
6081 
6093 
6120 
6094 
6077 
6083 
6092 
6140 
6110 
6086 
6048 
6068 
6084 
6074 
6073 
6068 
6080 
6077 
6067 
6057 
6113 
6201 
6346 
6507 
6789 
6873 
6721 
6506 
6302 
6070 
5869 
5840 
5910 
5997 
6077 
6103 
6150 
6129 
6147 
6210 
6209 
6234 
6203 
6211 
6239 
6224 
6222 
6241 
6261 
6271 
6281 
6321 
6346 
6310 
6313 
6277 
6307 
6328 
6329 
6341 
6372 
6381 
6368 
6351 
6333 
6391 
6388 
6364 
6376 
6394 
6438 
6411 
6408 
6436 
6463 
6458 
6481 
6487 
6506 
6528 
6490 
6510 
6534 
6595 
6563 
6580 
6582 
6580 
6570 
6640 
6624 
6612 
6570 
6547 
6580 
6593 
6537 
6493 
6503 
6484 
6465 
6445 
6429 
6396 
6377 
6353 
6347 
6369 
6332 
6342 
6341 
6383 
6362 
6321 
6343 
6365 
6347 
6367 
6371 
6370 
6360 
6371 
6343 
6344 
6349 
6339 
6389 
6347 
6353 
6341 
6321 
6353 
6378 
6372 
6368 
6391 
6384 
6378 
6399 
6404 
6347 
6354 
6398 
6379 
6385 
6373 
6358 
6362 
6395 
6448 
6450 
6404 
6387 
6369 
6362 
6366 
6390 
6435 
6405 
6390 
6369 
6368 
6355 
6300 
6342 
6371 
6384 
6384 
6332 
6341 
6393 
6341 
6357 
6414 
6395 
6409 
6365 
6352 
6385 
6399 
6400 
6416 
6376 
6346 
6359 
6343 
6388 
6379 
6367 
6352 
6346 
6360 
6376 
6372 
6371 
6360 
6397 
6390 
6372 
6418 
6422 
6400 
6368 
6359 
6375 
6379 
6387 
6364 
6361 
6359 
6366 
6405 
6366 
6389 
6373 
6364 
6430 
6403 
6373 
6405 
6437 
6441 
6444 
6455 
6439 
6435 
6445 
6422 
6466 
6419 
6401 
6392 
6354 
6342 
6363 
6418 
6395 
6367 
6372 
6336 
6366 
6381 
6368 
6347 
6342 
6372 
6380 
6373 
6359 
6330 
6342 
6369 
6440 
6575 
6831 
7055 
7172 
7030 
6758 
6517 
6279 
6128 
6087 
6153 
6257 
6319 
6378 
6392 
6386 
6371 
6421 
6427 
6410 
6376 
6423 
6435 
6421 
6451 
6443 
6368 
6367 
6429 
6442 
6455 
6481 
6463 
6459 
6455 
6468 
6490 
6478 
6485 
6513 
6482 
6494 
6517 
6548 
6505 
6512 
6533 
6524 
6528 
6575 
6565 
6530 
6517 
6530 
6583 
6592 
6605 
6615 
6613 
6687 
6699 
6705 
6692 
6694 
6711 
6704 
6705 
6734 
6700 
6665 
6667 
6688 
6666 
6635 
6582 
6567 
6555 
6545 
6520 
6479 
6479 
6444 
6416 
6381 
6430 
6405 
6391 
6393 
6405 
6409 
6403 
6383 
6380 
6348 
6372 
6370 
6346 
6362 
6368 
6356 
6361 
6385 
6401 
6327 
6304 
6345 
6379 
6417 
6350 
6378 
6372 
6367 
6373 
6385 
6389 
6398 
6375 
6408 
6405 
6381 
6337 
6342 
6365 
6395 
6390 
6394 
6397 
6377 
6343 
6385 
6423 
6371 
6351 
6399 
6411 
6391 
6357 
6350 
6366 
6380 
6382 
6351 
6344 
6384 
6408 
6358 
6366 
6353 
6347 
6345 
6355 
6367 
6380 
6365 
6377 
6389 
6353 
6370 
6392 
6398 
6384 
6349 
6364 
6391 
6362 
6318 
6330 
6349 
6397 
6403 
6351 
6359 
6351 
6344 
6335 
6362 
6360 
6376 
6372 
6332 
6377 
6388 
6382 
6359 
6396 
6310 
6356 
6356 
6343 
6356 
6353 
6350 
6361 
6366 
6381 
6351 
6371 
6386 
6365 
6363 
6333 
6378 
6387 
6384 
6379 
6395 
6387 
6391 
6372 
6370 
6411 
6436 
6430 
6418 
6403 
6427 
6414 
6426 
6424 
6392 
6343 
6366 
6372 
6355 
6333 
6349 
6346 
6334 
6327 
6342 
6368 
6352 
6326 
6366 
6326 
6325 
6308 
6319 
6316 
6319 
6321 
6381 
6488 
6685 
6938 
7095 
7050 
6887 
6634 
6390 
6188 
6101 
6152 
6232 
6266 
6271 
6302 
6358 
6361 
6358 
6369 
6368 
6375 
6380 
6372 
6365 
6389 
6414 
6440 
6375 
6373 
6386 
6423 
6436 
6442 
6455 
6447 
6455 
6414 
6398 
6436 
6457 
6417 
6426 
6441 
6451 
6499 
6461 
6475 
6507 
6466 
6456 
6500 
6519 
6497 
6551 
6543 
6530 
6545 
6531 
6563 
6594 
6618 
6609 
6636 
6678 
6658 
6599 
6608 
6652 
6665 
6681 
6632 
6609 
6640 
6611 
6595 
6574 
6548 
6511 
6432 
6440 
6419 
6403 
6385 
6362 
6395 
6385 
6326 
6336 
6358 
6343 
6322 
6352 
6341 
6336 
6340 
6328 
6331 
6305 
6308 
6322 
6315 
6348 
6326 
6286 
6303 
6321 
6312 
6297 
6307 
6361 
6328 
6318 
6305 
6328 
6344 
6368 
6348 
6341 
6337 
6306 
6312 
6345 
6349 
6365 
6329 
6283 
6336 
6318 
6324 
6351 
6332 
6313 
6320 
6369 
6372 
6313 
6298 
6315 
6298 
6330 
6348 
6298 
6284 
6274 
6289 
6316 
6314 
6302 
6302 
6270 
6293 
6318 
6338 
6286 
6287 
6295 
6298 
6322 
6322 
6314 
6305 
6298 
6276 
6299 
6288 
6291 
6281 
6287 
6302 
6300 
6250 
6295 
6308 
6290 
6302 
6283 
6285 
6291 
6310 
6317 
6305 
6268 
6279 
6273 
6299 
6295 
6283 
6295 
6292 
6298 
6299 
6302 
6275 
6289 
6283 
6262 
6267 
6241 
6261 
6276 
6248 
6253 
6265 
6282 
6269 
6282 
6297 
6285 
6302 
6296 
6284 
6278 
6253 
6307 
6301 
6301 
6274 
6293 
6281 
6282 
6305 
6313 
6325 
6313 
6300 
6301 
6293 
6326 
6323 
6324 
6316 
6291 
6260 
6204 
6244 
6262 
6246 
6233 
6270 
6272 
6264 
6244 
6220 
6248 
6264 
6249 
6256 
6219 
6228 
6180 
6222 
6264 
6318 
6461 
6688 
6934 
7054 
6962 
6735 
6500 
6302 
6098 
6037 
6108 
6163 
6228 
6234 
6296 
6304 
6274 
6257 
6284 
6340 
6283 
6247 
6319 
6350 
6315 
6302 
6288 
6279 
6310 
6317 
6316 
6324 
6363 
6335 
6318 
6359 
6366 
6352 
6358 
6366 
6394 
6373 
6340 
6357 
6399 
6377 
6401 
6403 
6393 
6407 
6402 
6409 
6458 
6461 
6463 
6514 
6514 
6510 
6508 
6519 
6510 
6544 
6570 
6544 
6598 
6600 
6552 
6569 
6568 
6574 
6575 
6564 
6552 
6551 
6513 
6489 
6469 
6458 
6420 
6364 
6325 
6363 
6357 
6358 
6323 
6298 
6318 
6316 
6266 
6270 
6305 
6289 
6240 
6239 
6285 
6286 
6262 
6243 
6269 
6252 
6305 
6286 
6234 
6273 
6278 
6243 
6274 
6281 
6266 
6266 
6298 
6258 
6274 
6261 
6245 
6256 
6247 
6255 
6298 
6267 
6273 
6274 
6295 
6301 
6309 
6290 
6286 
6299 
6294 
6291 
6246 
6271 
6289 
6291 
6279 
6278 
6277 
6237 
6235 
6279 
6278 
6239 
6275 
6276 
6262 
6242 
6239 
6248 
6228 
6307 
6274 
6250 
6293 
6272 
6220 
6223 
6249 
6251 
6218 
6246 
6281 
6290 
6303 
6259 
6270 
6317 
6272 
6255 
6224 
6251 
6240 
6240 
6251 
6261 
6289 
6263 
6288 
6283 
6245 
6240 
6240 
6246 
6267 
6280 
6280 
6274 
6268 
6302 
6267 
6206 
6206 
6255 
6281 
6237 
6260 
6247 
6209 
6251 
6242 
6225 
6218 
6263 
6273 
6263 
6269 
6238 
6240 
6264 
6290 
6303 
6307 
6297 
6285 
6283 
6304 
6301 
6324 
6330 
6293 
6288 
6301 
6339 
6326 
6287 
6310 
6285 
6245 
6233 
6235 
6240 
6240 
6240 
6249 
6260 
6259 
6234 
6261 
6252 
6232 
6250 
6246 
6236 
6262 
6233 
6214 
6220 
6227 
6261 
6382 
6540 
6765 
6983 
7031 
6886 
6607 
6366 
6147 
6007 
6000 
6062 
6151 
6208 
6251 
6243 
6242 
6255 
6297 
6309 
6294 
6309 
6300 
6318 
6271 
6295 
6320 
6351 
6300 
6329 
6330 
6339 
6361 
6346 
6339 
6344 
6378 
6385 
6391 
6350 
6363 
6383 
6410 
6396 
6363 
6369 
6417 
6424 
6409 
6382 
6392 
6438 
6470 
6471 
6488 
6499 
6477 
6523 
6525 
6521 
6565 
6603 
6549 
6582 
6623 
6595 
6618 
6604 
6578 
6564 
6575 
6597 
6583 
6548 
6509 
6475 
6474 
6490 
6443 
6436 
6402 
6370 
6349 
6364 
6343 
6333 
6253 
6240 
6277 
6276 
6272 
6294 
6282 
6265 
6254 
6267 
6246 
6259 
6268 
6254 
6245 
6258 
6265 
6253 
6238 
6270 
6288 
6226 
6217 
6264 
6265 
6264 
6254 
6241 
6256 
6285 
6321 
6310 
6262 
6274 
6276 
6262 
6267 
6288 
6253 
6239 
6263 
6270 
6236 
6258 
6280 
6236 
6258 
6258 
6262 
6260 
6250 
6260 
6239 
6234 
6242 
6234 
6266 
6249 
6257 
6231 
6262 
6266 
6229 
6229 
6281 
6255 
6243 
6236 
6251 
6256 
6224 
6243 
6269 
6259 
6247 
6207 
6228 
6282 
6282 
6246 
6259 
6250 
6230 
6249 
6248 
6266 
6269 
6247 
6258 
6284 
6231 
6232 
6234 
6219 
6238 
6243 
6215 
6260 
6273 
6247 
6265 
6262 
6262 
6273 
6313 
6311 
6261 
6237 
6252 
6246 
6243 
6283 
6309 
6304 
6280 
6281 
6335 
6372 
6344 
6300 
6304 
6261 
6213 
6242 
6258 
6269 
6286 
6265 
6259 
6203 
6199 
6221 
6212 
6206 
6223 
6218 
6207 
6225 
6251 
6277 
6224 
6250 
6289 
6396 
6576 
6824 
6967 
6930 
6761 
6488 
6243 
6065 
5960 
6001 
6040 
6087 
6119 
6191 
6253 
6260 
6258 
6295 
6285 
6262 
6271 
6334 
6311 
6274 
6280 
6257 
6277 
6294 
6331 
6350 
6305 
6289 
6295 
6317 
6312 
6325 
6336 
6325 
6361 
6359 
6357 
6384 
6410 
6372 
6362 
6387 
6417 
6400 
6411 
6395 
6401 
6424 
6439 
6477 
6474 
6454 
6444 
6474 
6557 
6527 
6490 
6524 
6549 
6590 
6606 
6556 
6541 
6557 
6585 
6568 
6548 
6579 
6530 
6485 
6477 
6471 
6415 
6384 
6349 
6342 
6359 
6312 
6306 
6302 
6288 
6283 
6268 
6258 
6240 
6228 
6214 
5952 
5829 
5930 
5976 
6042 
6037 
6004 
6059 
6072 
6079 
6088 
6111 
6146 
6157 
6172 
6160 
6124 
6108 
6098 
6152 
6145 
6156 
6163 
6167 
6154 
6160 
6189 
6221 
6176 
6148 
6158 
6142 
6181 
6202 
6198 
6213 
6180 
6147 
6195 
6192 
6182 
6200 
6232 
6263 
6201 
6152 
6191 
6202 
6177 
6193 
6219 
6212 
6212 
6182 
6152 
6175 
6202 
6173 
6166 
6183 
6196 
6202 
6170 
6212 
6197 
6190 
6213 
6217 
6195 
6292 
6588 
6516 
6468 
6387 
6356 
6389 
6375 
6330 
6345 
6306 
6305 
6301 
6252 
6231 
6300 
6273 
6254 
6272 
6278 
6280 
6283 
6293 
6282 
6288 
6274 
6245 
6233 
6286 
6284 
6276 
6219 
6217 
6214 
6232 
6242 
6262 
6248 
6258 
6290 
6315 
6273 
6282 
6286 
6252 
6295 
6332 
6294 
6293 
6328 
6299 
6276 
6268 
6283 
6262 
6256 
6241 
6239 
6231 
6216 
6233 
6234 
6249 
6263 
6236 
6241 
6175 
6196 
6232 
6188 
6229 
6216 
6218 
6220 
6218 
6191 
6286 
6437 
6654 
6895 
7024 
6909 
6693 
6474 
6239 
6005 
5966 
6046 
6110 
6164 
6226 
6272 
6235 
6224 
6301 
6259 
6235 
6217 
6271 
6293 
6260 
6247 
6228 
6278 
6279 
6259 
6255 
6271 
6281 
6252 
6276 
6321 
6274 
6289 
6274 
6284 
6317 
6354 
6310 
6355 
6426 
6367 
6358 
6349 
6346 
6329 
6367 
6372 
6408 
6399 
6404 
6385 
6423 
6398 
6417 
6468 
6421 
6458 
6480 
6472 
6513 
6533 
6524 
6537 
6512 
6522 
6541 
6544 
6497 
6471 
6479 
6431 
6449 
6444 
6369 
6321 
6277 
5989 
5889 
5958 
6005 
5990 
6018 
6050 
6053 
6076 
6076 
6069 
6091 
6103 
6096 
6086 
6105 
6124 
6154 
6092 
6068 
6094 
6146 
6141 
6086 
6123 
6118 
6130 
6112 
6094 
6132 
6116 
6133 
6132 
6164 
6183 
6159 
6149 
6161 
6196 
6195 
6148 
6145 
6186 
6189 
6178 
6179 
6173 
6177 
6176 
6176 
6200 
6201 
6185 
6164 
6176 
6255 
6520 
6556 
6449 
6389 
6369 
6348 
6325 
6305 
6320 
6296 
6271 
6270 
6264 
6231 
6250 
6248 
6237 
6245 
6248 
6228 
6233 
6225 
6219 
6240 
6225 
6206 
6169 
6180 
6223 
6195 
6180 
6164 
6203 
6196 
6173 
6187 
6202 
6207 
6172 
6199 
6206 
6174 
6177 
6188 
6177 
6188 
6200 
6166 
6185 
6198 
6206 
6189 
6234 
6146 
6139 
6145 
6146 
6180 
6156 
6143 
6155 
6136 
6146 
6186 
6170 
6214 
6203 
6165 
6182 
6182 
6202 
6218 
6167 
6217 
6227 
6221 
6227 
6266 
6235 
6196 
6192 
6206 
6202 
6207 
6181 
6145 
6152 
6204 
6194 
6157 
6158 
6170 
6136 
6103 
6104 
6160 
6164 
6145 
6163 
6222 
6201 
6118 
6097 
6106 
6143 
6199 
6342 
6516 
6766 
6951 
6901 
6703 
6450 
6244 
6006 
5914 
5982 
6043 
6066 
6145 
6155 
6187 
6193 
6156 
6141 
6147 
6151 
6170 
6200 
6213 
6195 
6180 
6176 
6177 
6197 
6219 
6229 
6203 
6201 
6185 
6234 
6234 
6230 
6228 
6261 
6269 
6238 
6252 
6260 
6257 
6240 
6242 
6270 
6279 
6263 
6294 
6322 
6365 
6341 
6307 
6310 
6348 
6370 
6377 
6368 
6364 
6378 
6408 
6404 
6426 
6426 
6452 
6450 
6491 
6462 
6437 
6436 
6437 
6431 
6358 
6038 
5927 
6026 
6033 
6060 
6084 
6073 
6063 
6045 
6033 
6030 
6021 
6003 
6011 
6042 
6022 
6003 
6020 
6056 
6036 
6038 
6027 
6045 
6078 
6061 
6046 
6035 
6088 
6080 
6042 
6053 
6077 
6097 
6074 
6021 
6088 
6068 
6053 
6073 
6044 
6060 
6089 
6089 
6106 
6105 
6098 
6088 
6099 
6140 
6129 
6126 
6133 
6147 
6159 
6452 
6470 
6438 
6357 
6324 
6261 
6252 
6228 
6214 
6219 
6259 
6237 
6194 
6192 
6191 
6222 
6193 
6168 
6187 
6168 
6169 
6168 
6177 
6213 
6188 
6140 
6131 
6155 
6152 
6124 
6107 
6154 
6156 
6172 
6169 
6160 
6156 
6159 
6154 
6122 
6161 
6152 
6127 
6135 
6137 
6135 
6129 
6148 
6130 
6154 
6157 
6131 
6124 
6127 
6074 
6114 
6111 
6131 
6150 
6115 
6138 
6175 
6144 
6146 
6113 
6112 
6105 
6119 
6138 
6130 
6163 
6154 
6114 
6151 
6184 
6145 
6182 
6174 
6101 
6125 
6144 
6175 
6172 
6179 
6165 
6183 
6176 
6193 
6161 
6182 
6186 
6176 
6127 
6122 
6126 
6118 
6111 
6103 
6097 
6113 
6102 
6064 
6105 
6087 
6091 
6094 
6091 
6127 
6132 
6100 
6118 
6096 
6135 
6251 
6441 
6650 
6844 
6856 
6711 
6467 
6206 
5964 
5845 
5835 
5883 
5992 
6047 
6079 
6123 
6099 
6103 
6141 
6181 
6173 
6148 
6147 
6175 
6191 
6179 
6159 
6127 
6174 
6144 
6150 
6131 
6123 
6170 
6200 
6217 
6146 
6175 
6195 
6216 
6208 
6232 
6246 
6241 
6227 
6261 
6258 
6261 
6279 
6253 
6286 
6306 
6308 
6307 
6308 
6338 
6330 
6321 
6329 
6343 
6400 
6405 
6366 
6374 
6401 
6402 
6428 
6448 
6392 
6065 
6049 
6114 
6175 
6194 
6182 
6113 
6076 
6124 
6142 
6114 
6117 
6124 
6057 
6001 
5995 
6010 
6007 
5986 
6005 
6013 
6021 
6015 
6002 
5997 
5997 
6006 
6006 
6008 
6019 
6031 
5998 
6020 
6038 
6033 
6085 
6009 
5985 
6056 
6049 
6032 
6063 
6073 
6054 
6016 
6036 
6057 
6065 
6081 
6098 
6190 
6467 
6411 
6355 
6349 
6292 
6281 
6257 
6247 
6222 
6207 
6202 
6212 
6150 
6104 
6120 
6140 
6131 
6139 
6104 
6171 
6139 
6104 
6115 
6132 
6107 
6146 
6132 
6116 
6118 
6130 
6123 
6077 
6113 
6142 
6119 
6105 
6086 
6067 
6066 
6079 
6079 
6117 
6098 
6062 
6081 
6077 
6069 
6071 
6053 
6059 
6073 
6059 
6061 
6086 
6096 
6061 
6063 
6084 
6116 
6107 
6097 
6078 
6080 
6108 
6108 
6106 
6126 
6128 
6130 
6125 
6108 
6095 
6110 
6148 
6148 
6144 
6125 
6105 
6099 
6093 
6101 
6111 
6105 
6070 
6062 
6064 
6084 
6120 
6110 
6027 
6031 
6062 
6057 
6060 
6030 
6026 
6030 
6050 
6061 
6115 
6195 
6325 
6567 
6775 
6848 
6663 
6405 
6181 
5977 
5808 
5757 
5860 
5948 
5954 
6016 
6031 
6057 
6034 
6090 
6118 
6088 
6102 
6099 
6097 
6086 
6053 
6072 
6085 
6108 
6105 
6147 
6128 
6140 
6134 
6081 
6121 
6146 
6118 
6149 
6152 
6152 
6170 
6157 
6142 
6180 
6174 
6165 
6162 
6196 
6223 
6213 
6176 
6214 
6266 
6264 
6278 
6285 
6252 
6312 
6328 
6290 
6325 
6350 
6394 
6351 
6172 
5893 
6018 
6063 
6113 
6143 
6165 
6173 
6170 
6165 
6116 
6090 
6097 
6075 
6077 
6073 
6053 
6024 
6038 
5992 
5941 
5930 
5980 
5958 
5926 
5952 
5957 
5953 
5939 
5943 
5940 
5981 
5943 
6005 
5992 
5941 
5949 
5976 
5999 
5944 
5953 
5983 
5978 
6022 
5955 
5962 
5978 
5976 
5984 
5988 
5966 
5983 
5977 
6018 
6006 
5997 
6196 
6415 
6321 
6301 
6259 
6212 
6183 
6153 
6166 
6149 
6102 
6088 
6099 
6085 
6094 
6092 
6082 
6033 
6019 
6060 
6024 
6030 
6076 
6037 
6039 
6063 
6018 
6019 
6062 
6053 
6044 
6039 
6048 
6029 
6044 
6023 
6002 
6057 
6016 
5995 
6012 
6019 
6031 
6028 
6055 
6017 
6011 
6026 
6021 
5989 
5987 
5979 
6016 
6068 
6015 
6013 
6012 
6025 
6025 
5979 
5992 
6000 
5987 
6038 
6046 
6035 
6031 
6026 
5980 
6014 
6042 
6030 
5994 
6067 
6055 
6023 
6073 
6061 
6072 
6056 
6036 
6055 
6021 
5966 
5985 
5984 
5983 
5993 
5981 
6008 
5995 
5984 
5971 
5954 
5997 
5961 
5968 
5984 
5938 
5964 
5966 
5983 
6032 
6132 
6307 
6546 
6768 
6752 
6538 
6324 
6078 
5896 
5753 
5795 
5813 
5890 
5926 
5963 
6001 
5989 
5998 
5982 
5946 
5966 
6015 
6007 
5984 
6017 
6053 
6041 
5987 
6000 
6035 
6056 
6034 
6059 
6061 
6043 
6029 
6035 
6037 
6095 
6057 
6103 
6125 
6042 
6051 
6090 
6075 
6144 
6139 
6132 
6109 
6117 
6153 
6161 
6186 
6202 
6220 
6209 
6188 
6198 
6202 
6230 
6232 
6226 
6258 
6272 
6006 
5854 
5912 
5966 
6023 
6029 
6056 
6078 
6075 
6040 
6018 
5990 
5963 
5971 
5979 
5945 
5927 
5911 
5922 
5921 
5899 
5900 
5877 
5843 
5887 
5842 
5844 
5882 
5854 
5885 
5882 
5889 
5885 
5847 
5848 
5872 
5890 
5900 
5906 
5904 
5915 
5886 
5857 
5905 
5904 
5899 
5902 
5911 
5927 
5910 
5927 
5958 
5940 
5900 
5898 
6156 
6391 
6255 
6180 
6149 
6130 
6109 
6077 
6078 
6090 
6104 
6092 
6073 
6072 
6069 
6070 
6048 
6015 
6017 
6047 
6013 
5981 
6038 
6005 
5990 
5989 
6023 
6024 
5974 
5974 
6015 
6026 
6006 
5961 
5986 
5991 
5996 
6018 
6045 
5980 
5978 
5951 
5965 
5985 
5977 
5966 
5982 
5963 
5938 
5966 
5953 
5960 
5970 
5975 
5989 
6014 
6001 
6003 
5946 
5967 
5953 
5971 
5947 
5969 
5975 
6059 
6009 
5973 
5998 
5974 
5978 
5981 
6002 
6006 
6006 
6024 
6051 
6054 
6014 
6041 
6066 
6031 
5987 
5989 
5976 
5968 
5981 
5971 
5994 
6013 
5978 
5937 
5935 
5971 
5923 
5951 
5959 
5986 
5965 
5955 
5892 
5969 
5953 
5911 
5945 
6035 
6133 
6345 
6587 
6774 
6729 
6448 
6193 
5992 
5781 
5701 
5724 
5798 
5875 
5942 
5949 
6001 
5989 
6010 
5969 
5972 
5989 
6020 
6025 
5976 
6005 
6045 
6019 
5984 
5990 
6009 
6020 
6026 
6016 
6040 
6038 
6013 
6029 
6054 
6061 
6029 
6045 
6078 
6046 
6058 
6048 
6054 
6097 
6080 
6101 
6133 
6119 
6114 
6135 
6159 
6200 
6193 
6180 
6195 
6206 
6202 
6211 
6265 
6288 
6245 
6240 
5951 
5859 
5976 
6030 
6056 
6076 
6039 
6049 
6051 
6102 
6083 
6020 
6009 
5965 
5955 
5971 
5957 
5922 
5900 
5912 
5884 
5920 
5929 
5902 
5890 
5888 
5886 
5867 
5826 
5856 
5902 
5896 
5871 
5870 
5873 
5880 
5865 
5864 
5911 
5930 
5899 
5904 
5933 
5940 
5924 
5913 
5900 
5914 
5905 
5895 
5930 
5959 
5928 
5962 
5977 
6243 
6371 
6224 
6183 
6182 
6162 
6110 
6125 
6105 
6072 
6069 
6036 
6052 
6062 
6071 
6065 
6048 
6049 
5999 
6012 
6037 
6045 
6018 
6047 
6032 
6027 
6047 
6017 
6001 
6008 
6023 
6008 
6001 
6017 
6030 
6024 
5989 
5987 
5995 
6015 
6017 
5977 
5990 
6009 
6027 
6007 
6000 
6014 
6024 
6039 
6042 
6068 
6044 
6043 
6078 
6056 
6082 
6072 
6070 
6063 
6063 
6042 
6056 
6049 
6023 
6028 
6029 
6018 
6006 
6006 
6008 
6023 
5999 
5987 
5983 
5997 
6012 
5951 
5980 
5993 
6001 
6009 
5985 
6019 
6087 
6193 
6365 
6595 
6739 
6714 
6494 
6238 
6043 
5830 
5736 
5733 
5797 
5882 
5942 
5967 
5989 
6010 
6031 
6006 
6031 
6039 
6051 
6045 
6059 
6073 
6079 
6067 
6094 
6135 
6024 
6030 
6061 
6075 
6109 
6086 
6084 
6120 
6131 
6104 
6134 
6129 
6133 
6127 
6131 
6166 
6185 
6163 
6156 
6183 
6193 
6190 
6171 
6193 
6191 
6189 
6196 
6220 
6279 
6263 
6259 
6294 
6342 
6347 
6313 
6332 
6348 
6327 
6339 
6365 
6130 
5888 
5949 
6012 
6059 
6037 
5992 
6025 
6008 
5964 
5962 
5986 
5954 
5948 
5926 
5890 
5915 
5920 
5903 
5925 
5940 
5914 
5880 
5878 
5885 
5911 
5931 
5930 
5895 
5902 
5898 
5892 
5921 
5924 
5939 
5934 
5938 
5919 
5928 
5957 
5963 
5979 
5991 
5938 
5929 
5961 
5923 
5950 
5945 
5971 
6009 
6014 
6299 
6359 
6265 
6231 
6216 
6158 
6170 
6167 
6126 
6097 
6068 
6065 
6063 
6067 
6072 
6075 
6080 
6076 
6044 
6106 
6099 
6049 
6050 
6048 
6052 
6029 
6052 
6056 
6036 
6039 
6023 
6021 
6001 
6021 
6002 
6015 
6034 
6013 
6025 
6042 
6060 
6023 
6003 
6025 
6067 
6007 
6039 
6072 
6033 
6059 
6079 
6042 
6033 
6050 
6076 
6051 
6022 
5967 
5963 
5982 
6017 
6012 
5998 
5993 
5997 
6004 
5963 
5952 
5950 
5994 
5998 
6007 
6013 
6009 
5996 
5957 
6001 
6020 
6164 
6316 
6551 
6725 
6767 
6552 
6270 
6035 
5864 
5756 
5734 
5813 
5870 
5928 
5985 
6013 
6014 
6044 
6038 
6013 
5994 
6019 
6028 
6054 
6071 
6045 
6015 
6002 
6018 
6037 
6047 
6074 
6050 
6061 
6060 
6059 
6058 
6051 
6064 
6089 
6097 
6105 
6104 
6126 
6098 
6108 
6126 
6121 
6134 
6131 
6113 
6172 
6143 
6124 
6167 
6176 
6198 
6215 
6243 
6216 
6207 
6228 
6283 
6308 
6268 
6134 
5840 
5929 
5969 
6008 
6004 
6012 
6052 
6055 
6037 
6013 
5970 
5951 
5959 
5930 
5880 
5902 
5895 
5904 
5862 
5873 
5881 
5858 
5858 
5838 
5857 
5869 
5858 
5821 
5850 
5880 
5863 
5876 
5845 
5824 
5880 
5885 
5884 
5876 
5868 
5847 
5855 
5851 
5849 
5857 
5907 
5901 
5889 
5867 
5871 
5890 
5925 
5962 
5986 
6243 
6319 
6213 
6181 
6152 
6113 
6068 
6017 
6061 
6086 
6033 
6014 
6033 
6064 
6032 
5982 
5984 
5969 
6000 
5982 
5985 
6015 
6015 
5969 
5987 
5958 
5955 
5950 
5957 
5933 
5922 
5920 
5960 
6003 
5942 
5934 
5931 
5907 
5922 
5913 
5961 
5970 
5983 
5911 
5889 
5890 
5908 
5937 
5902 
5907 
5918 
5925 
5927 
5913 
5909 
5946 
5938 
5901 
5925 
5909 
5913 
5915 
5932 
5978 
6004 
5999 
5948 
5932 
5972 
5993 
5966 
5955 
5977 
6005 
5985 
5931 
5910 
5896 
5886 
5895 
5867 
5889 
5896 
5877 
5892 
5929 
5916 
5891 
5899 
5870 
5906 
5919 
5917 
5921 
5913 
5907 
5931 
6087 
6257 
6484 
6691 
6677 
6479 
6238 
5981 
5803 
5702 
5711 
5755 
5829 
5917 
5888 
5879 
5942 
5957 
5911 
5915 
5933 
5945 
5969 
5948 
5949 
5927 
5941 
5973 
5965 
5963 
5922 
5945 
5961 
5946 
5959 
5986 
5967 
5937 
5955 
5981 
5976 
5973 
6009 
6021 
6023 
6001 
6033 
6036 
6029 
6048 
6096 
6071 
6075 
6079 
6089 
6099 
6084 
6134 
6118 
6084 
6131 
6145 
6152 
6134 
5825 
5789 
5880 
5888 
5906 
5962 
5971 
5972 
5997 
6016 
6005 
5955 
5931 
5911 
5869 
5828 
5833 
5849 
5831 
5812 
5819 
5820 
5788 
5773 
5797 
5787 
5769 
5779 
5810 
5764 
5744 
5755 
5789 
5793 
5795 
5778 
5800 
5833 
5812 
5801 
5801 
5773 
5807 
5827 
5834 
5851 
5829 
5828 
5857 
5839 
5814 
5833 
5837 
5853 
5858 
5939 
6247 
6231 
6137 
6057 
6041 
6023 
5998 
6012 
6003 
5986 
5968 
5944 
5923 
5950 
5955 
5938 
5938 
5956 
5945 
5907 
5912 
5929 
5902 
5920 
5905 
5880 
5906 
5942 
5899 
5906 
5941 
5948 
5924 
5914 
5894 
5898 
5879 
5921 
5888 
5915 
5903 
5877 
5909 
5938 
5913 
5896 
5872 
5902 
5914 
5904 
5916 
5904 
5934 
5921 
5873 
5893 
5907 
5901 
5944 
5926 
5920 
5885 
5889 
5909 
5912 
5909 
5855 
5877 
5918 
5936 
5919 
5913 
5906 
5913 
5922 
5922 
5929 
5929 
5922 
5950 
5945 
5968 
5961 
5927 
5918 
5948 
5961 
5970 
5923 
5927 
5930 
5911 
5857 
5912 
5871 
5861 
5886 
5897 
5887 
5887 
5908 
5865 
5879 
5873 
5871 
5875 
5878 
5884 
5906 
5914 
5983 
6149 
6397 
6640 
6683 
6537 
6290 
6007 
5816 
5656 
5650 
5711 
5805 
5872 
5901 
5923 
5952 
5961 
5978 
5956 
5930 
5936 
5977 
5937 
5943 
5977 
5941 
5930 
5938 
5927 
5875 
5578 
5553 
5669 
5710 
5766 
5804 
5856 
5869 
5862 
5874 
5892 
5871 
5924 
5931 
5944 
5970 
5968 
5968 
5973 
5954 
5960 
5996 
6008 
6014 
6075 
6012 
6008 
6039 
6086 
6119 
6107 
6106 
6114 
6162 
6166 
6160 
6176 
6168 
6135 
6145 
6151 
6127 
6101 
6110 
6115 
6045 
5995 
5997 
5934 
5907 
5923 
5906 
5915 
5886 
5883 
5872 
5892 
5850 
5833 
5848 
5853 
5827 
5826 
5829 
5849 
5843 
5841 
5822 
5863 
5835 
5858 
5808 
5784 
5808 
5841 
5865 
5831 
5818 
5813 
5868 
5829 
5787 
5830 
5840 
5856 
5862 
5881 
5899 
5867 
5845 
5868 
5876 
5849 
5831 
5853 
5843 
5868 
5871 
5891 
5869 
5841 
5837 
5854 
5903 
5887 
5868 
5887 
5860 
5838 
6026 
6338 
6224 
6168 
6104 
6076 
6049 
6027 
5994 
5991 
6002 
5985 
5966 
5990 
5978 
5972 
5952 
5922 
5940 
5974 
5975 
5968 
5972 
5954 
5995 
5996 
5957 
5940 
5903 
5869 
5896 
5914 
5944 
5923 
5922 
5963 
5953 
5915 
5903 
5870 
5912 
5945 
5927 
5926 
5933 
5940 
5948 
5947 
5939 
5939 
5920 
5914 
5934 
5951 
5932 
5949 
5956 
5958 
5954 
5934 
5978 
5965 
5971 
5934 
5925 
5885 
5889 
5921 
5925 
5918 
5900 
5891 
5892 
5875 
5873 
5869 
5899 
5895 
5867 
5842 
5880 
5870 
5857 
5895 
5876 
5896 
6029 
6202 
6401 
6564 
6620 
6470 
6204 
5983 
5799 
5662 
5581 
5675 
5747 
5792 
5849 
5857 
5892 
5912 
5905 
5932 
5924 
5925 
5944 
5920 
5919 
5963 
5971 
5982 
5969 
5951 
5981 
5931 
5936 
5968 
6009 
6021 
6026 
6000 
6003 
5970 
5986 
5989 
6010 
6036 
6021 
6040 
6012 
6032 
6039 
6084 
6094 
6091 
6095 
6108 
6098 
6130 
6111 
6135 
6169 
6209 
6148 
6160 
6190 
6204 
6196 
6217 
6229 
6259 
6223 
6213 
6223 
6188 
6207 
6151 
6137 
6130 
6089 
6083 
6066 
6034 
6013 
5990 
5995 
5943 
5938 
5945 
5919 
5918 
5908 
5888 
5900 
5939 
5875 
5882 
5873 
5900 
5906 
5871 
5863 
5886 
5875 
5864 
5834 
5866 
5841 
5513 
5457 
5567 
5604 
5651 
5698 
5681 
5712 
5722 
5713 
5716 
5717 
5761 
5791 
5772 
5779 
5790 
5781 
5825 
5854 
5849 
5842 
5814 
5808 
5833 
5869 
5856 
5848 
5846 
5869 
5842 
5799 
5805 
5807 
5822 
5836 
5862 
5838 
5820 
5839 
5839 
5843 
5845 
5865 
5873 
5871 
5869 
5839 
5809 
5854 
5870 
5837 
5844 
5828 
5813 
5865 
6175 
6247 
6161 
6092 
6041 
6039 
6023 
6015 
6035 
5976 
5960 
5986 
6021 
5990 
5954 
5950 
5935 
5984 
5978 
5969 
5955 
5960 
5925 
5929 
5927 
5921 
5916 
5899 
5851 
5862 
5861 
5863 
5859 
5863 
5868 
5884 
5879 
5880 
5874 
5864 
5886 
5884 
5851 
5858 
5857 
5928 
6055 
6259 
6448 
6609 
6567 
6333 
6082 
5864 
5679 
5559 
5593 
5680 
5787 
5839 
5858 
5856 
5873 
5887 
5916 
5906 
5913 
5926 
5903 
5906 
5878 
5916 
5904 
5934 
5950 
5934 
5922 
5918 
5923 
5917 
5916 
5943 
5935 
5951 
6003 
5983 
5955 
5972 
5983 
6010 
5993 
5966 
5976 
5975 
5991 
6006 
6016 
6014 
6020 
6015 
6038 
6083 
6086 
6064 
6103 
6114 
6099 
6090 
6126 
6158 
6168 
6161 
6189 
6198 
6167 
6163 
6158 
6120 
6102 
6074 
6047 
6035 
6012 
5998 
5966 
5915 
5932 
5934 
5901 
5907 
5882 
5827 
5814 
5844 
5852 
5852 
5837 
5835 
5847 
5859 
5856 
5826 
5829 
5855 
5839 
5813 
5807 
5837 
5864 
5833 
5800 
5830 
5819 
5804 
5810 
5866 
5884 
5854 
5801 
5823 
5829 
5831 
5822 
5823 
5850 
5827 
5835 
5874 
5865 
5884 
5821 
5830 
5848 
5802 
5844 
5852 
5803 
5827 
5852 
5840 
5828 
5810 
5821 
5838 
5812 
5805 
5806 
5826 
5864 
5839 
5813 
5796 
5806 
5833 
5846 
5819 
5814 
5825 
5829 
5803 
5819 
5850 
5866 
5815 
5809 
5841 
5811 
5792 
5806 
5845 
5828 
5812 
5834 
5851 
5830 
5798 
5795 
5823 
5826 
5802 
5815 
5839 
5861 
5826 
5820 
5822 
5829 
5810 
5794 
5823 
5802 
5826 
5807 
5806 
5807 
5805 
5807 
5813 
5877 
5851 
5833 
5811 
5819 
5839 
5842 
5846 
5897 
5876 
5861 
5857 
5861 
5861 
5842 
5829 
5873 
5869 
5848 
5825 
5792 
5787 
5807 
5816 
5798 
5776 
5820 
5815 
5771 
5772 
5765 
5769 
5747 
5742 
5802 
5802 
5785 
5771 
5757 
5853 
5987 
6196 
6422 
6500 
6427 
6224 
6026 
5819 
5608 
5567 
5645 
5691 
5695 
5753 
5798 
5825 
5792 
5792 
5779 
5782 
5809 
5808 
5797 
5857 
5862 
5845 
5842 
5877 
5852 
5854 
5867 
5869 
5847 
5848 
5848 
5897 
5900 
5884 
5877 
5882 
5882 
5885 
5907 
5859 
5864 
5918 
5908 
5905 
5925 
5921 
5960 
5997 
5987 
5977 
5976 
5958 
6010 
6020 
6012 
6018 
6057 
6064 
6073 
6071 
6067 
6040 
6037 
6049 
6030 
6078 
6086 
6070 
6044 
6046 
6006 
5955 
5959 
5962 
5937 
5880 
5865 
5849 
5875 
5850 
5827 
5809 
5790 
5807 
5799 
5783 
5777 
5752 
5771 
5784 
5761 
5784 
5760 
5764 
5780 
5744 
5747 
5788 
5782 
5775 
5775 
5775 
5782 
5773 
5776 
5760 
5769 
5775 
5769 
5738 
5790 
5787 
5763 
5770 
5768 
5770 
5789 
5812 
5798 
5786 
5776 
5751 
5766 
5785 
5804 
5751 
5765 
5772 
5753 
5747 
5779 
5744 
5754 
5765 
5773 
5796 
5782 
5794 
5750 
5772 
5776 
5764 
5757 
5767 
5762 
5757 
5781 
5788 
5784 
5750 
5708 
5742 
5774 
5745 
5738 
5748 
5775 
5782 
5744 
5755 
5735 
5751 
5741 
5735 
5768 
5738 
5707 
5737 
5753 
5764 
5761 
5754 
5771 
5776 
5763 
5770 
5714 
5738 
5781 
5757 
5732 
5769 
5747 
5726 
5706 
5748 
5748 
5738 
5749 
5739 
5758 
5743 
5701 
5720 
5763 
5741 
5715 
5725 
5722 
5743 
5791 
5769 
5769 
5791 
5770 
5754 
5786 
5784 
5755 
5731 
5777 
5799 
5804 
5782 
5772 
5797 
5778 
5742 
5739 
5724 
5708 
5712 
5747 
5733 
5728 
5722 
5720 
5725 
5734 
5726 
5675 
5718 
5716 
5713 
5718 
5712 
5712 
5657 
5712 
5707 
5803 
5990 
6191 
6400 
6479 
6356 
6120 
5885 
5720 
5512 
5457 
5574 
5657 
5680 
5708 
5736 
5763 
5739 
5731 
5728 
5760 
5774 
5772 
5748 
5753 
5784 
5775 
5776 
5775 
5790 
5782 
5783 
5799 
5789 
5766 
5809 
5811 
5826 
5863 
5842 
5828 
5850 
5855 
5853 
5843 
5841 
5865 
5852 
5847 
5882 
5907 
5888 
5887 
5938 
5945 
5930 
5936 
5948 
5975 
5974 
5958 
5986 
6018 
6031 
6037 
6012 
6054 
6081 
6038 
6046 
6039 
6046 
6039 
6009 
5978 
5982 
5932 
5903 
5903 
5947 
5864 
5783 
5797 
5826 
5798 
5778 
5751 
5769 
5762 
5736 
5727 
5737 
5746 
5732 
5727 
5732 
5754 
5738 
5726 
5769 
5743 
5731 
5703 
5694 
5740 
5745 
5750 
5739 
5733 
5702 
5741 
5748 
5774 
5781 
5765 
5700 
5690 
5725 
5737 
5738 
5759 
5768 
5768 
5747 
5746 
5739 
5755 
5766 
5750 
5774 
5730 
5701 
5713 
5735 
5771 
5762 
5736 
5757 
5758 
5761 
5707 
5712 
5724 
5703 
5712 
5722 
5735 
5723 
5729 
5710 
5703 
5698 
5710 
5728 
5763 
5738 
5742 
5700 
5714 
5737 
5746 
5709 
5723 
5746 
5750 
5730 
5727 
5731 
5722 
5714 
5739 
5730 
5688 
5743 
5739 
5717 
5725 
5764 
5717 
5736 
5722 
5696 
5713 
5750 
5722 
5718 
5735 
5736 
5722 
5727 
5720 
5728 
5716 
5702 
5726 
5703 
5726 
5719 
5722 
5687 
5726 
5751 
5741 
5746 
5776 
5757 
5747 
5754 
5784 
5778 
5765 
5774 
5786 
5809 
5777 
5769 
5823 
5831 
5740 
5707 
5779 
5754 
5708 
5675 
5685 
5714 
5702 
5720 
5760 
5718 
5692 
5689 
5709 
5740 
5711 
5689 
5704 
5712 
5705 
5733 
5792 
5877 
6086 
6286 
6419 
6398 
6232 
5971 
5747 
5546 
5463 
5432 
5538 
5593 
5664 
5691 
5737 
5747 
5751 
5729 
5741 
5755 
5771 
5753 
5772 
5765 
5756 
5778 
5818 
5801 
5778 
5803 
5795 
5799 
5812 
5830 
5819 
5835 
5858 
5833 
5870 
5834 
5825 
5808 
5839 
5881 
5838 
5881 
5879 
5901 
5897 
5896 
5874 
5893 
5923 
5913 
5937 
5956 
5948 
5929 
5986 
5968 
5975 
6014 
6035 
6049 
6044 
6069 
6049 
6070 
6053 
5997 
5994 
6019 
5994 
5968 
5936 
5934 
5937 
5855 
5822 
5851 
5831 
5821 
5800 
5792 
5768 
5752 
5731 
5724 
5699 
5720 
5719 
5742 
5719 
5735 
5731 
5732 
5723 
5716 
5700 
5728 
5743 
5731 
5703 
5717 
5736 
5718 
5700 
5727 
5757 
5745 
5744 
5730 
5716 
5714 
5704 
5698 
5721 
5730 
5754 
5760 
5743 
5773 
5750 
5712 
5691 
5756 
5784 
5746 
5715 
5727 
5726 
5717 
5720 
5731 
5740 
5736 
5718 
5723 
5728 
5721 
5711 
5734 
5756 
5708 
5688 
5706 
5744 
5734 
5712 
5732 
5686 
5709 
5683 
5706 
5745 
5742 
5721 
5726 
5747 
5715 
5693 
5714 
5697 
5690 
5708 
5735 
5717 
5713 
5675 
5668 
5686 
5759 
5719 
5711 
5747 
5737 
5684 
5696 
5707 
5724 
5737 
5714 
5725 
5713 
5717 
5729 
5740 
5733 
5763 
5750 
5750 
5779 
5775 
5755 
5746 
5782 
5795 
5774 
5767 
5777 
5778 
5774 
5757 
5753 
5734 
5730 
5736 
5736 
5713 
5695 
5723 
5733 
5712 
5680 
5692 
5713 
5678 
5672 
5657 
5655 
5670 
5731 
5767 
5875 
6035 
6283 
6455 
6383 
6205 
5982 
5765 
5546 
5434 
5490 
5516 
5606 
5649 
5694 
5699 
5700 
5707 
5737 
5737 
5747 
5716 
5739 
5756 
5762 
5772 
5764 
5758 
5755 
5777 
5752 
5798 
5829 
5823 
5789 
5804 
5850 
5831 
5809 
5813 
5819 
5810 
5794 
5838 
5837 
5828 
5833 
5840 
5855 
5848 
5864 
5865 
5884 
5893 
5908 
5936 
5937 
5962 
6013 
5973 
5982 
5977 
5974 
5994 
6014 
6038 
6029 
6039 
6014 
6011 
6002 
6000 
5990 
5962 
5937 
5898 
5920 
5899 
5857 
5812 
5810 
5813 
5824 
5768 
5744 
5767 
5751 
5730 
5711 
5729 
5715 
5705 
5696 
5704 
5706 
5678 
5636 
5733 
5716 
5646 
5672 
5651 
5698 
5676 
5703 
5706 
5700 
5726 
5707 
5700 
5700 
5718 
5706 
5694 
5701 
5689 
5689 
5688 
5715 
5730 
5730 
5700 
5698 
5676 
5700 
5687 
5702 
5720 
5674 
5721 
5761 
5729 
5714 
5697 
5722 
5729 
5733 
5719 
5680 
5698 
5686 
5698 
5698 
5697 
5710 
5698 
5697 
5735 
5708 
5689 
5680 
5681 
5699 
5726 
5718 
5678 
5713 
5704 
5696 
5677 
5704 
5682 
5689 
5681 
5690 
5691 
5691 
5709 
5695 
5696 
5667 
5654 
5684 
5727 
5687 
5697 
5673 
5689 
5689 
5695 
5675 
5653 
5680 
5698 
5692 
5680 
5677 
5711 
5704 
5695 
5681 
5677 
5680 
5688 
5731 
5715 
5706 
5702 
5722 
5699 
5701 
5745 
5769 
5748 
5730 
5741 
5753 
5774 
5715 
5712 
5694 
5683 
5680 
5690 
5669 
5677 
5678 
5646 
5658 
5653 
5637 
5649 
5679 
5679 
5660 
5661 
5658 
5651 
5632 
5631 
5657 
5717 
5822 
5984 
6234 
6419 
6395 
6204 
5956 
5735 
5537 
5431 
5469 
5503 
5571 
5666 
5638 
5647 
5690 
5696 
5717 
5714 
5698 
5712 
5732 
5684 
5716 
5734 
5732 
5757 
5763 
5733 
5705 
5725 
5755 
5772 
5745 
5736 
5762 
5764 
5743 
5723 
5773 
5803 
5816 
5792 
5783 
5816 
5807 
5813 
5807 
5815 
5842 
5856 
5842 
5873 
5862 
5865 
5875 
5885 
5918 
5912 
5896 
5931 
5958 
5963 
5949 
6029 
6013 
5975 
5971 
6008 
6016 
5963 
5941 
5920 
5910 
5863 
5855 
5853 
5815 
5789 
5760 
5746 
5735 
5725 
5735 
5697 
5707 
5684 
5662 
5668 
5635 
5651 
5661 
5673 
5652 
5648 
5687 
5665 
5645 
5641 
5679 
5636 
5654 
5688 
5689 
5678 
5670 
5674 
5660 
5682 
5701 
5657 
5663 
5663 
5705 
5644 
5672 
5685 
5640 
5625 
5675 
5675 
5719 
5709 
5691 
5642 
5678 
5674 
5698 
5734 
5717 
5688 
5674 
5684 
5680 
5659 
5693 
5692 
5658 
5615 
5641 
5676 
5658 
5654 
5619 
5668 
5650 
5657 
5675 
5681 
5683 
5679 
5647 
5657 
5686 
5664 
5652 
5670 
5702 
5669 
5622 
5677 
5696 
5675 
5673 
5657 
5631 
5642 
5647 
5639 
5677 
5662 
5648 
5657 
5678 
5679 
5671 
5689 
5680 
5678 
5646 
5677 
5637 
5621 
5662 
5667 
5654 
5662 
5658 
5648 
5644 
5636 
5645 
5640 
5648 
5683 
5704 
5714 
5687 
5687 
5689 
5675 
5713 
5733 
5723 
5726 
5709 
5699 
5724 
5709 
5685 
5683 
5660 
5668 
5647 
5632 
5648 
5642 
5619 
5617 
5616 
5595 
5614 
5636 
5640 
5646 
5650 
5636 
5642 
5665 
5619 
5601 
5691 
5827 
6048 
6290 
6367 
6352 
6181 
5876 
5665 
5462 
5371 
5435 
5535 
5612 
5643 
5675 
5684 
5693 
5685 
5697 
5665 
5667 
5707 
5715 
5698 
5697 
5728 
5696 
5732 
5756 
5724 
5677 
5682 
5706 
5742 
5744 
5711 
5744 
5758 
5740 
5751 
5766 
5767 
5788 
5745 
5720 
5764 
5796 
5789 
5795 
5801 
5837 
5842 
5851 
5854 
5851 
5869 
5878 
5851 
5899 
5943 
5928 
5927 
5904 
5960 
5957 
5952 
5975 
5979 
5964 
5950 
5954 
5937 
5936 
5917 
5905 
5899 
5862 
5815 
5790 
5794 
5760 
5727 
5704 
5718 
5711 
5665 
5665 
5668 
5661 
5646 
5664 
5679 
5652 
5648 
5647 
5699 
5659 
5618 
5617 
5621 
5638 
5667 
5651 
5631 
5656 
5662 
5656 
5650 
5645 
5657 
5639 
5617 
5680 
5688 
5675 
5649 
5658 
5700 
5681 
5650 
5667 
5690 
5661 
5621 
5686 
5730 
5690 
5686 
5630 
5673 
5681 
5651 
5650 
5662 
5649 
5613 
5628 
5651 
5625 
5646 
5648 
5655 
5660 
5643 
5640 
5650 
5665 
5662 
5635 
5617 
5671 
5667 
5651 
5645 
5696 
5694 
5633 
5619 
5616 
5665 
5641 
5580 
5618 
5661 
5649 
5596 
5660 
5661 
5653 
5622 
5607 
5659 
5660 
5637 
5664 
5684 
5669 
5659 
5668 
5645 
5655 
5645 
5619 
5642 
5641 
5607 
5628 
5609 
5665 
5688 
5637 
5608 
5624 
5641 
5620 
5633 
5664 
5669 
5704 
5678 
5684 
5696 
5692 
5687 
5686 
5688 
5676 
5664 
5695 
5695 
5662 
5635 
5629 
5637 
5644 
5638 
5629 
5630 
5622 
5625 
5617 
5623 
5626 
5626 
5603 
5613 
5629 
5641 
5655 
5645 
5662 
5666 
5799 
6007 
6270 
6406 
6318 
6122 
5879 
5658 
5427 
5337 
5400 
5457 
5502 
5597 
5648 
5674 
5664 
5659 
5675 
5639 
5648 
5671 
5701 
5703 
5691 
5695 
5727 
5694 
5665 
5693 
5708 
5683 
5685 
5679 
5706 
5734 
5736 
5748 
5746 
5758 
5742 
5745 
5752 
5767 
5810 
5822 
5800 
5819 
5821 
5784 
5811 
5836 
5837 
5860 
5833 
5838 
5855 
5862 
5894 
5929 
5947 
5961 
5924 
5975 
6004 
5991 
5981 
5990 
5957 
5985 
5996 
5939 
5926 
5917 
5875 
5857 
5837 
5816 
5799 
5747 
5714 
5737 
5732 
5696 
5671 
5682 
5682 
5679 
5663 
5658 
5662 
5649 
5647 
5622 
5643 
5665 
5626 
5666 
5623 
5601 
5583 
5651 
5690 
5643 
5624 
5602 
5643 
5678 
5645 
5653 
5650 
5664 
5681 
5666 
5676 
5672 
5678 
5650 
5648 
5692 
5678 
5663 
5650 
5676 
5669 
5655 
5676 
5646 
5624 
5635 
5643 
5662 
5639 
5640 
5641 
5670 
5654 
5617 
5628 
5624 
5610 
5633 
5607 
5624 
5655 
5628 
5584 
5622 
5642 
5663 
5644 
5607 
5638 
5634 
5605 
5613 
5634 
5666 
5643 
5643 
5627 
5620 
5602 
5615 
5593 
5605 
5615 
5612 
5586 
5613 
5635 
5607 
5643 
5645 
5619 
5618 
5662 
5686 
5638 
5637 
5679 
5700 
5666 
5663 
5704 
5666 
5687 
5647 
5612 
5625 
5651 
5635 
5585 
5613 
5606 
5605 
5623 
5616 
5624 
5590 
5544 
5578 
5621 
5621 
5611 
5613 
5630 
5619 
5625 
5628 
5705 
5817 
6041 
6266 
6401 
6286 
6028 
5760 
5532 
5341 
5260 
5318 
5452 
5540 
5549 
5557 
5588 
5645 
5634 
5629 
5644 
5660 
5672 
5654 
5654 
5669 
5677 
5651 
5664 
5669 
5654 
5697 
5701 
5673 
5690 
5660 
5643 
5699 
5697 
5700 
5700 
5741 
5728 
5695 
5709 
5727 
5762 
5725 
5726 
5759 
5822 
5821 
5782 
5771 
5812 
5828 
5834 
5830 
5855 
5846 
5855 
5855 
5901 
5945 
5912 
5921 
5913 
5921 
5926 
5919 
5924 
5941 
5894 
5891 
5903 
5877 
5817 
5768 
5774 
5752 
5717 
5685 
5650 
5641 
5628 
5630 
5618 
5608 
5607 
5626 
5614 
5618 
5653 
5599 
5558 
5597 
5607 
5603 
5594 
5609 
5604 
5565 
5589 
5577 
5560 
5552 
5548 
5561 
5584 
5593 
5581 
5559 
5567 
5602 
5606 
5591 
5578 
5586 
5571 
5574 
5586 
5610 
5603 
5604 
5574 
5615 
5579 
5590 
5584 
5584 
5588 
5578 
5563 
5552 
5560 
5562 
5570 
5582 
5609 
5600 
5581 
5601 
5562 
5527 
5531 
5561 
5616 
5583 
5576 
5574 
5578 
5599 
5616 
5575 
5563 
5572 
5585 
5560 
5600 
5594 
5541 
5541 
5536 
5557 
5570 
5542 
5571 
5613 
5593 
5543 
5528 
5572 
5574 
5582 
5585 
5593 
5591 
5592 
5552 
5569 
5596 
5571 
5535 
5573 
5608 
5607 
5569 
5601 
5601 
5608 
5596 
5620 
5640 
5631 
5622 
5606 
5617 
5597 
5604 
5612 
5569 
5570 
5598 
5582 
5577 
5589 
5527 
5522 
5572 
5557 
5530 
5527 
5560 
5572 
5555 
5547 
5537 
5562 
5509 
5503 
5537 
5612 
5740 
5948 
6129 
6303 
6284 
6068 
5818 
5629 
5434 
5306 
5285 
5406 
5483 
5538 
5597 
5590 
5609 
5619 
5594 
5579 
5611 
5627 
5574 
5613 
5612 
5599 
5609 
5597 
5621 
5612 
5618 
5639 
5632 
5635 
5635 
5628 
5648 
5651 
5658 
5666 
5664 
5667 
5661 
5646 
5685 
5724 
5687 
5635 
5690 
5724 
5730 
5743 
5757 
5751 
5766 
5765 
5779 
5770 
5812 
5828 
5847 
5864 
5839 
5862 
5846 
5852 
5842 
5842 
5871 
5897 
5846 
5819 
5830 
5807 
5793 
5774 
5740 
5662 
5668 
5669 
5638 
5667 
5617 
5618 
5605 
5570 
5561 
5567 
5550 
5528 
5520 
5568 
5589 
5295 
5022 
5138 
5212 
5272 
5298 
5322 
5351 
5357 
5357 
5397 
5412 
5448 
5425 
5417 
5394 
5444 
5452 
5477 
5482 
5442 
5421 
5458 
5513 
5493 
5445 
5443 
5455 
5453 
5491 
5478 
5477 
5486 
5482 
5473 
5487 
5475 
5476 
5483 
5494 
5515 
5511 
5502 
5489 
5485 
5507 
5485 
5469 
5518 
5510 
5442 
5480 
5516 
5481 
5487 
5494 
5499 
5484 
5490 
5491 
5506 
5518 
5541 
5530 
5525 
5506 
5532 
5522 
5521 
5498 
5490 
5493 
5490 
5629 
5958 
5885 
5817 
5787 
5759 
5711 
5714 
5706 
5648 
5641 
5644 
5664 
5630 
5598 
5592 
5622 
5615 
5602 
5607 
5591 
5594 
5590 
5588 
5553 
5574 
5586 
5584 
5598 
5626 
5617 
5600 
5577 
5590 
5615 
5611 
5619 
5635 
5626 
5637 
5626 
5648 
5657 
5619 
5645 
5652 
5597 
5592 
5597 
5585 
5548 
5564 
5555 
5530 
5529 
5560 
5562 
5544 
5537 
5565 
5557 
5548 
5557 
5554 
5557 
5581 
5577 
5600 
5627 
5772 
5983 
6204 
6350 
6220 
6031 
5825 
5635 
5387 
5293 
5361 
5462 
5541 
5553 
5584 
5579 
5579 
5593 
5627 
5605 
5597 
5629 
5649 
5613 
5574 
5605 
5617 
5627 
5609 
5619 
5591 
5643 
5647 
5644 
5651 
5670 
5659 
5693 
5656 
5681 
5684 
5649 
5643 
5671 
5691 
5651 
5677 
5706 
5749 
5745 
5730 
5730 
5747 
5748 
5779 
5758 
5754 
5789 
5787 
5792 
5832 
5838 
5873 
5865 
5894 
5889 
5872 
5889 
5893 
5878 
5855 
5850 
5860 
5841 
5781 
5805 
5786 
5716 
5647 
5661 
5653 
5626 
5613 
5571 
5554 
5587 
5411 
5075 
5156 
5239 
5310 
5300 
5289 
5345 
5383 
5390 
5389 
5411 
5407 
5398 
5417 
5408 
5439 
5464 
5427 
5382 
5446 
5480 
5465 
5451 
5463 
5446 
5479 
5501 
5471 
5506 
5494 
5460 
5505 
5487 
5467 
5494 
5510 
5533 
5512 
5495 
5515 
5524 
5486 
5501 
5506 
5527 
5514 
5494 
5492 
5539 
5549 
5539 
5537 
5520 
5550 
5533 
5475 
5515 
5529 
5804 
6000 
5904 
5880 
5799 
5684 
5673 
5668 
5689 
5688 
5682 
5700 
5675 
5667 
5648 
5620 
5603 
5622 
5628 
5624 
5608 
5633 
5615 
5620 
5631 
5610 
5599 
5592 
5587 
5571 
5582 
5613 
5634 
5645 
5585 
5562 
5589 
5586 
5609 
5596 
5597 
5595 
5612 
5588 
5585 
5604 
5591 
5601 
5624 
5638 
5587 
5541 
5564 
5594 
5594 
5587 
5594 
5603 
5607 
5629 
5625 
5637 
5644 
5632 
5618 
5641 
5654 
5622 
5609 
5626 
5684 
5671 
5624 
5637 
5659 
5635 
5647 
5623 
5601 
5594 
5603 
5563 
5564 
5600 
5603 
5601 
5613 
5601 
5548 
5549 
5583 
5601 
5573 
5545 
5545 
5554 
5571 
5570 
5598 
5716 
5861 
6091 
6288 
6358 
6232 
5961 
5683 
5537 
5407 
5345 
5419 
5491 
5544 
5570 
5610 
5610 
5636 
5629 
5613 
5619 
5616 
5638 
5642 
5658 
5669 
5635 
5640 
5628 
5662 
5665 
5649 
5696 
5704 
5664 
5651 
5673 
5671 
5659 
5683 
5668 
5694 
5750 
5741 
5717 
5740 
5748 
5727 
5727 
5749 
5764 
5767 
5809 
5827 
5828 
5794 
5791 
5820 
5853 
5839 
5866 
5883 
5926 
5952 
5923 
5871 
5891 
5894 
5922 
5924 
5935 
5907 
5943 
5919 
5867 
5822 
5816 
5755 
5753 
5735 
5456 
5186 
5274 
5334 
5341 
5355 
5386 
5444 
5415 
5411 
5416 
5442 
5454 
5443 
5446 
5437 
5433 
5423 
5473 
5493 
5505 
5496 
5471 
5469 
5472 
5481 
5465 
5458 
5513 
5513 
5522 
5495 
5501 
5516 
5522 
5536 
5534 
5521 
5538 
5555 
5553 
5545 
5531 
5501 
5547 
5577 
5577 
5556 
5539 
5587 
5582 
5549 
5575 
5607 
5584 
5538 
5569 
5588 
5558 
5544 
5665 
6040 
5978 
5885 
5841 
5793 
5764 
5751 
5735 
5727 
5729 
5727 
5730 
5691 
5681 
5673 
5682 
5694 
5721 
5681 
5601 
5610 
5630 
5655 
5601 
5624 
5637 
5633 
5665 
5677 
5640 
5634 
5611 
5606 
5636 
5618 
5608 
5624 
5613 
5640 
5641 
5610 
5590 
5625 
5640 
5597 
5595 
5637 
5624 
5681 
5661 
5658 
5634 
5623 
5651 
5678 
5688 
5673 
5659 
5680 
5691 
5655 
5664 
5674 
5704 
5679 
5654 
5625 
5634 
5640 
5626 
5613 
5644 
5644 
5612 
5615 
5646 
5636 
5601 
5570 
5565 
5599 
5593 
5573 
5571 
5593 
5623 
5617 
5688 
5808 
5943 
6150 
6314 
6260 
6061 
5805 
5605 
5470 
5328 
5317 
5374 
5453 
5532 
5556 
5574 
5586 
5634 
5661 
5641 
5625 
5641 
5624 
5607 
5624 
5679 
5650 
5660 
5648 
5644 
5640 
5646 
5635 
5651 
5700 
5694 
5677 
5705 
5721 
5693 
5695 
5725 
5705 
5715 
5715 
5724 
5762 
5751 
5745 
5785 
5806 
5798 
5803 
5811 
5835 
5838 
5838 
5849 
5867 
5882 
5902 
5907 
5931 
5938 
5926 
5939 
5952 
5977 
5945 
5930 
5883 
5919 
5919 
5882 
5850 
5874 
5846 
5774 
5734 
5498 
5197 
5271 
5347 
5396 
5435 
5407 
5397 
5424 
5437 
5426 
5405 
5442 
5510 
5524 
5503 
5454 
5454 
5460 
5446 
5473 
5489 
5492 
5484 
5507 
5543 
5466 
5489 
5481 
5486 
5532 
5525 
5505 
5523 
5557 
5548 
5526 
5544 
5555 
5550 
5568 
5582 
5613 
5594 
5582 
5537 
5554 
5567 
5578 
5566 
5619 
5626 
5576 
5532 
5605 
5973 
6036 
5932 
5871 
5837 
5817 
5787 
5777 
5741 
5768 
5753 
5702 
5722 
5699 
5662 
5634 
5697 
5705 
5664 
5655 
5653 
5660 
5628 
5625 
5665 
5681 
5635 
5646 
5641 
5638 
5639 
5595 
5621 
5641 
5665 
5632 
5616 
5649 
5629 
5631 
5615 
5629 
5662 
5676 
5676 
5693 
5695 
5671 
5645 
5667 
5680 
5661 
5633 
5649 
5666 
5600 
5587 
5599 
5624 
5627 
5610 
5553 
5592 
5591 
5597 
5572 
5574 
5597 
5626 
5631 
5613 
5607 
5589 
5622 
5649 
5763 
5901 
6085 
6273 
6278 
6092 
5854 
5622 
5448 
5331 
5326 
5401 
5460 
5515 
5555 
5587 
5613 
5623 
5628 
5603 
5597 
5622 
5655 
5678 
5653 
5649 
5630 
5664 
5715 
5705 
5632 
5629 
5672 
5667 
5682 
5677 
5690 
5712 
5694 
5690 
5704 
5712 
5693 
5708 
5713 
5717 
5751 
5745 
5713 
5774 
5813 
5800 
5785 
5766 
5819 
5795 
5814 
5851 
5884 
5871 
5848 
5871 
5895 
5901 
5943 
5935 
5945 
5944 
5932 
5948 
5977 
5947 
5825 
5403 
5371 
5432 
5494 
5479 
5498 
5516 
5493 
5486 
5467 
5478 
5484 
5470 
5463 
5524 
5509 
5479 
5497 
5488 
5483 
5467 
5471 
5502 
5492 
5502 
5486 
5473 
5497 
5490 
5490 
5514 
5515 
5509 
5486 
5508 
5531 
5551 
5576 
5581 
5551 
5513 
5529 
5561 
5588 
5538 
5529 
5559 
5569 
5549 
5554 
5579 
5775 
6089 
6004 
5909 
5823 
5815 
5811 
5759 
5733 
5737 
5721 
5702 
5720 
5714 
5663 
5641 
5646 
5696 
5676 
5633 
5641 
5619 
5631 
5639 
5655 
5653 
5643 
5623 
5636 
5647 
5664 
5678 
5618 
5590 
5617 
5643 
5605 
5570 
5602 
5628 
5607 
5618 
5613 
5600 
5619 
5567 
5600 
5634 
5604 
5605 
5621 
5661 
5640 
5585 
5565 
5589 
5609 
5576 
5555 
5610 
5619 
5624 
5567 
5590 
5614 
5589 
5596 
5638 
5662 
5660 
5619 
5617 
5638 
5644 
5619 
5634 
5634 
5627 
5612 
5567 
5586 
5588 
5575 
5580 
5635 
5573 
5543 
5553 
5602 
5597 
5563 
5540 
5556 
5571 
5569 
5550 
5532 
5613 
5679 
5811 
6019 
6232 
6266 
6129 
5945 
5749 
5573 
5380 
5289 
5394 
5452 
5521 
5551 
5571 
5580 
5589 
5584 
5589 
5609 
5603 
5588 
5597 
5573 
5592 
5613 
5596 
5593 
5599 
5642 
5636 
5644 
5634 
5646 
5599 
5613 
5646 
5678 
5659 
5692 
5670 
5665 
5663 
5663 
5664 
5687 
5711 
5711 
5740 
5756 
5782 
5814 
5780 
5763 
5779 
5785 
5802 
5806 
5823 
5809 
5860 
5874 
5819 
5704 
5380 
5464 
5557 
5605 
5630 
5673 
5667 
5650 
5647 
5635 
5624 
5632 
5593 
5563 
5561 
5551 
5546 
5514 
5510 
5507 
5497 
5477 
5485 
5457 
5425 
5432 
5455 
5443 
5439 
5472 
5463 
5444 
5447 
5459 
5493 
5517 
5508 
5460 
5464 
5473 
5461 
5483 
5501 
5512 
5499 
5476 
5491 
5502 
5511 
5500 
5513 
5516 
5521 
5528 
5721 
6009 
5910 
5880 
5825 
5828 
5804 
5751 
5716 
5714 
5706 
5673 
5639 
5658 
5650 
5664 
5641 
5633 
5645 
5619 
5610 
5614 
5628 
5639 
5625 
5611 
5631 
5591 
5596 
5622 
5640 
5663 
5627 
5607 
5582 
5603 
5626 
5650 
5618 
5573 
5610 
5588 
5607 
5588 
5572 
5585 
5625 
5634 
5584 
5579 
5585 
5581 
5592 
5564 
5560 
5565 
5560 
5551 
5563 
5567 
5611 
5602 
5608 
5632 
5586 
5561 
5538 
5544 
5560 
5613 
5612 
5615 
5557 
5568 
5588 
5618 
5634 
5599 
5601 
5622 
5651 
5594 
5584 
5654 
5671 
5649 
5607 
5566 
5568 
5601 
5587 
5530 
5535 
5549 
5553 
5543 
5557 
5560 
5542 
5542 
5566 
5547 
5535 
5542 
5528 
5547 
5572 
5628 
5755 
5965 
6200 
6364 
6247 
6050 
5866 
5610 
5385 
5297 
5367 
5449 
5488 
5530 
5561 
5547 
5570 
5605 
5602 
5577 
5593 
5615 
5641 
5605 
5584 
5575 
5559 
5608 
5581 
5610 
5657 
5626 
5618 
5625 
5627 
5627 
5660 
5647 
5625 
5636 
5679 
5691 
5703 
5674 
5685 
5651 
5658 
5710 
5697 
5706 
5709 
5718 
5704 
5715 
5750 
5758 
5833 
5796 
5782 
5822 
5839 
5807 
5473 
5411 
5497 
5584 
5632 
5629 
5660 
5640 
5670 
5683 
5645 
5648 
5625 
5628 
5598 
5557 
5603 
5559 
5477 
5515 
5495 
5461 
5466 
5495 
5508 
5467 
5459 
5461 
5427 
5450 
5474 
5476 
5469 
5449 
5447 
5459 
5474 
5468 
5467 
5490 
5502 
5496 
5452 
5479 
5508 
5487 
5474 
5510 
5540 
5554 
5550 
5523 
5530 
5505 
5505 
5534 
5572 
5563 
5719 
6036 
5960 
5855 
5790 
5761 
5743 
5725 
5705 
5660 
5709 
5689 
5675 
5665 
5680 
5660 
5639 
5632 
5586 
5588 
5606 
5612 
5651 
5659 
5649 
5608 
5606 
5630 
5583 
5551 
5554 
5569 
5561 
5589 
5607 
5573 
5601 
5566 
5571 
5593 
5555 
5523 
5574 
5563 
5573 
5595 
5566 
5535 
5585 
5575 
5585 
5572 
5598 
5590 
5526 
5530 
5530 
5554 
5554 
5550 
5571 
5565 
5566 
5572 
5557 
5583 
5556 
5544 
5570 
5586 
5571 
5575 
5619 
5636 
5633 
5592 
5592 
5659 
5643 
5623 
5616 
5633 
5657 
5573 
5542 
5554 
5550 
5558 
5576 
5577 
5566 
5567 
5541 
5524 
5568 
5575 
5541 
5530 
5552 
5575 
5567 
5546 
5532 
5563 
5634 
5713 
5941 
6187 
6305 
6212 
6076 
5818 
5594 
5378 
5249 
5296 
5398 
5459 
5545 
5572 
5565 
5578 
5594 
5596 
5583 
5567 
5576 
5603 
5584 
5547 
5552 
5571 
5614 
5601 
5592 
5619 
5647 
5633 
5642 
5630 
5638 
5685 
5684 
5667 
5677 
5657 
5681 
5692 
5705 
5684 
5696 
5686 
5680 
5683 
5716 
5697 
5696 
5739 
5781 
5808 
5816 
5814 
5783 
5813 
5866 
5869 
5838 
5824 
5849 
5904 
5869 
5493 
5404 
5534 
5550 
5587 
5634 
5643 
5635 
5620 
5580 
5588 
5611 
5579 
5518 
5540 
5505 
5462 
5478 
5499 
5479 
5468 
5468 
5420 
5439 
5461 
5436 
5458 
5466 
5454 
5437 
5455 
5465 
5503 
5521 
5481 
5520 
5466 
5449 
5446 
5489 
5507 
5483 
5520 
5540 
5539 
5530 
5499 
5489 
5492 
5529 
5508 
5519 
5555 
5495 
5634 
5993 
5931 
5857 
5839 
5796 
5754 
5765 
5708 
5693 
5687 
5693 
5689 
5674 
5634 
5629 
5622 
5644 
5617 
5602 
5621 
5608 
5622 
5592 
5581 
5565 
5562 
5602 
5602 
5593 
5621 
5616 
5609 
5597 
5594 
5599 
5610 
5598 
5541 
5576 
5575 
5578 
5588 
5601 
5602 
5615 
5567 
5581 
5619 
5578 
5632 
5603 
5616 
5633 
5628 
5615 
5624 
5611 
5635 
5644 
5607 
5566 
5548 
5546 
5550 
5589 
5589 
5585 
5545 
5532 
5540 
5543 
5545 
5530 
5553 
5609 
5566 
5567 
5529 
5546 
5575 
5628 
5775 
5977 
6194 
6328 
6225 
5944 
5663 
5490 
5317 
5258 
5321 
5406 
5490 
5539 
5523 
5527 
5586 
5628 
5626 
5613 
5567 
5612 
5611 
5607 
5615 
5654 
5640 
5637 
5635 
5641 
5636 
5625 
5622 
5661 
5668 
5641 
5634 
5655 
5691 
5714 
5700 
5675 
5673 
5688 
5680 
5724 
5740 
5751 
5739 
5726 
5710 
5769 
5773 
5776 
5755 
5766 
5830 
5844 
5819 
5817 
5849 
5866 
5884 
5897 
5858 
5867 
5901 
5688 
5393 
5449 
5518 
5551 
5545 
5582 
5588 
5555 
5521 
5511 
5509 
5517 
5494 
5442 
5459 
5441 
5441 
5457 
5440 
5442 
5437 
5440 
5445 
5449 
5462 
5427 
5411 
5436 
5451 
5447 
5433 
5440 
5475 
5505 
5479 
5465 
5469 
5456 
5457 
5477 
5512 
5519 
5539 
5503 
5479 
5512 
5530 
5517 
5487 
5477 
5513 
5549 
5800 
6018 
5908 
5851 
5816 
5777 
5755 
5684 
5675 
5715 
5709 
5684 
5661 
5652 
5633 
5622 
5620 
5646 
5650 
5637 
5607 
5611 
5596 
5567 
5621 
5649 
5601 
5582 
5587 
5606 
5598 
5563 
5584 
5606 
5591 
5592 
5581 
5615 
5600 
5544 
5550 
5556 
5564 
5585 
5547 
5523 
5578 
5590 
5559 
5598 
5615 
5639 
5591 
5576 
5626 
5620 
5619 
5608 
5637 
5610 
5622 
5605 
5621 
5637 
5625 
5632 
5640 
5642 
5573 
5550 
5558 
5585 
5608 
5578 
5582 
5583 
5569 
5562 
5545 
5564 
5561 
5588 
5559 
5547 
5579 
5567 
5550 
5593 
5704 
5878 
6078 
6268 
6331 
6191 
5940 
5701 
5531 
5388 
5350 
5387 
5464 
5535 
5589 
5601 
5644 
5654 
5636 
5623 
5587 
5604 
5608 
5615 
5635 
5662 
5632 
5621 
5622 
5650 
5675 
5676 
5671 
5653 
5668 
5627 
5634 
5650 
5668 
5711 
5732 
5695 
5706 
5674 
5688 
5678 
5703 
5713 
5708 
5708 
5772 
5765 
5758 
5737 
5785 
5803 
5773 
5801 
5807 
5837 
5852 
5836 
5464 
5355 
5467 
5546 
5621 
5637 
5649 
5662 
5655 
5661 
5693 
5644 
5637 
5613 
5636 
5582 
5590 
5581 
