77337 
77308 
77229 
77193 
77159 
77114 
77103 
77128 
77108 
77066 
77024 
76961 
76910 
76894 
76875 
76811 
76763 
76725 
76709 
76702 
76697 
76675 
76648 
76668 
76669 
76689 
76657 
76630 
76614 
76616 
76627 
76617 
76564 
76525 
76504 
76483 
76495 
76503 
76499 
76506 
76490 
76494 
76517 
76498 
76463 
76461 
76451 
76459 
76496 
76502 
76490 
76499 
76508 
76493 
76497 
76498 
76485 
76497 
76524 
76566 
76573 
76566 
76583 
76589 
76558 
76530 
76529 
76551 
76581 
76586 
76593 
76595 
76590 
76603 
76605 
76630 
76620 
76634 
76644 
76647 
76671 
76719 
76747 
76764 
76733 
76695 
76712 
76723 
76736 
76799 
76857 
76879 
76865 
76878 
76898 
76917 
76914 
76937 
76951 
76963 
76972 
77010 
77025 
77041 
77072 
77097 
77093 
77079 
77098 
77097 
77052 
77030 
77037 
77015 
77030 
77025 
77034 
77031 
77044 
77065 
77120 
77099 
77058 
77029 
77050 
77044 
77018 
77022 
77014 
77004 
77014 
77037 
77044 
77034 
77049 
77071 
77107 
77079 
77049 
77051 
77039 
77073 
77132 
77152 
77124 
77094 
77073 
77087 
77089 
77135 
77253 
77271 
77251 
77239 
77227 
77222 
77208 
77224 
77225 
77223 
77211 
77229 
77246 
77280 
77306 
77283 
77217 
77235 
77228 
77250 
77287 
77290 
77269 
77264 
77292 
77347 
77374 
77365 
77311 
77277 
77235 
77208 
77212 
77226 
77289 
77326 
77305 
77281 
77249 
77252 
77266 
77277 
77318 
77321 
77305 
77341 
77337 
77273 
77234 
77224 
77224 
77231 
77211 
77214 
77223 
77221 
77204 
77188 
77175 
77148 
77139 
77160 
77120 
77085 
77065 
77026 
76998 
76945 
76867 
76825 
76799 
76759 
76736 
76704 
76667 
76644 
76636 
76599 
76578 
76597 
76608 
76598 
76562 
76551 
76539 
76501 
76479 
76488 
76469 
76447 
76428 
76457 
76450 
76477 
76489 
76453 
76417 
76435 
76438 
76394 
76366 
76387 
76403 
76402 
76426 
76444 
76458 
76437 
76445 
76478 
76459 
76433 
76436 
76450 
76456 
76464 
76526 
76585 
76583 
76627 
76641 
76629 
76621 
76607 
76627 
76630 
76641 
76678 
76670 
76662 
76669 
76672 
76685 
76746 
76767 
76781 
76807 
76805 
76764 
76755 
76769 
76808 
76811 
76804 
76799 
76823 
76838 
76830 
76869 
76907 
76887 
76874 
76903 
76921 
76936 
76933 
76931 
76925 
76903 
76899 
76885 
76886 
76856 
76834 
76899 
76985 
77004 
77016 
77059 
77069 
77073 
77050 
77046 
77060 
77063 
77081 
77110 
77114 
77133 
77180 
77237 
77236 
77209 
77203 
77209 
77245 
77258 
77310 
77359 
77368 
77350 
77356 
77389 
77401 
77431 
77458 
77466 
77469 
77465 
77462 
77444 
77488 
77525 
77520 
77498 
77492 
77498 
77536 
77531 
77545 
77574 
77534 
77526 
77531 
77526 
77542 
77524 
77525 
77529 
77539 
77514 
77506 
77515 
77531 
77547 
77537 
77492 
77471 
77433 
77455 
77463 
77472 
77483 
77489 
77529 
77542 
77538 
77503 
77484 
77472 
77441 
77424 
77432 
77423 
77422 
77398 
77407 
77437 
77423 
77405 
77435 
77430 
77426 
77394 
77327 
77278 
77219 
77201 
77176 
77155 
77134 
77070 
77046 
77000 
76960 
76890 
76865 
76849 
76811 
76793 
76762 
76741 
76707 
76629 
76557 
76545 
76542 
76545 
76542 
76539 
76529 
76522 
76496 
76490 
76500 
76487 
76440 
76390 
76393 
76377 
76392 
76436 
76458 
76424 
76418 
76437 
76459 
76470 
76499 
76489 
76489 
76485 
76451 
76453 
76471 
76458 
76459 
76459 
76425 
76436 
76514 
76574 
76551 
76562 
76543 
76526 
76531 
76547 
76624 
76666 
76680 
76677 
76643 
76644 
76627 
76616 
76661 
76691 
76700 
76678 
76669 
76675 
76681 
76707 
76698 
76709 
76720 
76728 
76716 
76712 
76759 
76773 
76767 
76754 
76734 
76752 
76775 
76800 
76834 
76840 
76843 
76867 
76871 
76871 
76868 
76870 
76917 
76964 
76953 
76954 
76940 
76915 
76921 
76942 
76960 
77003 
77015 
76996 
77010 
77026 
77029 
77003 
77015 
77063 
77094 
77075 
77063 
77056 
77060 
77087 
77116 
77133 
77127 
77120 
77138 
77161 
77176 
77229 
77304 
77303 
77278 
77284 
77295 
77250 
77188 
77210 
77278 
77280 
77268 
77261 
77298 
77316 
77307 
77301 
77323 
77303 
77275 
77266 
77314 
77342 
77335 
77386 
77440 
77429 
77430 
77397 
77356 
77340 
77346 
77347 
77364 
77349 
77342 
77304 
77310 
77295 
77272 
77274 
77284 
77317 
77329 
77344 
77351 
77351 
77405 
77427 
77401 
77352 
77382 
77371 
77353 
77347 
77326 
77293 
77279 
77291 
77284 
77256 
77149 
77067 
77057 
77080 
77106 
77105 
77066 
77024 
76964 
76936 
76900 
76835 
76786 
76767 
76757 
76670 
76617 
76613 
76577 
76537 
76492 
76471 
76490 
76457 
76402 
76380 
76361 
76330 
76307 
76293 
76286 
76240 
76225 
76225 
76228 
76227 
76204 
76196 
76209 
76243 
76261 
76248 
76224 
76215 
76239 
76233 
76237 
76253 
76261 
76212 
76145 
76154 
76194 
76196 
76219 
76250 
76241 
76220 
76216 
76245 
76283 
76291 
76303 
76328 
76350 
76344 
76330 
76290 
76289 
76337 
76362 
76366 
76386 
76385 
76396 
76411 
76400 
76389 
76409 
76437 
76407 
76400 
76410 
76412 
76393 
76384 
76381 
76402 
76443 
76503 
76499 
76476 
76514 
76576 
76616 
76598 
76588 
76587 
76591 
76615 
76622 
76648 
76660 
76662 
76690 
76742 
76730 
76694 
76693 
76724 
76768 
76732 
76747 
76778 
76826 
76856 
76838 
76851 
76877 
76881 
76894 
76906 
76911 
76891 
76911 
76914 
76905 
76906 
76923 
76910 
76895 
76948 
76986 
76994 
76990 
76990 
77039 
77072 
77067 
77096 
77122 
77119 
77105 
77101 
77149 
77203 
77241 
77230 
77213 
77214 
77199 
77228 
77248 
77247 
77260 
77252 
77248 
77255 
77262 
77255 
77277 
77274 
77263 
77262 
77269 
77255 
77242 
77254 
77259 
77296 
77317 
77283 
77260 
77286 
77297 
77318 
77316 
77305 
77311 
77308 
77307 
77333 
77363 
77364 
77373 
77390 
77374 
77370 
77377 
77368 
77344 
77326 
77355 
77349 
77344 
77345 
77316 
77277 
77280 
77260 
77241 
77224 
77188 
77101 
77033 
76982 
76954 
76918 
76902 
76920 
76881 
76841 
76836 
76831 
76812 
76829 
76825 
76853 
76861 
76819 
76788 
76747 
76740 
76733 
76721 
76726 
76748 
76701 
76674 
76650 
76638 
76662 
76691 
76676 
76707 
76762 
76767 
76752 
76756 
76774 
76765 
76770 
76750 
76729 
76745 
76773 
76764 
76784 
76794 
76825 
76862 
76852 
76823 
76832 
76826 
76827 
76851 
76867 
76879 
76865 
76870 
76866 
76889 
76886 
76893 
76892 
76880 
76875 
76877 
76876 
76868 
76876 
76872 
76892 
76894 
76875 
76893 
76938 
76972 
76926 
76905 
76918 
76919 
76935 
76979 
77035 
77052 
77038 
77044 
77038 
77013 
76999 
77033 
77034 
77033 
77048 
77055 
77065 
77060 
77033 
77081 
77122 
77110 
77112 
77112 
77112 
77116 
77123 
77135 
77126 
77129 
77158 
77221 
77235 
77228 
77256 
77262 
77251 
77290 
77335 
77370 
77388 
77358 
77349 
77351 
77367 
77382 
77427 
77457 
77507 
77536 
77556 
77568 
77554 
77566 
77574 
77591 
77611 
77584 
77560 
77588 
77660 
77652 
77646 
77639 
77613 
77583 
77574 
77594 
77598 
77639 
77715 
77758 
77758 
77747 
77729 
77720 
77731 
77706 
77701 
77712 
77724 
77757 
77743 
77725 
77727 
77711 
77715 
77769 
77796 
77810 
77826 
77812 
77766 
77741 
77749 
77752 
77764 
77734 
77723 
77690 
77653 
77643 
77629 
77586 
77550 
77526 
77499 
77450 
77400 
77360 
77315 
77223 
77130 
77044 
77010 
76974 
76938 
76905 
76873 
76842 
76828 
76794 
76761 
76780 
76759 
76701 
76634 
76588 
76578 
76561 
76537 
76557 
76553 
76531 
76502 
76487 
76479 
76481 
76442 
76433 
76427 
76446 
76465 
76478 
76466 
76454 
76435 
76446 
76491 
76528 
76507 
76501 
76531 
76549 
76540 
76560 
76586 
76586 
76614 
76618 
76601 
76595 
76619 
76663 
76673 
76653 
76701 
76736 
76732 
76704 
76714 
76723 
76747 
76775 
76787 
76796 
76800 
76859 
76871 
76831 
76789 
76762 
76755 
76747 
76746 
76783 
76812 
76786 
76781 
76793 
76791 
76798 
76812 
76818 
76853 
76839 
76852 
76905 
76929 
76942 
76952 
76977 
77007 
77035 
77076 
77081 
77064 
77053 
77026 
77044 
77087 
77110 
77114 
77128 
77124 
77098 
77049 
77078 
77102 
77083 
77115 
77140 
77151 
77158 
77168 
77204 
77208 
77233 
77265 
77252 
77252 
77279 
77345 
77376 
77391 
77408 
77383 
77349 
77312 
77301 
77403 
77447 
77416 
77371 
77310 
77264 
77298 
77319 
77299 
77308 
77326 
77327 
77357 
77403 
77433 
77417 
77395 
77384 
77394 
77420 
77397 
77382 
77372 
77345 
77377 
77395 
77360 
77381 
77420 
77394 
77352 
77367 
77423 
77460 
77451 
77453 
77487 
77501 
77475 
77460 
77446 
77483 
77539 
77550 
77539 
77527 
77534 
77506 
77486 
77487 
77532 
77554 
77532 
77493 
77467 
77435 
77402 
77412 
77406 
77380 
77345 
77317 
77253 
77247 
77243 
77188 
77117 
77068 
76990 
76884 
76798 
76744 
76686 
76616 
76543 
76484 
76459 
76403 
76384 
76360 
76332 
76313 
76260 
76193 
76172 
76177 
76175 
76159 
76160 
76125 
76095 
76074 
76062 
76024 
75992 
76009 
76048 
76049 
76074 
76070 
76014 
75983 
75976 
75976 
76034 
76091 
76099 
76099 
76089 
76134 
76147 
76175 
76190 
76150 
76120 
76120 
76097 
76126 
76167 
76210 
76252 
76308 
76343 
76354 
76360 
76390 
76422 
76429 
76444 
76447 
76451 
76445 
76456 
76497 
76513 
76527 
76547 
76545 
76537 
76506 
76482 
76518 
76537 
76534 
76557 
76584 
76599 
76609 
76630 
76615 
76606 
76639 
76670 
76705 
76730 
76793 
76835 
76837 
76857 
76848 
76818 
76859 
76877 
76897 
76911 
76908 
76924 
76943 
76953 
76975 
77005 
76959 
76941 
76953 
76965 
77014 
77037 
77089 
77150 
77186 
77198 
77200 
77217 
77240 
77299 
77333 
77363 
77413 
77406 
77374 
77385 
77427 
77472 
77473 
77453 
77433 
77456 
77516 
77568 
77573 
77564 
77565 
77547 
77531 
77536 
77550 
77571 
77595 
77626 
77630 
77626 
77654 
77678 
77709 
77724 
77712 
77684 
77658 
77634 
77641 
77649 
77695 
77767 
77779 
77775 
77749 
77766 
77786 
77766 
77768 
77750 
77733 
77695 
77721 
77761 
77775 
77769 
77842 
77866 
77861 
77859 
77845 
77819 
77848 
77870 
77900 
77912 
77929 
77948 
77912 
77920 
77955 
77960 
77959 
77931 
77870 
77834 
77810 
77781 
77763 
77717 
77703 
77678 
77657 
77637 
77586 
77544 
77508 
77434 
77399 
77381 
77352 
77304 
77250 
77170 
77103 
77056 
77044 
77030 
76961 
76865 
76801 
76781 
76791 
76782 
76723 
76671 
76684 
76699 
76667 
76682 
76699 
76688 
76665 
76634 
76633 
76637 
76692 
76695 
76696 
76703 
76685 
76677 
76664 
76678 
76693 
76707 
76731 
76761 
76763 
76773 
76768 
76791 
76778 
76794 
76827 
76828 
76833 
76845 
76893 
76908 
76905 
76909 
76900 
76861 
76837 
76817 
76848 
76888 
76880 
76862 
76855 
76824 
76827 
76863 
76884 
76896 
76868 
76870 
76918 
76948 
76975 
76985 
76988 
76984 
76977 
76966 
76971 
76987 
77008 
77037 
77048 
77031 
77029 
77000 
76983 
77029 
77106 
77144 
77146 
77115 
77106 
77143 
77191 
77249 
77313 
77319 
77315 
77318 
77330 
77381 
77363 
77330 
77352 
77349 
77339 
77346 
77353 
77379 
77395 
77409 
77406 
77418 
77445 
77427 
77421 
77468 
77489 
77486 
77491 
77530 
77533 
77512 
77459 
77431 
77418 
77420 
77441 
77449 
77480 
77504 
77523 
77533 
77519 
77509 
77499 
77481 
77516 
77557 
77593 
77614 
77616 
77619 
77635 
77652 
77643 
77606 
77598 
77622 
77634 
77606 
77647 
77690 
77678 
77669 
77702 
77748 
77731 
77692 
77669 
77682 
77677 
77676 
77677 
77684 
77679 
77648 
77650 
77660 
77666 
77701 
77727 
77706 
77683 
77678 
77658 
77608 
77577 
77538 
77524 
77496 
77474 
77451 
77426 
77400 
77360 
77310 
77252 
77192 
77155 
77119 
77083 
77015 
76937 
76949 
76947 
76916 
76850 
76788 
76756 
76721 
76696 
76691 
76648 
76639 
76646 
76627 
76616 
76567 
76505 
76498 
76511 
76500 
76467 
76493 
76470 
76445 
76466 
76501 
76488 
76489 
76495 
76483 
76495 
76495 
76495 
76502 
76486 
76505 
76521 
76509 
76534 
76566 
76568 
76561 
76569 
76574 
76600 
76665 
76730 
76741 
76774 
76786 
76804 
76840 
76855 
76848 
76836 
76811 
76781 
76807 
76841 
76857 
76879 
76845 
76812 
76779 
76785 
76837 
76862 
76905 
76927 
76919 
76930 
76946 
76939 
76932 
76947 
76999 
77014 
77017 
77043 
77029 
76998 
77033 
77067 
77075 
77113 
77139 
77131 
77117 
77107 
77128 
77175 
77209 
77268 
77316 
77318 
77330 
77367 
77390 
77373 
77351 
77389 
77417 
77372 
77394 
77432 
77446 
77452 
77465 
77508 
77564 
77562 
77548 
77561 
77581 
77592 
77569 
77592 
77608 
77626 
77663 
77695 
77700 
77686 
77712 
77723 
77729 
77678 
77636 
77659 
77659 
77658 
77694 
77694 
77678 
77658 
77626 
77619 
77648 
77675 
77740 
77704 
77685 
77700 
77687 
77710 
77734 
77753 
77749 
77754 
77733 
77714 
77705 
77721 
77773 
77785 
77754 
77733 
77738 
77760 
77746 
77683 
77711 
77721 
77676 
77634 
77613 
77603 
77603 
77606 
77593 
77556 
77564 
77559 
77541 
77507 
77477 
77502 
77519 
77499 
77466 
77417 
77401 
77351 
77267 
77171 
77118 
77074 
77066 
77046 
77000 
76921 
76855 
76787 
76705 
76648 
76582 
76521 
76488 
76465 
76453 
76386 
76329 
76305 
76280 
76254 
76228 
76191 
76185 
76212 
76193 
76162 
76133 
76091 
76070 
76054 
76046 
76078 
76153 
76157 
76092 
76076 
76101 
76103 
76095 
76096 
76095 
76093 
76092 
76073 
76031 
76025 
76049 
76089 
76091 
76118 
76175 
76199 
76179 
76226 
76272 
76274 
76251 
76279 
76322 
76346 
76373 
76384 
76406 
76411 
76405 
76388 
76363 
76339 
76396 
76456 
76478 
76483 
76490 
76511 
76523 
76562 
76570 
76567 
76569 
76548 
76537 
76567 
76599 
76651 
76670 
76638 
76636 
76661 
76696 
76734 
76744 
76771 
76790 
76818 
76827 
76836 
76907 
76960 
76945 
76970 
77019 
77003 
77003 
77010 
77071 
77112 
77111 
77140 
77159 
77180 
77180 
77208 
77266 
77247 
77230 
77257 
77261 
77268 
77311 
77341 
77380 
77386 
77360 
77340 
77374 
77412 
77420 
77432 
77431 
77439 
77458 
77443 
77458 
77489 
77524 
77568 
77599 
77626 
77628 
77634 
77649 
77695 
77763 
77765 
77781 
77821 
77819 
77779 
77728 
77738 
77767 
77787 
77800 
77826 
77828 
77834 
77846 
77861 
77881 
77877 
77870 
77873 
77888 
77910 
77945 
77966 
77966 
77985 
77971 
77965 
77960 
77931 
77939 
77938 
77930 
77923 
77931 
77895 
77874 
77889 
77905 
77944 
77975 
77972 
77934 
77882 
77850 
77799 
77763 
77735 
77697 
77660 
77631 
77556 
77523 
77474 
77401 
77348 
77304 
77284 
77238 
77168 
77125 
77102 
77066 
77012 
76941 
76866 
76823 
76768 
76758 
76732 
76714 
76704 
76674 
76662 
76636 
76586 
76585 
76594 
76568 
76544 
76526 
76531 
76536 
76553 
76554 
76567 
76556 
76544 
76536 
76512 
76525 
76530 
76530 
76530 
76534 
76554 
76550 
76529 
76559 
76595 
76599 
76626 
76632 
76607 
76619 
76632 
76640 
76619 
76602 
76593 
76595 
76613 
76643 
76665 
76683 
76669 
76691 
76767 
76809 
76803 
76780 
76783 
76785 
76808 
76834 
76828 
76811 
76810 
76801 
76779 
76805 
76830 
76848 
76828 
76798 
76788 
76795 
76797 
76804 
76842 
76918 
76933 
76935 
76966 
76977 
77001 
76992 
76988 
77023 
77039 
77032 
77049 
77065 
77059 
77056 
77140 
77202 
77231 
77240 
77246 
77264 
77298 
77334 
77360 
77353 
77348 
77337 
77335 
77350 
77370 
77409 
77464 
77486 
77474 
77476 
77479 
77481 
77488 
77515 
77587 
77616 
77605 
77599 
77612 
77610 
77585 
77595 
77595 
77577 
77565 
77574 
77611 
77592 
77610 
77645 
77638 
77605 
77603 
77633 
77670 
77729 
77757 
77705 
77694 
77700 
77726 
77731 
77710 
77721 
77736 
77748 
77771 
77764 
77705 
77665 
77671 
77689 
77707 
77715 
77698 
77656 
77615 
77590 
77588 
77628 
77689 
77685 
77675 
77692 
77685 
77647 
77611 
77592 
77616 
77620 
77567 
77514 
77471 
77414 
77384 
77348 
77264 
77223 
77207 
77188 
77123 
77060 
76989 
76907 
76835 
76791 
76762 
76725 
76691 
76644 
76590 
76506 
76457 
76444 
76431 
76396 
76422 
76434 
76439 
76419 
76412 
76435 
76473 
76510 
76472 
76420 
76396 
76373 
76344 
76302 
76274 
76258 
76292 
76309 
76309 
76323 
76307 
76294 
76267 
76242 
76278 
76333 
76375 
76396 
76401 
76429 
76454 
76475 
76454 
76514 
76545 
76545 
76564 
76619 
76630 
76613 
76613 
76660 
76659 
76652 
76652 
76677 
76697 
76724 
76722 
76743 
76770 
76835 
76827 
76793 
76800 
76807 
76800 
76785 
76779 
76767 
76823 
76857 
76864 
76844 
76819 
76822 
76869 
76908 
76929 
76933 
76960 
77024 
77057 
77071 
77124 
77142 
77118 
77137 
77143 
77111 
77127 
77140 
77132 
77142 
77186 
77220 
77250 
77302 
77323 
77330 
77382 
77422 
77467 
77497 
77483 
77503 
77530 
77558 
77541 
77545 
77569 
77546 
77553 
77591 
77586 
77596 
77578 
77568 
77592 
77621 
77658 
77675 
77665 
77642 
77649 
77658 
77655 
77671 
77689 
77691 
77684 
77671 
77678 
77692 
77678 
77692 
77729 
77754 
77763 
77788 
77797 
77748 
77717 
77745 
77780 
77742 
77748 
77759 
77774 
77790 
77793 
77812 
77804 
77794 
77780 
77789 
77797 
77825 
77874 
77868 
77855 
77848 
77799 
77764 
77730 
77742 
77772 
77810 
77818 
77815 
77809 
77762 
77748 
77750 
77747 
77778 
77773 
77763 
77756 
77739 
77727 
77728 
77759 
77806 
77771 
77734 
77741 
77755 
77745 
77740 
77719 
77671 
77623 
77564 
77509 
77450 
77401 
77370 
77308 
77266 
77224 
77228 
77192 
77118 
77046 
76980 
76898 
76817 
76721 
76639 
76618 
76604 
76578 
76518 
76446 
76369 
76329 
76299 
76285 
76285 
76269 
76265 
76232 
76218 
76231 
76194 
76140 
76132 
76149 
76128 
76137 
76097 
76084 
76103 
76100 
76089 
76086 
76131 
76176 
76172 
76143 
76128 
76123 
76106 
76087 
76084 
76103 
76104 
76138 
76173 
76230 
76257 
76256 
76236 
76225 
76237 
76227 
76231 
76270 
76301 
76280 
76266 
76278 
76324 
76325 
76347 
76381 
76389 
76403 
76417 
76399 
76405 
76438 
76415 
76421 
76458 
76481 
76512 
76541 
76567 
76580 
76556 
76569 
76622 
76655 
76663 
76692 
76689 
76685 
76708 
76724 
76742 
76749 
76767 
76751 
76756 
76813 
76826 
76827 
76848 
76882 
76950 
77002 
77004 
77005 
77012 
77020 
77027 
77080 
77124 
77159 
77192 
77240 
77276 
77313 
77348 
77325 
77346 
77364 
77416 
77438 
77458 
77496 
77555 
77562 
77588 
77602 
77620 
77621 
77583 
77602 
77656 
77667 
77662 
77656 
77684 
77705 
77718 
77744 
77752 
77748 
77768 
77787 
77778 
77816 
77865 
77900 
77919 
77899 
77897 
77879 
77841 
77822 
77863 
77870 
77845 
77862 
77863 
77837 
77828 
77849 
77903 
77917 
77937 
77949 
77937 
77931 
77918 
77931 
77949 
77910 
77907 
77934 
77973 
78012 
78002 
78009 
78008 
78004 
78012 
78021 
78056 
78052 
77992 
77979 
77992 
78015 
78026 
78051 
78110 
78074 
78035 
78032 
78019 
77998 
78004 
78025 
78077 
78121 
78090 
78047 
77980 
77918 
77907 
77910 
77895 
77903 
77876 
77826 
77797 
77788 
77770 
77713 
77654 
77607 
77546 
77482 
77388 
77353 
77339 
77273 
77206 
77198 
77189 
77121 
77084 
77036 
76991 
76962 
76955 
76938 
76883 
76823 
76784 
76768 
76794 
76804 
76736 
76705 
76719 
76758 
76734 
76708 
76693 
76682 
76652 
76655 
76668 
76658 
76671 
76681 
76708 
76746 
76741 
76735 
76720 
76738 
76729 
76717 
76720 
76745 
76759 
76762 
76763 
76763 
76777 
76796 
76838 
76859 
76894 
76919 
76927 
76852 
76774 
76773 
76832 
76857 
76918 
76957 
76914 
76889 
76879 
76861 
76864 
76901 
76904 
76882 
76866 
76845 
76814 
76818 
76844 
76849 
76852 
76829 
76811 
76852 
76897 
76923 
76927 
76930 
76941 
76964 
76999 
77013 
76978 
76964 
77005 
77051 
77052 
77072 
77121 
77156 
77148 
77118 
77111 
77142 
77160 
77174 
77225 
77244 
77251 
77248 
77209 
77196 
77187 
77175 
77233 
77270 
77276 
77262 
77244 
77261 
77288 
77376 
77435 
77421 
77399 
77383 
77397 
77409 
77417 
77456 
77519 
77551 
77544 
77525 
77505 
77509 
77524 
77539 
77491 
77443 
77428 
77432 
77414 
77415 
77442 
77472 
77509 
77526 
77520 
77504 
77515 
77529 
77509 
77496 
77531 
77595 
77666 
77702 
77685 
77663 
77675 
77700 
77707 
77703 
77673 
77654 
77669 
77670 
77707 
77743 
77729 
77724 
77725 
77694 
77695 
77683 
77637 
77676 
77722 
77789 
77787 
77736 
77741 
77776 
77768 
77772 
77779 
77780 
77799 
77794 
77761 
77756 
77739 
77735 
77700 
77650 
77620 
77621 
77619 
77595 
77589 
77589 
77558 
77524 
77453 
77381 
77341 
77315 
77267 
77198 
77136 
77099 
77045 
76967 
76914 
76848 
76774 
76737 
76705 
76676 
76644 
76585 
76528 
76502 
76469 
76453 
76473 
76477 
76451 
76406 
76377 
76359 
76326 
76308 
76289 
76293 
76283 
76246 
76243 
76259 
76279 
76252 
76236 
76290 
76340 
76327 
76317 
76290 
76289 
76282 
76270 
76305 
76367 
76379 
76387 
76371 
76356 
76365 
76394 
76445 
76463 
76459 
76460 
76476 
76469 
76480 
76504 
76558 
76617 
76675 
76682 
76666 
76667 
76630 
76659 
76692 
76677 
76668 
76657 
76677 
76706 
76734 
76727 
76713 
76698 
76686 
76695 
76725 
76774 
76804 
76815 
76819 
76805 
76831 
76871 
76901 
76970 
76989 
76967 
76966 
76961 
76964 
76975 
76983 
77028 
77065 
77050 
77061 
77076 
77078 
77092 
77085 
77072 
77116 
77184 
77229 
77217 
77227 
77226 
77216 
77227 
77244 
77240 
77254 
77279 
77294 
77297 
77317 
77316 
77393 
77427 
77432 
77433 
77444 
77459 
77462 
77458 
77497 
77535 
77546 
77546 
77548 
77525 
77534 
77570 
77599 
77577 
77601 
77630 
77641 
77626 
77604 
77601 
77608 
77614 
77610 
77622 
77636 
77689 
77720 
77701 
77694 
77672 
77666 
77696 
77702 
77696 
77704 
77728 
77721 
77720 
77696 
77704 
77704 
77727 
77763 
77800 
77843 
77837 
77820 
77804 
77815 
77817 
77767 
77799 
77822 
77780 
77774 
77766 
77755 
77765 
77795 
77787 
77770 
77756 
77759 
77768 
77769 
77787 
77796 
77781 
77753 
77717 
77738 
77789 
77844 
77810 
77742 
77725 
77737 
77749 
77765 
77780 
77792 
77750 
77716 
77693 
77661 
77594 
77524 
77481 
77443 
77425 
77373 
77309 
77267 
77204 
77153 
77095 
77048 
76974 
76900 
76852 
76758 
76725 
76705 
76676 
76630 
76553 
76513 
76495 
76475 
76462 
76467 
76468 
76407 
76354 
76335 
76310 
76315 
76351 
76330 
76321 
76296 
76248 
76222 
76208 
76226 
76221 
76241 
76246 
76238 
76234 
76226 
76216 
76193 
76181 
76185 
76204 
76230 
76226 
76237 
76233 
76202 
76186 
76202 
76287 
76314 
76317 
76290 
76250 
76242 
76313 
76405 
76406 
76392 
76392 
76413 
76410 
76389 
76390 
76425 
76466 
76463 
76433 
76444 
76435 
76439 
76434 
76481 
76506 
76497 
76475 
76463 
76471 
76480 
76496 
76524 
76521 
76536 
76570 
76611 
76644 
76657 
76684 
76707 
76705 
76710 
76706 
76690 
76694 
76710 
76769 
76843 
76853 
76861 
76878 
76912 
76955 
77014 
77051 
77064 
77079 
77093 
77139 
77196 
77216 
77210 
77202 
77237 
77279 
77337 
77406 
77427 
77442 
77412 
77400 
77412 
77433 
77491 
77516 
77503 
77458 
77459 
77511 
77560 
77570 
77591 
77599 
77623 
77623 
77657 
77682 
77670 
77672 
77683 
77693 
77662 
77674 
77707 
77753 
77777 
77765 
77756 
77754 
77760 
77792 
77805 
77820 
77833 
77821 
77806 
77759 
77717 
77712 
77709 
77745 
77790 
77787 
77748 
77717 
77730 
77739 
77762 
77776 
77742 
77700 
77705 
77772 
77793 
77775 
77819 
77876 
77879 
77845 
77855 
77865 
77858 
77872 
77884 
77873 
77884 
77932 
77935 
77921 
77896 
77936 
77999 
77996 
77984 
77997 
78007 
78039 
78055 
78071 
78102 
78128 
78148 
78140 
78135 
78140 
78145 
78162 
78128 
78088 
78100 
78087 
78047 
78042 
78014 
78024 
78000 
78001 
77988 
77936 
77882 
77790 
77692 
77626 
77588 
77533 
77508 
77494 
77428 
77332 
77301 
77266 
77203 
77165 
77147 
77092 
77038 
76991 
76967 
76967 
76928 
76878 
76809 
76751 
76723 
76697 
76647 
76612 
76591 
76560 
76531 
76499 
76515 
76526 
76482 
76461 
76458 
76476 
76468 
76430 
76428 
76452 
76390 
76344 
76326 
76306 
76311 
76308 
76328 
76323 
76313 
76306 
76261 
76196 
76170 
76201 
76238 
76285 
76305 
76284 
76233 
76227 
76227 
76256 
76277 
76294 
76292 
76298 
76330 
76354 
76351 
76376 
76400 
76446 
76467 
76487 
76510 
76502 
76493 
76455 
76471 
76495 
76511 
76523 
76570 
76614 
76654 
76716 
76749 
76757 
76743 
76765 
76798 
76791 
76771 
76780 
76808 
76800 
76781 
76794 
76845 
76915 
76948 
76924 
76899 
76916 
76948 
76996 
77008 
77005 
77051 
77080 
77094 
77133 
77179 
77165 
77128 
77163 
77195 
77208 
77250 
77286 
77290 
77277 
77278 
77319 
77368 
77340 
77321 
77329 
77362 
77349 
77379 
77453 
77528 
77539 
77567 
77600 
77627 
77627 
77617 
77619 
77643 
77662 
77686 
77706 
77704 
77723 
77739 
77778 
77802 
77808 
77787 
77771 
77770 
77815 
77870 
77868 
77870 
77867 
77867 
77869 
77921 
77918 
77932 
77934 
77931 
77930 
77945 
77948 
77939 
77919 
77926 
77935 
77953 
77945 
77985 
78019 
78047 
78083 
78062 
78038 
78009 
77944 
77906 
77911 
77901 
77892 
77895 
77889 
77898 
77884 
77840 
77807 
77786 
77744 
77727 
77747 
77697 
77627 
77574 
77504 
77440 
77413 
77374 
77320 
77268 
77218 
77172 
77103 
77068 
77024 
76970 
76945 
76913 
76902 
76912 
76871 
76807 
76795 
76784 
76750 
76715 
76675 
76653 
76629 
76640 
76638 
76632 
76649 
76657 
76654 
76649 
76610 
76599 
76643 
76634 
76614 
76607 
76623 
76626 
76635 
76678 
76689 
76646 
76614 
76657 
76664 
76667 
76712 
76725 
76720 
76706 
76689 
76723 
76731 
76743 
76793 
76788 
76754 
76731 
76769 
76815 
76817 
76808 
76840 
76867 
76842 
76847 
76861 
76882 
76910 
76957 
77007 
77004 
77001 
77019 
77026 
77029 
77043 
77036 
77049 
77034 
77041 
77068 
77116 
77148 
77116 
77152 
77226 
77262 
77280 
77277 
77252 
77294 
77326 
77350 
77382 
77405 
77436 
77435 
77412 
77420 
77436 
77443 
77437 
77443 
77437 
77459 
77497 
77519 
77518 
77501 
77505 
77522 
77541 
77513 
77476 
77454 
77450 
77486 
77488 
77494 
77525 
77558 
77572 
77604 
77628 
77649 
77674 
77675 
77639 
77571 
77497 
77469 
77491 
77534 
77570 
77637 
77686 
77678 
77640 
77631 
77654 
77650 
77615 
77579 
77597 
77606 
77591 
77625 
77655 
77651 
77649 
77638 
77655 
77670 
77674 
77721 
77757 
77762 
77754 
77773 
77775 
77778 
77768 
77757 
77723 
77671 
77693 
77717 
77742 
77749 
77759 
77784 
77757 
77729 
77721 
77752 
77782 
77820 
77815 
77802 
77806 
77801 
77788 
77791 
77840 
77804 
77746 
77732 
77718 
77692 
77679 
77669 
77620 
77580 
77592 
77589 
77528 
77428 
77381 
77335 
77286 
77215 
77133 
77056 
76984 
76906 
76876 
76860 
76822 
76747 
76704 
76691 
76642 
76570 
76497 
76450 
76432 
76397 
76378 
76348 
76317 
76297 
76320 
76293 
76272 
76268 
76292 
76251 
76206 
76180 
76172 
76187 
76217 
76221 
76241 
76245 
76225 
76164 
76121 
76105 
76111 
76129 
76167 
76201 
76219 
76194 
76159 
76125 
76116 
76177 
76235 
76271 
76299 
76292 
76305 
76285 
76249 
76259 
76286 
76341 
76378 
76400 
76438 
76431 
76406 
76440 
76416 
76393 
76427 
76473 
76503 
76495 
76480 
76496 
76537 
76554 
76602 
76588 
76587 
76626 
76657 
76710 
76670 
76644 
76631 
76676 
76717 
76742 
76771 
76808 
76834 
76842 
76835 
76829 
76849 
76867 
76879 
76893 
76919 
76934 
76950 
76976 
77023 
77075 
77079 
77086 
77125 
77150 
77126 
77127 
77170 
77174 
77160 
77152 
77142 
77155 
77186 
77243 
77268 
77261 
77259 
77292 
77305 
77296 
77304 
77309 
77300 
77314 
77327 
77330 
77344 
77400 
77456 
77451 
77416 
77397 
77417 
77429 
77432 
77445 
77449 
77484 
77542 
77543 
77525 
77515 
77503 
77496 
77529 
77525 
77546 
77563 
77551 
77543 
77569 
77598 
77622 
77620 
77599 
77574 
77589 
77634 
77685 
77690 
77674 
77662 
77663 
77647 
77642 
77671 
77709 
77723 
77728 
77718 
77757 
77799 
77829 
77811 
77810 
77791 
77783 
77771 
77779 
77823 
77839 
77818 
77788 
77791 
77790 
77771 
77787 
77779 
77766 
77747 
77757 
77770 
77746 
77732 
77772 
77762 
77709 
77649 
77637 
77644 
77620 
77594 
77587 
77545 
77521 
77455 
77387 
77334 
77281 
77236 
77193 
77158 
77125 
77097 
77062 
77019 
76978 
76928 
76914 
76897 
76867 
76800 
76748 
76755 
76729 
76696 
76716 
76717 
76658 
76654 
76660 
76645 
76616 
76608 
76631 
76682 
76703 
76710 
76736 
76775 
76781 
76758 
76742 
76684 
76662 
76692 
76689 
76694 
76692 
76689 
76724 
76724 
76740 
76737 
76755 
76791 
76779 
76762 
76783 
76815 
76835 
76863 
76852 
76862 
76888 
76929 
76940 
76933 
76940 
76956 
76980 
77011 
77007 
77033 
77019 
76992 
77018 
77032 
77033 
77029 
77001 
76983 
76976 
76975 
77005 
77039 
77033 
77051 
77071 
77102 
77124 
77134 
77171 
77109 
77045 
77083 
77102 
77136 
77171 
77195 
77219 
77235 
77252 
77236 
77251 
77266 
77309 
77378 
77398 
77369 
77370 
77371 
77351 
77329 
77378 
77424 
77440 
77464 
77405 
77396 
77423 
77465 
77469 
77485 
77575 
77622 
77616 
77584 
77561 
77550 
77542 
77519 
77543 
77606 
77640 
77641 
77653 
77694 
77667 
77646 
77609 
77649 
77693 
77709 
77741 
77749 
77737 
77694 
77656 
77674 
77677 
77654 
77671 
77690 
77692 
77701 
77705 
77679 
77685 
77711 
77757 
77748 
77744 
77722 
77721 
77759 
77768 
77773 
77846 
77864 
77819 
77810 
77804 
77814 
77841 
77826 
77824 
77822 
77818 
77843 
77859 
77880 
77900 
77895 
77869 
77843 
77804 
77739 
77719 
77712 
77724 
77719 
77699 
77679 
77689 
77675 
77662 
77623 
77582 
77536 
77466 
77415 
77410 
77422 
77354 
77279 
77212 
77167 
77128 
77070 
77032 
76984 
76920 
76873 
76850 
76833 
76792 
76769 
76737 
76668 
76574 
76522 
76488 
76510 
76596 
76600 
76574 
76519 
76461 
76451 
76436 
76424 
76415 
76458 
76493 
76483 
76460 
76443 
76446 
76442 
76463 
76453 
76409 
76408 
76431 
76435 
76422 
76447 
76497 
76536 
76514 
76536 
76575 
76596 
76577 
76572 
76622 
76639 
76611 
76614 
76618 
76643 
76644 
76679 
76727 
76723 
76716 
76743 
76730 
76706 
76665 
76678 
76722 
76725 
76736 
76723 
76737 
76751 
76751 
76776 
76781 
76783 
76791 
76855 
76890 
76887 
76897 
76919 
76921 
76933 
76923 
76933 
76962 
77003 
76995 
76997 
77036 
77063 
77087 
77115 
77149 
77146 
77122 
77148 
77177 
77208 
77247 
77298 
77305 
77292 
77317 
77380 
77359 
77327 
77327 
77352 
77371 
77394 
77423 
77484 
77523 
77501 
77533 
77541 
77544 
77523 
77501 
77537 
77516 
77538 
77557 
77544 
77566 
77575 
77575 
77589 
77581 
77578 
77585 
77590 
77612 
77604 
77590 
77634 
77682 
77690 
77677 
77657 
77656 
77666 
77696 
77745 
77801 
77784 
77743 
77737 
77734 
77746 
77744 
77772 
77790 
77804 
77800 
77780 
77763 
77776 
77800 
77822 
77802 
77746 
77728 
77741 
77745 
77739 
77751 
77771 
77771 
77787 
77808 
77827 
77841 
77827 
77842 
77830 
77801 
77795 
77817 
77794 
77761 
77736 
77743 
77744 
77758 
77752 
77727 
77712 
77713 
77712 
77716 
77717 
77706 
77714 
77698 
77659 
77632 
77596 
77591 
77575 
77494 
77411 
77358 
77282 
77217 
77197 
77179 
77112 
77051 
76987 
76933 
76928 
76910 
76863 
76785 
76755 
76745 
76729 
76748 
76718 
76659 
76626 
76590 
76531 
76499 
76474 
76427 
76381 
76384 
76347 
76319 
76311 
76272 
76238 
76242 
76245 
76276 
76271 
76252 
76275 
76279 
76256 
76238 
76227 
76222 
76238 
76247 
76256 
76256 
76218 
76242 
76261 
76279 
76321 
76351 
76346 
76342 
76367 
76413 
76404 
76412 
76461 
76435 
76422 
76416 
76423 
76431 
76457 
76483 
76486 
76497 
76504 
76525 
76533 
76515 
76522 
76511 
76539 
76568 
76569 
76587 
76583 
76587 
76650 
76705 
76704 
76716 
76721 
76739 
76798 
76835 
76842 
76842 
76831 
76876 
76919 
76910 
76912 
76951 
76982 
76979 
76994 
77030 
77046 
77056 
77089 
77111 
77130 
77152 
77152 
77163 
77127 
77108 
77151 
77223 
77238 
77234 
77258 
77281 
77291 
77366 
77460 
77446 
77427 
77435 
77453 
77476 
77513 
77519 
77530 
77535 
77552 
77559 
77586 
77599 
77588 
77613 
77674 
77729 
77738 
77737 
77741 
77714 
77680 
77709 
77736 
77753 
77753 
77714 
77726 
77761 
77804 
77806 
77810 
77812 
77801 
77806 
77832 
77847 
77888 
77927 
77936 
77926 
77912 
77928 
77931 
77907 
77886 
77874 
77882 
77893 
77893 
77881 
77880 
77942 
77979 
78002 
78013 
77992 
77986 
78010 
78003 
77994 
78030 
78019 
78032 
78020 
78009 
77971 
77998 
78076 
78100 
78096 
78055 
78037 
78051 
78059 
78061 
78060 
78071 
78116 
78114 
78120 
78123 
78089 
78049 
78012 
77959 
77895 
77838 
77771 
77735 
77678 
77632 
77598 
77597 
77571 
77505 
77441 
77394 
77320 
77277 
77197 
77142 
77117 
77059 
77023 
77016 
76961 
76903 
76872 
76843 
76812 
76820 
76834 
76842 
76802 
76742 
76701 
76664 
76629 
76627 
76603 
76552 
76550 
76552 
76537 
76539 
76530 
76598 
76604 
76587 
76576 
76596 
76564 
76551 
76549 
76574 
76616 
76638 
76604 
76579 
76601 
76641 
76660 
76687 
76702 
76691 
76694 
76681 
76705 
76711 
76693 
76706 
76763 
76817 
76784 
76725 
76711 
76718 
76760 
76803 
76806 
76766 
76760 
76771 
76772 
76790 
76809 
76851 
76855 
76829 
76846 
76888 
76914 
76910 
76896 
76929 
76969 
76952 
76959 
76966 
76977 
76975 
76958 
76937 
76969 
77027 
77031 
77031 
77050 
77079 
77130 
77186 
77231 
77208 
77209 
77218 
77216 
77236 
77297 
77382 
77383 
77395 
77388 
77365 
77386 
77409 
77427 
77447 
77485 
77499 
77498 
77497 
77495 
77534 
77598 
77611 
77616 
77602 
77595 
77626 
77614 
77591 
77622 
77662 
77660 
77679 
77681 
77702 
77754 
77788 
77821 
77838 
77825 
77818 
77765 
77694 
77676 
77711 
77769 
77814 
77819 
77820 
77839 
77850 
77842 
77768 
77764 
77795 
77797 
77824 
77829 
77805 
77769 
77741 
77735 
77765 
77799 
77838 
77840 
77877 
77913 
77891 
77876 
77909 
77894 
77873 
77873 
77844 
77838 
77832 
77885 
77920 
77921 
77873 
77842 
77830 
77862 
77883 
77907 
77934 
77933 
77908 
77859 
77808 
77799 
77792 
77755 
77750 
77758 
77747 
77753 
77720 
77677 
77644 
77590 
77552 
77503 
77449 
77425 
77372 
77320 
77279 
77265 
77218 
77170 
77155 
77105 
77060 
77017 
76968 
76918 
76863 
76857 
76864 
76816 
76827 
76826 
76796 
76752 
76707 
76713 
76716 
76668 
76663 
76692 
76651 
76634 
76672 
76702 
76653 
76609 
76603 
76589 
76564 
76523 
76525 
76587 
76609 
76598 
76564 
76528 
76525 
76548 
76603 
76631 
76663 
76661 
76645 
76638 
76665 
76684 
76703 
76653 
76645 
76662 
76684 
76669 
76609 
76586 
76578 
76603 
76624 
76658 
76654 
76647 
76633 
76656 
76702 
76717 
76708 
76697 
76677 
76674 
76638 
76627 
76655 
76675 
76685 
76710 
76725 
76747 
76779 
76790 
76800 
76775 
76777 
76814 
76841 
76854 
76892 
76956 
76982 
76967 
76946 
76953 
76986 
76998 
77014 
77030 
77041 
77069 
77114 
77139 
77152 
77197 
77230 
77254 
77248 
77228 
77235 
77275 
77268 
77245 
77263 
77302 
77299 
77306 
77358 
77409 
77419 
77466 
77477 
77480 
77482 
77497 
77508 
77507 
77523 
77497 
77494 
77510 
77531 
77540 
77505 
77530 
77543 
77552 
77561 
77573 
77547 
77501 
77477 
77497 
77556 
77560 
77514 
77495 
77531 
77576 
77599 
77633 
77620 
77586 
77570 
77564 
77540 
77530 
77559 
77609 
77592 
77583 
77615 
77597 
77559 
77538 
77523 
77509 
77533 
77579 
77626 
77625 
77591 
77589 
77609 
77607 
77610 
77638 
77658 
77662 
77642 
77654 
77665 
77641 
77620 
77585 
77561 
77556 
77533 
77545 
77575 
77595 
77608 
77634 
77614 
77585 
77570 
77563 
77605 
77636 
77664 
77684 
77660 
77626 
77595 
77571 
77548 
77549 
77536 
77527 
77512 
77464 
77442 
77373 
77311 
77240 
77198 
77160 
77116 
77082 
77013 
76962 
76912 
76850 
76782 
76741 
76740 
76713 
76699 
76682 
76648 
76598 
76573 
76545 
76532 
76560 
76540 
76547 
76537 
76485 
76436 
76417 
76395 
76384 
76375 
76390 
76379 
76348 
76323 
76316 
76302 
76333 
76337 
76332 
76363 
76381 
76406 
76417 
76462 
76495 
76497 
76500 
76508 
76537 
76543 
76535 
76562 
76595 
76595 
76644 
76663 
76655 
76656 
76673 
76676 
76670 
76672 
76692 
76701 
76704 
76676 
76695 
76749 
76752 
76715 
76729 
76721 
76692 
76728 
76802 
76820 
76805 
76786 
76792 
76803 
76800 
76815 
76870 
76890 
76925 
76970 
76985 
76979 
76965 
77034 
77109 
77134 
77153 
77141 
77124 
77167 
77195 
77209 
77226 
77242 
77276 
77287 
77275 
77311 
77379 
77434 
77459 
77448 
77456 
77451 
77492 
77548 
77534 
77553 
77580 
77610 
77620 
77620 
77631 
77623 
77656 
77681 
77690 
77736 
77758 
77799 
77814 
77822 
77848 
77861 
77844 
77827 
77864 
77898 
77904 
77907 
77918 
77903 
77869 
77868 
77921 
77951 
78004 
77989 
77965 
77973 
77989 
78022 
78052 
78060 
78079 
78093 
78067 
78040 
78004 
78009 
78073 
78090 
78073 
78061 
78068 
78057 
78023 
78064 
78069 
78084 
78115 
78095 
78081 
78096 
78127 
78121 
78110 
78089 
78093 
78105 
78118 
78111 
78136 
78151 
78111 
78089 
78094 
78076 
78042 
77997 
77971 
78013 
78048 
78000 
77982 
77967 
77947 
77920 
77913 
77916 
77902 
77865 
77791 
77728 
77666 
77604 
77572 
77504 
77424 
77386 
77356 
77307 
77274 
77238 
77180 
77129 
77114 
77092 
77096 
77105 
77031 
76965 
76947 
76913 
76882 
76854 
76854 
76885 
76876 
76856 
76849 
76835 
76816 
76821 
76800 
76744 
76733 
76754 
76737 
76757 
76764 
76765 
76730 
76671 
76657 
76664 
76682 
76702 
76728 
76755 
76757 
76732 
76756 
76772 
76762 
76772 
76747 
76696 
76675 
76712 
76727 
76771 
76818 
76869 
76855 
76809 
76769 
76768 
76766 
76793 
76838 
76859 
76849 
76826 
76801 
76785 
76800 
76823 
76812 
76796 
76765 
76771 
76788 
76806 
76834 
76867 
76877 
76865 
76874 
76902 
76920 
76928 
76918 
76939 
76967 
76975 
76979 
76976 
76999 
77064 
77090 
77091 
77129 
77157 
77145 
77167 
77242 
77258 
77261 
77286 
77260 
77249 
77228 
77208 
77180 
77228 
77299 
77323 
77337 
77320 
77309 
77309 
77313 
77372 
77396 
77346 
77300 
77316 
77323 
77298 
77299 
77324 
77348 
77372 
77402 
77393 
77351 
77317 
77292 
77311 
77338 
77379 
77400 
77397 
77383 
77362 
77354 
77367 
77376 
77388 
77398 
77403 
77410 
77375 
77392 
77409 
77397 
77379 
77354 
77388 
77403 
77381 
77411 
77423 
77418 
77399 
77416 
77398 
77428 
77462 
77440 
77385 
77352 
77405 
77438 
77425 
77457 
77497 
77449 
77406 
77394 
77422 
77432 
77428 
77444 
77446 
77439 
77448 
77445 
77430 
77393 
77402 
77430 
77491 
77476 
77449 
77455 
77453 
77414 
77397 
77360 
77343 
77336 
77310 
77289 
77196 
77128 
77087 
77044 
76991 
76937 
76895 
76869 
76830 
76808 
76755 
76732 
76693 
76638 
76583 
76562 
76516 
76490 
76475 
76419 
76411 
76383 
76356 
76388 
76469 
76455 
76391 
76349 
76321 
76279 
76262 
76253 
76271 
76297 
76321 
76327 
76332 
76315 
76328 
76376 
76373 
76381 
76404 
76424 
76453 
76456 
76477 
76502 
76517 
76483 
76450 
76450 
76492 
76538 
76558 
76534 
76519 
76554 
76588 
76609 
76642 
76683 
76695 
76698 
76744 
76771 
76753 
76741 
76748 
76792 
76792 
76814 
76862 
76870 
76861 
76862 
76866 
76866 
76849 
76874 
76896 
76894 
76923 
76968 
77016 
77016 
77033 
77049 
77060 
77045 
77063 
77083 
77073 
77076 
77102 
77149 
77163 
77140 
77185 
77225 
77223 
77211 
77203 
77217 
77284 
77312 
77286 
77281 
77329 
77353 
77336 
77339 
77366 
77439 
77444 
77452 
77483 
77474 
77463 
77443 
77425 
77472 
77497 
77488 
77506 
77528 
77520 
77508 
77520 
77559 
77576 
77573 
77617 
77669 
77695 
77689 
77665 
77671 
77686 
77694 
77713 
77727 
77817 
77864 
77842 
77829 
77797 
77820 
77831 
77794 
77778 
77838 
77853 
77828 
77856 
77862 
77845 
77832 
77852 
77868 
77879 
77882 
77865 
77856 
77875 
77901 
77896 
77876 
77865 
77852 
77859 
77874 
77861 
77834 
77848 
77910 
77941 
77946 
77950 
77947 
77966 
78003 
78025 
78016 
78013 
78007 
77997 
77984 
78047 
78065 
78046 
78027 
78031 
78014 
77967 
77974 
78002 
77996 
77992 
77971 
77918 
77902 
77931 
77936 
77905 
77901 
77890 
77904 
77885 
77827 
77798 
77797 
77769 
77722 
77704 
77654 
77614 
77532 
77449 
77429 
77422 
77384 
77308 
77285 
77305 
77288 
77237 
77191 
77155 
77120 
77064 
77019 
77022 
77042 
77029 
77028 
77003 
76990 
76961 
76939 
76930 
76886 
76886 
76914 
76895 
76856 
76830 
76813 
76838 
76877 
76872 
76832 
76803 
76793 
76801 
76771 
76780 
76797 
76812 
76893 
76949 
76939 
76908 
76931 
76948 
76923 
76899 
76957 
76989 
76964 
76940 
76920 
76886 
76848 
76878 
76916 
76933 
76904 
76888 
76884 
76903 
76957 
76980 
76961 
76996 
77054 
77075 
77096 
77085 
77096 
77073 
77051 
77045 
77025 
77045 
77058 
77074 
77100 
77122 
77150 
77164 
77166 
77184 
77258 
77256 
77227 
77270 
77355 
77370 
77342 
77371 
77421 
77445 
77440 
77441 
77443 
77449 
77465 
77509 
77537 
77557 
77590 
77616 
77649 
77711 
77738 
77713 
77729 
77737 
77748 
77761 
77794 
77787 
77801 
77838 
77862 
77866 
77904 
77969 
77996 
78034 
78025 
77990 
77990 
78035 
78112 
78126 
78174 
78202 
78190 
78186 
78224 
78231 
78241 
78280 
78308 
78341 
78393 
78407 
78416 
78413 
78455 
78488 
78502 
78524 
78535 
78527 
78538 
78554 
78582 
78596 
78662 
78641 
78623 
78609 
78595 
78598 
78573 
78569 
78568 
78593 
78606 
78609 
78597 
78572 
78548 
78539 
78547 
78539 
78501 
78471 
78477 
78503 
78472 
78432 
78441 
78463 
78475 
78491 
78488 
78470 
78442 
78396 
78350 
78360 
78354 
78347 
78329 
78310 
78337 
78331 
78259 
78222 
78206 
78170 
78149 
78107 
78018 
77944 
77915 
77872 
77824 
77791 
77770 
77711 
77613 
77543 
77528 
77505 
77498 
77500 
77454 
77361 
77352 
77306 
77275 
77253 
77224 
77210 
77178 
77158 
77136 
77134 
77097 
77047 
77030 
77051 
77025 
77008 
77011 
76984 
76957 
76951 
76937 
76928 
76949 
76949 
76901 
76877 
76900 
76919 
76947 
76950 
76960 
76985 
77014 
77047 
77079 
77075 
77055 
77038 
77045 
77075 
77127 
77138 
77179 
77171 
77163 
77191 
77195 
77208 
77222 
77221 
77225 
77238 
77288 
77365 
77386 
77347 
77340 
77346 
77362 
77353 
77349 
77394 
77423 
77460 
77485 
77500 
77492 
77490 
77481 
77468 
77483 
77478 
77491 
77537 
77529 
77536 
77568 
77594 
77592 
77581 
77578 
77562 
77559 
77599 
77622 
77619 
77611 
77602 
77609 
77615 
77588 
77594 
77600 
77610 
77602 
77575 
77563 
77506 
77495 
77548 
77560 
77557 
77581 
77608 
77619 
77615 
77608 
77590 
77583 
77579 
77566 
77544 
77512 
77497 
77523 
77562 
77524 
77523 
77579 
77629 
77638 
77624 
77652 
77663 
77658 
77653 
77645 
77654 
77623 
77596 
77635 
77681 
77673 
77664 
77680 
77693 
77675 
77646 
77604 
77615 
77628 
77630 
77631 
77641 
77647 
77653 
77675 
77712 
77701 
77679 
77659 
77637 
77634 
77606 
77584 
77584 
77583 
77593 
77585 
77608 
77592 
77553 
77538 
77572 
77607 
77628 
77660 
77644 
77646 
77678 
77666 
77665 
77689 
77673 
77702 
77763 
77796 
77785 
77794 
77864 
77916 
77908 
77902 
77927 
77939 
77937 
77934 
77929 
77893 
77873 
77886 
77822 
77809 
77808 
77809 
77815 
77781 
77772 
77755 
77724 
77720 
77647 
77540 
77516 
77536 
77543 
77565 
77523 
77511 
77483 
77440 
77396 
77358 
77357 
77313 
77263 
77243 
77223 
77218 
77215 
77199 
77165 
77201 
77221 
77191 
77135 
77107 
77065 
77023 
77026 
77011 
76984 
76952 
76924 
76914 
76880 
76862 
76885 
76873 
76844 
76834 
76818 
76806 
76792 
76786 
76772 
76769 
76788 
76827 
76834 
76849 
76857 
76862 
76853 
76851 
76862 
76837 
76801 
76786 
76832 
76851 
76838 
76861 
76871 
76887 
76933 
76964 
76975 
76974 
76989 
77009 
77000 
76969 
76959 
76965 
76961 
76955 
76964 
76957 
76905 
76872 
76884 
76914 
76963 
76944 
76926 
76914 
76928 
77004 
77045 
77047 
76989 
77008 
77052 
77062 
77041 
77020 
77051 
77074 
77122 
77110 
77077 
77097 
77115 
77140 
77136 
77109 
77080 
77094 
77126 
77141 
77131 
77124 
77170 
77229 
77224 
77177 
77142 
77152 
77165 
77147 
77165 
77186 
77185 
77177 
77165 
77171 
77155 
77168 
77153 
77132 
77131 
77157 
77153 
77159 
77164 
77129 
77171 
77193 
77197 
77173 
77157 
77188 
77187 
77149 
77135 
77174 
77175 
77139 
77134 
77163 
77160 
77150 
77131 
77148 
77143 
77150 
77152 
77145 
77136 
77139 
77139 
77162 
77193 
77223 
77233 
77239 
77266 
77255 
77200 
77211 
77224 
77221 
77234 
77208 
77220 
77256 
77295 
77327 
77350 
77393 
77400 
77391 
77383 
77389 
77379 
77334 
77334 
77369 
77375 
77389 
77427 
77442 
77415 
77430 
77442 
77402 
77412 
77439 
77465 
77516 
77510 
77494 
77486 
77482 
77497 
77504 
77534 
77559 
77570 
77552 
77511 
77503 
77529 
77567 
77584 
77556 
77520 
77519 
77503 
77503 
77532 
77578 
77635 
77629 
77617 
77601 
77581 
77586 
77605 
77628 
77647 
77643 
77629 
77633 
77637 
77656 
77696 
77716 
77706 
77668 
77691 
77686 
77679 
77710 
77718 
77728 
77694 
77690 
77726 
77753 
77764 
77735 
77748 
77812 
77839 
77843 
77814 
77816 
77789 
77756 
77803 
77839 
77838 
77816 
77807 
77799 
77763 
77744 
77780 
77812 
77854 
77865 
77859 
77858 
77839 
77834 
77865 
77871 
77831 
77847 
77838 
77821 
77822 
77814 
77827 
77910 
77910 
77877 
77875 
77896 
77907 
77890 
77910 
77960 
77964 
77971 
77985 
77947 
77889 
77870 
77887 
77933 
77934 
77935 
77920 
77921 
77923 
77890 
77903 
77935 
77931 
77911 
77865 
77887 
77903 
77917 
77931 
77982 
78020 
77999 
77940 
77906 
77869 
77861 
77873 
77906 
77956 
77957 
77904 
77851 
77836 
77859 
77897 
77890 
77864 
77872 
77845 
77836 
77851 
77879 
77828 
77796 
77760 
77749 
77799 
77810 
77814 
77799 
77776 
77744 
77725 
77725 
77760 
77804 
77804 
77781 
77759 
77727 
77717 
77698 
77671 
77725 
77754 
77695 
77680 
77664 
77679 
77686 
77689 
77670 
77643 
77621 
77592 
77559 
77603 
77677 
77692 
77636 
77583 
77577 
77543 
77500 
77500 
77509 
77531 
77544 
77502 
77488 
77515 
77494 
77472 
77469 
77440 
77478 
77528 
77537 
77533 
77525 
77499 
77465 
77457 
77485 
77506 
77489 
77494 
77488 
77434 
77388 
77379 
77381 
77381 
77379 
77370 
77367 
77366 
77372 
77367 
77365 
77358 
77344 
77334 
77337 
77331 
77305 
77280 
77254 
77270 
77309 
77313 
77309 
77275 
77235 
77209 
77174 
77204 
77223 
77194 
77185 
77185 
77166 
77162 
77157 
77180 
77204 
77215 
77239 
77237 
77268 
77282 
77278 
77267 
77289 
77301 
77285 
77268 
77221 
77194 
77204 
77214 
77266 
77275 
77250 
77246 
77232 
77242 
77249 
77244 
77268 
77290 
77294 
77249 
77217 
77241 
77268 
77285 
77254 
77221 
77196 
77209 
77223 
77243 
77255 
77220 
77228 
77281 
77274 
77249 
77248 
77231 
77237 
77228 
77200 
77231 
77255 
77241 
77220 
77214 
77190 
77176 
77169 
77161 
77205 
77244 
77235 
77251 
77243 
77231 
77288 
77308 
77293 
77230 
77202 
77194 
77189 
77178 
77196 
77195 
77236 
77278 
77230 
77204 
77210 
77247 
77243 
77186 
77185 
77191 
77168 
77167 
77179 
77182 
77201 
77201 
77216 
77246 
77268 
77290 
77279 
77223 
77205 
77240 
77232 
77211 
77241 
77231 
77213 
77233 
77274 
77310 
77280 
77261 
77269 
77288 
77247 
77208 
77200 
77206 
77208 
77212 
77215 
77218 
77243 
77270 
77276 
77230 
77204 
77220 
77253 
77231 
77202 
77201 
77233 
77247 
77250 
77247 
77258 
77241 
77227 
77272 
77312 
77301 
77303 
77303 
77333 
77335 
77320 
77346 
77341 
77323 
77302 
77315 
77345 
77358 
77359 
77352 
77318 
77314 
77337 
77324 
77275 
77251 
77268 
77297 
77320 
77294 
77271 
77268 
77271 
77246 
77232 
77287 
77307 
77308 
77317 
77308 
77333 
77334 
77322 
77369 
77422 
77416 
77408 
77385 
77376 
77343 
77305 
77298 
77327 
77302 
77256 
77286 
77321 
77331 
77319 
77344 
77325 
77284 
77277 
77275 
77276 
77275 
77282 
77298 
77323 
77306 
77297 
77293 
77285 
77254 
77230 
77232 
77280 
77328 
77320 
77295 
77279 
77248 
77211 
77229 
77273 
77256 
77217 
77208 
77203 
77161 
77124 
77111 
77122 
77148 
77158 
77153 
77148 
77122 
77084 
77072 
77102 
77139 
77152 
77153 
77134 
77140 
77143 
77137 
77156 
77148 
77117 
77076 
77056 
77049 
77053 
77085 
77150 
77166 
77170 
77159 
77132 
77135 
77134 
77109 
77092 
77097 
77095 
77072 
77084 
77095 
77086 
77083 
77111 
77133 
77138 
77099 
77093 
77118 
77124 
77119 
77142 
77139 
77144 
77140 
77142 
77134 
77153 
77138 
77130 
77151 
77175 
77174 
77155 
77122 
77107 
77056 
77060 
77105 
77136 
77167 
77185 
77191 
77156 
77125 
77132 
77149 
77120 
77117 
77114 
77110 
77100 
77114 
77120 
77125 
77092 
77084 
77058 
77040 
77052 
77083 
77142 
77149 
77130 
77110 
77091 
77087 
77102 
77118 
77184 
77196 
77196 
77203 
77166 
77122 
77126 
77145 
77167 
77217 
77210 
77182 
77163 
77147 
77129 
77158 
77168 
77190 
77179 
77169 
77146 
77105 
77087 
77098 
77108 
77129 
77131 
77098 
77095 
77089 
77104 
77102 
77131 
77176 
77151 
77124 
77074 
77050 
77059 
77065 
77084 
77135 
77159 
77162 
77151 
77154 
77131 
77082 
77056 
77066 
77045 
77036 
77038 
77058 
77071 
77061 
77059 
77064 
77099 
77093 
77036 
77042 
77049 
77052 
77053 
77058 
77088 
77075 
77058 
77065 
77084 
77131 
77143 
77161 
77137 
77096 
77088 
77105 
77126 
77107 
77093 
77054 
77055 
77073 
77074 
77055 
77047 
77044 
77039 
77065 
77141 
77150 
77121 
77115 
77155 
77148 
77143 
77137 
77116 
77120 
77105 
77081 
77089 
77119 
77149 
77132 
77150 
77162 
77155 
77160 
77150 
77155 
77184 
77221 
77210 
77191 
77169 
77167 
77182 
77188 
77198 
77253 
77268 
77241 
77219 
77186 
77142 
77113 
77108 
77140 
77184 
77184 
77200 
77229 
77236 
77201 
77157 
77168 
77179 
77161 
77149 
77148 
77163 
77165 
77238 
77254 
77256 
77275 
77263 
77225 
77211 
77222 
77259 
77259 
77253 
77226 
77214 
77238 
77294 
77298 
77230 
77208 
77212 
77240 
77263 
77258 
77216 
77204 
77200 
77214 
77261 
77271 
77248 
77256 
77304 
77313 
77288 
77285 
77256 
77272 
77287 
77281 
77280 
77264 
77284 
77290 
77286 
77293 
77288 
77325 
77348 
77285 
77221 
77222 
77247 
77263 
77285 
77297 
77268 
77221 
77226 
77250 
77268 
77297 
77319 
77298 
77259 
77242 
77214 
77225 
77261 
77272 
77303 
77297 
77303 
77317 
77300 
77291 
77297 
77301 
77296 
77253 
77237 
77229 
77239 
77260 
77268 
77273 
77290 
77277 
77245 
77237 
77258 
77236 
77205 
77233 
77222 
77209 
77196 
77177 
77155 
77158 
77161 
77123 
77125 
77120 
77098 
77097 
77137 
77163 
77125 
77135 
77154 
77111 
77085 
77098 
77097 
77113 
77096 
77094 
77108 
77086 
77042 
77009 
77014 
77022 
77054 
77052 
77049 
77044 
77027 
77031 
77059 
77063 
77046 
77050 
77019 
76997 
76958 
76965 
76990 
77003 
77004 
77000 
76987 
76947 
76925 
76953 
76971 
76958 
76975 
77009 
76997 
76994 
77001 
76999 
76988 
76976 
76958 
76975 
76997 
76998 
76998 
76971 
76939 
76931 
76908 
76890 
76880 
76908 
76920 
76946 
76973 
76965 
76951 
76925 
76901 
76936 
76975 
76967 
76966 
76972 
76972 
76974 
76971 
76976 
76958 
76969 
76981 
76963 
76972 
76959 
76951 
76989 
76979 
76920 
76920 
76940 
76965 
76953 
76956 
77022 
77032 
77027 
76997 
76971 
76980 
76942 
76920 
76881 
76884 
76935 
76915 
76887 
76897 
76906 
76915 
76942 
76954 
76937 
76912 
76895 
76882 
76890 
76905 
76879 
76878 
76898 
76914 
76922 
76890 
76852 
76861 
76886 
76900 
76936 
76965 
76954 
76933 
76932 
76908 
76901 
76918 
76915 
76889 
76883 
76888 
76921 
76950 
76964 
76961 
76933 
76937 
76957 
76980 
76949 
76915 
76924 
76926 
76880 
76865 
76843 
76833 
76805 
76776 
76777 
76787 
76822 
76808 
76799 
76789 
76805 
76857 
76879 
76893 
76939 
76937 
76934 
76916 
76877 
76846 
76855 
76867 
76901 
76931 
76903 
76881 
76860 
76841 
76842 
76825 
76824 
76870 
76867 
76830 
76841 
76892 
76913 
76890 
76901 
76905 
76885 
76863 
76850 
76846 
76869 
76851 
76835 
76871 
76877 
76858 
76849 
76880 
76912 
76884 
76899 
76919 
76911 
76914 
76924 
76900 
76897 
76901 
76881 
76938 
76971 
76954 
76980 
76980 
76959 
76973 
76995 
77001 
76951 
76945 
76962 
76963 
76945 
76938 
76940 
76957 
76965 
76980 
76968 
76959 
76928 
76909 
76911 
76945 
76970 
76989 
76963 
76945 
76936 
76951 
76980 
77022 
77057 
77060 
77040 
77038 
77034 
77055 
77046 
77002 
76972 
76959 
76975 
76960 
76936 
76949 
76929 
76943 
76983 
76982 
76953 
76944 
76949 
76931 
76905 
76891 
76943 
76967 
76964 
76935 
76926 
76938 
76950 
76928 
76915 
76911 
76899 
76932 
76985 
76989 
76980 
76987 
76987 
76960 
76949 
76949 
76966 
77020 
77021 
77014 
77016 
76997 
77008 
77004 
76984 
76947 
76975 
76977 
76926 
76931 
76978 
77006 
76998 
76973 
76984 
77013 
77013 
76993 
76986 
76967 
76959 
76974 
76982 
76988 
76957 
76937 
76952 
76982 
76986 
77008 
76991 
76961 
76905 
76867 
76860 
76862 
76883 
76915 
76928 
76960 
76967 
76959 
76935 
76917 
76902 
76942 
76966 
76963 
76953 
76897 
76858 
76856 
76835 
76819 
76828 
76812 
76792 
76782 
76800 
76815 
76807 
76812 
76799 
76751 
76720 
76730 
76737 
76753 
76758 
76785 
76825 
76864 
76847 
76833 
76867 
76895 
76889 
76932 
76914 
76854 
76812 
76804 
76815 
76830 
76841 
76876 
76881 
76859 
76864 
76853 
76837 
76852 
76886 
76892 
76884 
76890 
76909 
76887 
76869 
76901 
76921 
76913 
76931 
76916 
76881 
76887 
76891 
76896 
76916 
76944 
76960 
76990 
77066 
77066 
76983 
76935 
76908 
76916 
76899 
76903 
76899 
76883 
76899 
76880 
76864 
76878 
76855 
76831 
76821 
76835 
76862 
76873 
76879 
76862 
76848 
76833 
76828 
76867 
76900 
76858 
76830 
76831 
76840 
76842 
76826 
76808 
76805 
76819 
76825 
76826 
76808 
76816 
76841 
76809 
76813 
76846 
76851 
76827 
76828 
76835 
76814 
76814 
76861 
76884 
76832 
76785 
76765 
76779 
76799 
76825 
76892 
76927 
76909 
76875 
76831 
76827 
76834 
76846 
76811 
76822 
76836 
76843 
76861 
76868 
76854 
76854 
76879 
76888 
76859 
76818 
76813 
76836 
76850 
76871 
76913 
76961 
76945 
76919 
76909 
76887 
76877 
76891 
76939 
76980 
76977 
76955 
76960 
76979 
76942 
76891 
76877 
76861 
76875 
76923 
76901 
76865 
76863 
76922 
76970 
76940 
76888 
76857 
76860 
76861 
76872 
76896 
76875 
76828 
76814 
76832 
76827 
76838 
76849 
76867 
76894 
76910 
76879 
76901 
76921 
76911 
76861 
76827 
76842 
76835 
76855 
76879 
76918 
76933 
76958 
76985 
76962 
76951 
76924 
76909 
76919 
76923 
76906 
76885 
76888 
76870 
76895 
76954 
76999 
77006 
76964 
76906 
76883 
76871 
76859 
76868 
76915 
76913 
76879 
76891 
76904 
76925 
76944 
76925 
76952 
76965 
76882 
76849 
76873 
76847 
76865 
76914 
76973 
76990 
76966 
76952 
76922 
76903 
76908 
76887 
76881 
76884 
76861 
76842 
76867 
76895 
76846 
76797 
76812 
76878 
76937 
76948 
76929 
76927 
76947 
76942 
76867 
76843 
76895 
76913 
76895 
76869 
76851 
76866 
76898 
76940 
76955 
76931 
76914 
76927 
76914 
76910 
76888 
76871 
76855 
76894 
76924 
76945 
76957 
76976 
76980 
76949 
76961 
76975 
76973 
76956 
76944 
76938 
76943 
76935 
76979 
76990 
76964 
76928 
76892 
76879 
76883 
76918 
76944 
76982 
76964 
76939 
76933 
76933 
76916 
76918 
76926 
76894 
76905 
76919 
76949 
76974 
76930 
76906 
76882 
76861 
76849 
76887 
76939 
76978 
76980 
76978 
76992 
76975 
76947 
76930 
76907 
76876 
76867 
76843 
76858 
76878 
76923 
76938 
76917 
76869 
76856 
76874 
76893 
76919 
76928 
76897 
76889 
76866 
76845 
76816 
76809 
76835 
76893 
76924 
76922 
76913 
76900 
76860 
76862 
76883 
76843 
76816 
76800 
76795 
76830 
76864 
76886 
76879 
76904 
76948 
76960 
76966 
76946 
76919 
76896 
76884 
76901 
76907 
76891 
76880 
76891 
76915 
76911 
76894 
76884 
76875 
76840 
76851 
76860 
76849 
76836 
76834 
76826 
76814 
76829 
76847 
76837 
76830 
76832 
76863 
76833 
76799 
76772 
76788 
76805 
76801 
76799 
76813 
76808 
76824 
76862 
76816 
76776 
76755 
76765 
76767 
76724 
76702 
76736 
76779 
76798 
76784 
76740 
76740 
76719 
76723 
76730 
76766 
76779 
76806 
76846 
76842 
76819 
76818 
76798 
76809 
76804 
76795 
76789 
76739 
76706 
76723 
76745 
76784 
76779 
76756 
76735 
76712 
76735 
76744 
76712 
76720 
76717 
76695 
76719 
76740 
76714 
76700 
76736 
76769 
76736 
76722 
76732 
76764 
76776 
76762 
76748 
76770 
76811 
76828 
76821 
76795 
76799 
76805 
76809 
76809 
76814 
76834 
76849 
76835 
76855 
76871 
76875 
76911 
76932 
76925 
76923 
76922 
76900 
76924 
76945 
76955 
76964 
76933 
76938 
76950 
76939 
76915 
76891 
76890 
76911 
76919 
76930 
76919 
76912 
76914 
76888 
76880 
76884 
76888 
76895 
76926 
76938 
76951 
76948 
76920 
76863 
76847 
76866 
76880 
76879 
76889 
76915 
76930 
76922 
76930 
76933 
76950 
76949 
76923 
76905 
76932 
76924 
76886 
76919 
76938 
76932 
76923 
76904 
76915 
76948 
76961 
76935 
76889 
76826 
76836 
76872 
76932 
77010 
76994 
76983 
76949 
76931 
76920 
76939 
76934 
76934 
76940 
76930 
76921 
76895 
76878 
76877 
76871 
76848 
76883 
76898 
76892 
76876 
76877 
76876 
76876 
76883 
76908 
76891 
76917 
76946 
76951 
76957 
76954 
76932 
76951 
76949 
76955 
76996 
76960 
76934 
76974 
76981 
76945 
76945 
76964 
76960 
76937 
76920 
76908 
76926 
76904 
76878 
76899 
76935 
76963 
76990 
77049 
77034 
76990 
76988 
76986 
76948 
76895 
76896 
76893 
76888 
76887 
76926 
76919 
76901 
76933 
76906 
76858 
76918 
76956 
76941 
76905 
76874 
76886 
76860 
76822 
76851 
76886 
76866 
76827 
76807 
76809 
76815 
76807 
76824 
76825 
76820 
76828 
76799 
76769 
76772 
76746 
76704 
76733 
76808 
76810 
76795 
76821 
76841 
76835 
76776 
76773 
76784 
76775 
76756 
76765 
76743 
76687 
76663 
76664 
76696 
76714 
76735 
76753 
76736 
76713 
76676 
76670 
76687 
76681 
76640 
76629 
76640 
76646 
76645 
76672 
76683 
76700 
76689 
76660 
76651 
76631 
76619 
76658 
76708 
76767 
76768 
76755 
76782 
76767 
76728 
76716 
76745 
76778 
76774 
76744 
76736 
76764 
76779 
76760 
76735 
76715 
76731 
76756 
76759 
76773 
76797 
76816 
76842 
76872 
76862 
76827 
76780 
76793 
76824 
76813 
76833 
76854 
76888 
76906 
76909 
76889 
76849 
76836 
76853 
76870 
76890 
76920 
76937 
76958 
76964 
76948 
76966 
76974 
76966 
76946 
76901 
76903 
76916 
76943 
76999 
77045 
77059 
77052 
77022 
76979 
76956 
76973 
77005 
77024 
77073 
77075 
77039 
77030 
77016 
77039 
77064 
77098 
77083 
77062 
77075 
77091 
77087 
77084 
77077 
77056 
77068 
77078 
77074 
77063 
77070 
77074 
77112 
77177 
77180 
77152 
77144 
77120 
77089 
77091 
77095 
77148 
77216 
77249 
77242 
77219 
77194 
77178 
77148 
77153 
77160 
77174 
77202 
77216 
77234 
77266 
77307 
77325 
77314 
77293 
77303 
77297 
77275 
77265 
77306 
77307 
77298 
77266 
77254 
77237 
77231 
77214 
77232 
77294 
77275 
77268 
77258 
77257 
77239 
77257 
77266 
77250 
77240 
77237 
77222 
77212 
77191 
77169 
77177 
77210 
77208 
77188 
77172 
77158 
77184 
77211 
77219 
77208 
77195 
77217 
77200 
77145 
77105 
77080 
77065 
77055 
77082 
77080 
77083 
77098 
77137 
77146 
77119 
77122 
77157 
77146 
77157 
77168 
77150 
77134 
77109 
77100 
77143 
77186 
77173 
77140 
77102 
77079 
77065 
77016 
77004 
77026 
77037 
77067 
77041 
77033 
77028 
77021 
77035 
77042 
77074 
77067 
77076 
77095 
77098 
77100 
77106 
77077 
77044 
77040 
77031 
77049 
77029 
76989 
76986 
76991 
76996 
77001 
77032 
77040 
77048 
77095 
77111 
77079 
77114 
77099 
77099 
77073 
77050 
77081 
77105 
77108 
77149 
77149 
77120 
77112 
77122 
77093 
77095 
77094 
77090 
77137 
77129 
77098 
77101 
77088 
77108 
77134 
77134 
77114 
77113 
77129 
77145 
77169 
77188 
77209 
77205 
77165 
77161 
77181 
77193 
77159 
77155 
77191 
77189 
77207 
77202 
77206 
77226 
77216 
77228 
77236 
77228 
77213 
77232 
77267 
77271 
77243 
77256 
77302 
77296 
77262 
77250 
77238 
77226 
77256 
77284 
77286 
77303 
77312 
77308 
77322 
77327 
77360 
77310 
77289 
77301 
77311 
77321 
77328 
77314 
77310 
77330 
77317 
77304 
77273 
77273 
77298 
77341 
77357 
77356 
77356 
77372 
77345 
77328 
77331 
77376 
77428 
77421 
77377 
77335 
77308 
77298 
77299 
77329 
77358 
77359 
77351 
77345 
77344 
77342 
77333 
77357 
77394 
77379 
77381 
77367 
77302 
77279 
77299 
77324 
77341 
77335 
77316 
77302 
77327 
77321 
77336 
77344 
77386 
77374 
77346 
77377 
77360 
77314 
77307 
77291 
77299 
77308 
77316 
77320 
77315 
77278 
77239 
77215 
77187 
77177 
77179 
77159 
77163 
77167 
77149 
77121 
77089 
77048 
77052 
77096 
77065 
77026 
77038 
77054 
77035 
77018 
76957 
76915 
76942 
76995 
76956 
76925 
76901 
76899 
76906 
76898 
76923 
76970 
76962 
76961 
76988 
76966 
76945 
76931 
76886 
76914 
76911 
76887 
76852 
76853 
76853 
76846 
76820 
76832 
76849 
76842 
76828 
76824 
76794 
76784 
76751 
76724 
76749 
76761 
76797 
76831 
76855 
76841 
76828 
76845 
76875 
76878 
76885 
76892 
76857 
76866 
76892 
76888 
76864 
76853 
76859 
76838 
76833 
76857 
76909 
76934 
76948 
76983 
76977 
76939 
76921 
76916 
76915 
76926 
76974 
77044 
77044 
77028 
77042 
77066 
77113 
77120 
77132 
77152 
77135 
77140 
77180 
77190 
77179 
77143 
77183 
77219 
77232 
77237 
77232 
77252 
77242 
77248 
77257 
77275 
77247 
77234 
77247 
77269 
77258 
77291 
77340 
77345 
77338 
77324 
77312 
77361 
77365 
77337 
77380 
77394 
77392 
77402 
77437 
77435 
77435 
77426 
77452 
77468 
77443 
77411 
77401 
77402 
77426 
77469 
77496 
77488 
77489 
77479 
77455 
77440 
77440 
77495 
77513 
77499 
77482 
77472 
77447 
77452 
77470 
77513 
77534 
77531 
77516 
77523 
77510 
77502 
77499 
77467 
77422 
77406 
77433 
77469 
77471 
77483 
77472 
77504 
77522 
77526 
77541 
77556 
77575 
77566 
77597 
77646 
77608 
77573 
77554 
77559 
77573 
77570 
77556 
77572 
77591 
77611 
77606 
77617 
77628 
77609 
77578 
77606 
77629 
77620 
77572 
77554 
77523 
77517 
77518 
77519 
77548 
77539 
77499 
77508 
77466 
77432 
77399 
77344 
77388 
77388 
77363 
77358 
77343 
77319 
77283 
77276 
77313 
77285 
77230 
77168 
77118 
77085 
77056 
77035 
77005 
77033 
77076 
77036 
77004 
77021 
76999 
76974 
76950 
76935 
76935 
76948 
76976 
76972 
76919 
76901 
76877 
76886 
76905 
76907 
76900 
76871 
76824 
76808 
76775 
76768 
76809 
76849 
76867 
76860 
76833 
76826 
76778 
76709 
76692 
76749 
76807 
76828 
76809 
76817 
76816 
76798 
76861 
76883 
76856 
76828 
76797 
76768 
76762 
76800 
76811 
76809 
76832 
76796 
76772 
76769 
76760 
76751 
76782 
76801 
76808 
76800 
76818 
76844 
76884 
76909 
76934 
76942 
76947 
76946 
76940 
76940 
76972 
76932 
76934 
76961 
76974 
76947 
76984 
77067 
77112 
77135 
77087 
77084 
77104 
77157 
77188 
77152 
77145 
77175 
77180 
77131 
77118 
77157 
77213 
77214 
77189 
77154 
77186 
77233 
77266 
77272 
77264 
77238 
77227 
77248 
77272 
77267 
77231 
77232 
77272 
77272 
77263 
77299 
77326 
77328 
77344 
77335 
77337 
77386 
77453 
77463 
77438 
77459 
77475 
77484 
77516 
77546 
77508 
77491 
77479 
77480 
77522 
77578 
77647 
77647 
77633 
77627 
77617 
77622 
77633 
77643 
77648 
77651 
77675 
77677 
77705 
77700 
77679 
77641 
77622 
77616 
77662 
77678 
77664 
77674 
77734 
77741 
77729 
77755 
77789 
77801 
77806 
77783 
77782 
77801 
77808 
77788 
77799 
77794 
77786 
77815 
77826 
77833 
77830 
77811 
77806 
77803 
77801 
77811 
77857 
77870 
77872 
77852 
77868 
77846 
77836 
77864 
77851 
77829 
77826 
77811 
77801 
77800 
77814 
77782 
77741 
77695 
77676 
77666 
77661 
77676 
77663 
77596 
77554 
77557 
77557 
77522 
77516 
77508 
77509 
77482 
77463 
77444 
77442 
77433 
77356 
77309 
77300 
77274 
77232 
77238 
77300 
77306 
77295 
77297 
77296 
77290 
77286 
77294 
77300 
77317 
77297 
77280 
77249 
77210 
77195 
77204 
77202 
77271 
77298 
77260 
77219 
77223 
77220 
77238 
77266 
77276 
77215 
77165 
77167 
77203 
77215 
77193 
77183 
77192 
77211 
77214 
77218 
77232 
77241 
77240 
77241 
77258 
77277 
77236 
77230 
77243 
77248 
77263 
77283 
77313 
77320 
77294 
77315 
77355 
77371 
77367 
77342 
77333 
77324 
77311 
77325 
77329 
77326 
77413 
77486 
77492 
77501 
77523 
77548 
77573 
77594 
77644 
77671 
77650 
77644 
77660 
77654 
77640 
77648 
77687 
77733 
77758 
77784 
77821 
77815 
77859 
77873 
77845 
77832 
77812 
77817 
77864 
77903 
77921 
77929 
77973 
78005 
77997 
78004 
78015 
78068 
78076 
78066 
78058 
78070 
78091 
78103 
78129 
78153 
78157 
78148 
78131 
78144 
78139 
78144 
78145 
78146 
78203 
78257 
78252 
78217 
78208 
78240 
78265 
78323 
78349 
78365 
78367 
78395 
78388 
78346 
78312 
78337 
78341 
78352 
78369 
78387 
78356 
78325 
78345 
78365 
78352 
78336 
78351 
78399 
78423 
78430 
78435 
78418 
78399 
78414 
78440 
78468 
78448 
78423 
78399 
78392 
78434 
78478 
78479 
78463 
78441 
78442 
78455 
78463 
78438 
78451 
78473 
78448 
78413 
78396 
78379 
78369 
78323 
78303 
78326 
78346 
78332 
78281 
78227 
78181 
78128 
78061 
78027 
78004 
77983 
77972 
77945 
77922 
77889 
77886 
77858 
77845 
77834 
77795 
77772 
77767 
77772 
77764 
77718 
77648 
77612 
77617 
77620 
77624 
77623 
77601 
77587 
77547 
77497 
77494 
77483 
77454 
77427 
77397 
77405 
77424 
77456 
77471 
77440 
77446 
77464 
77452 
77462 
77496 
77514 
77522 
77539 
77541 
77505 
77510 
77530 
77536 
77506 
77494 
77487 
77520 
77563 
77543 
77517 
77517 
77511 
77535 
77547 
77544 
77586 
77595 
77610 
77613 
77622 
77622 
77600 
77582 
77600 
77629 
77639 
77687 
77755 
77756 
77711 
77702 
77694 
77690 
77705 
77734 
77778 
77794 
77769 
77748 
77748 
77750 
77731 
77764 
77809 
77840 
77855 
77854 
77872 
77896 
77884 
77913 
77932 
77940 
77972 
78006 
78043 
78040 
78032 
78018 
78010 
78025 
78061 
78077 
78087 
78103 
78106 
78089 
78085 
78100 
78097 
78124 
78173 
78206 
78189 
78165 
78162 
78195 
78171 
78182 
78234 
78236 
78229 
78234 
78216 
78240 
78236 
78254 
78323 
78356 
78346 
78367 
78348 
78337 
78387 
78407 
78380 
78392 
78421 
78420 
78411 
78418 
78424 
78400 
78382 
78430 
78471 
78485 
78460 
78439 
78458 
78525 
78554 
78555 
78531 
78531 
78530 
78530 
78529 
78506 
78530 
78527 
78523 
78547 
78563 
78584 
78622 
78648 
78633 
78616 
78585 
78609 
78612 
78612 
78618 
78619 
78626 
78617 
78591 
78613 
78618 
78604 
78641 
78654 
78634 
78642 
78664 
78682 
78656 
78601 
78585 
78585 
78517 
78472 
78480 
78480 
78457 
78407 
78371 
78345 
78315 
78276 
78225 
78171 
78106 
78051 
77985 
77968 
77989 
78002 
77966 
77926 
77903 
77869 
77854 
77871 
77827 
77806 
77789 
77796 
77762 
77720 
77738 
77750 
77744 
77745 
77704 
77692 
77696 
77700 
77683 
77675 
77678 
77709 
77748 
77717 
77725 
77733 
77717 
77731 
77757 
77787 
77750 
77719 
77758 
77800 
77795 
77782 
77770 
77760 
77750 
77761 
77791 
77806 
77815 
77835 
77855 
77864 
77880 
77912 
77914 
77902 
77911 
77919 
77961 
77984 
77991 
77969 
77975 
78000 
77992 
78010 
78023 
78038 
78045 
78050 
78068 
78099 
78167 
78155 
78127 
78130 
78131 
78174 
78204 
78220 
78229 
78245 
78250 
78277 
78321 
78309 
78325 
78364 
78405 
78423 
78421 
78421 
78420 
78400 
78425 
78467 
78480 
78473 
78483 
78510 
78513 
78556 
78586 
78595 
78619 
78628 
78631 
78643 
78668 
78705 
78711 
78685 
78665 
78697 
78720 
78706 
78702 
78771 
78818 
78829 
78850 
78807 
78771 
78781 
78806 
78853 
78849 
78824 
78822 
78854 
78887 
78867 
78821 
78864 
78874 
78862 
78888 
78878 
78927 
78995 
79056 
79058 
79017 
79015 
79000 
78976 
78959 
78969 
78977 
78964 
78932 
78944 
78967 
78965 
78956 
78946 
78949 
78963 
78975 
78978 
78969 
78951 
78939 
78938 
78925 
78959 
78951 
78933 
78957 
78973 
78924 
78894 
78875 
78860 
78864 
78873 
78869 
78865 
78843 
78816 
78802 
78800 
78843 
78906 
78901 
78880 
78886 
78911 
78901 
78879 
78848 
78843 
78834 
78798 
78783 
78797 
78781 
78742 
78706 
78746 
78774 
78781 
78752 
78715 
78706 
78678 
78651 
78640 
78614 
78558 
78509 
78467 
78407 
78342 
78312 
78279 
78268 
78249 
78162 
78089 
78057 
78020 
78024 
77990 
77944 
77905 
77867 
77846 
77840 
77824 
77815 
77836 
77794 
77758 
77734 
77727 
77721 
77701 
77724 
77704 
77653 
77653 
77655 
77613 
77614 
77616 
77633 
77629 
77565 
77538 
77533 
77547 
77610 
77657 
77661 
77634 
77623 
77658 
77660 
77647 
77666 
77676 
77677 
77658 
77676 
77673 
77668 
77695 
77767 
77758 
77761 
77760 
77751 
77781 
77786 
77780 
77819 
77855 
77897 
77899 
77916 
77943 
77950 
77980 
77992 
77969 
77952 
77934 
77918 
77924 
77943 
78004 
78010 
78023 
78032 
78060 
78090 
78086 
78086 
78117 
78119 
78110 
78151 
78188 
78201 
78256 
78316 
78352 
78350 
78297 
78311 
78364 
78398 
78417 
78414 
78422 
78475 
78520 
78528 
78532 
78528 
78509 
78501 
78495 
78532 
78588 
78599 
78626 
78657 
78706 
78720 
78732 
78744 
78727 
78788 
78864 
78898 
78893 
78860 
78864 
78887 
78917 
78919 
78930 
78946 
78929 
78949 
78976 
78979 
78998 
79012 
79005 
79013 
78990 
78957 
78957 
78992 
79012 
79038 
79024 
79062 
79110 
79118 
79107 
79146 
79148 
79156 
79155 
79173 
79179 
79169 
79185 
79190 
79176 
79168 
79211 
79229 
79233 
79263 
79299 
79302 
79288 
79266 
79256 
79227 
79206 
79202 
79207 
79255 
79240 
79263 
79280 
79302 
79311 
79318 
79335 
79332 
79349 
79349 
79311 
79319 
79330 
79333 
79350 
79348 
79326 
79344 
79357 
79319 
79298 
79292 
79302 
79370 
79354 
79300 
79274 
79238 
79237 
79196 
79163 
79170 
79110 
79088 
79096 
79077 
79038 
78976 
78947 
78889 
78832 
78795 
78779 
78802 
78795 
78772 
78760 
78724 
78699 
78688 
78652 
78596 
78563 
78536 
78473 
78418 
78381 
78335 
78342 
78357 
78375 
78424 
78388 
78363 
78386 
78409 
78401 
78390 
78371 
78354 
78339 
78355 
78396 
78393 
78403 
78399 
78407 
78475 
78526 
78533 
78513 
78458 
78462 
78478 
78505 
78538 
78560 
78551 
78525 
78545 
78558 
78584 
78633 
78671 
78704 
78720 
78730 
78718 
78720 
78728 
78794 
78862 
78883 
78857 
78853 
78878 
78903 
78873 
78876 
78917 
78915 
78920 
78905 
78924 
78945 
79002 
79059 
79072 
79104 
79166 
79223 
79250 
79261 
79312 
79357 
79366 
79374 
79391 
79430 
79487 
79562 
79573 
79559 
79561 
79569 
79610 
79641 
79681 
79727 
79772 
79774 
79775 
79789 
79831 
79881 
79903 
79918 
79953 
79993 
80024 
80060 
80081 
80091 
80086 
80082 
80097 
80135 
80165 
80165 
80167 
80181 
80193 
80224 
80231 
80253 
80272 
80275 
80269 
80247 
80233 
80212 
80236 
80237 
80279 
80314 
80333 
80325 
80322 
80298 
80289 
80299 
80288 
80240 
80255 
80279 
80283 
80291 
80274 
80269 
80305 
80355 
80349 
80357 
80350 
80351 
80374 
80400 
80357 
80333 
80330 
80333 
80342 
80337 
80332 
80382 
80404 
80371 
80348 
80364 
80393 
80418 
80396 
80371 
80368 
80350 
80370 
80347 
80302 
80273 
80266 
80281 
80332 
80364 
80339 
80292 
80291 
80291 
80242 
80214 
80205 
80226 
80214 
80179 
80101 
80039 
79959 
79855 
79785 
79760 
79729 
79671 
79622 
79567 
79493 
79440 
79374 
79330 
79285 
79228 
79200 
79180 
79134 
79063 
78973 
78924 
78876 
78841 
78814 
78738 
78721 
78722 
78740 
78700 
78658 
78605 
78549 
78494 
78491 
78506 
78486 
78449 
78467 
78457 
78447 
78431 
78416 
78394 
78361 
78319 
78317 
78351 
78368 
78372 
78336 
78338 
78356 
78399 
78416 
78427 
78447 
78441 
78418 
78378 
78352 
78371 
78462 
78482 
78465 
78456 
78433 
78418 
78415 
78391 
78357 
78361 
78397 
78394 
78361 
78330 
78358 
78363 
78337 
78304 
78300 
78279 
78271 
78298 
78324 
78289 
78270 
78268 
78238 
78208 
78207 
78200 
78222 
78244 
78268 
78302 
78308 
78309 
78336 
78367 
78397 
78403 
78392 
78383 
78377 
78357 
78375 
78385 
78358 
78357 
78376 
78368 
78355 
78359 
78344 
78333 
78366 
78424 
78430 
78411 
78416 
78392 
78384 
78349 
78311 
78335 
78415 
78439 
78426 
78428 
78423 
78409 
78405 
78429 
78458 
78476 
78468 
78449 
78447 
78451 
78415 
78380 
78411 
78452 
78478 
78489 
78515 
78505 
78459 
78468 
78470 
78466 
78431 
78424 
78455 
78447 
78442 
78460 
78521 
78565 
78573 
78585 
78602 
78624 
78580 
78527 
78523 
78521 
78510 
78504 
78503 
78499 
78495 
78517 
78570 
78581 
78579 
78578 
78584 
78588 
78566 
78548 
78551 
78545 
78493 
78478 
78510 
78514 
78480 
78467 
78474 
78491 
78508 
78444 
78390 
78394 
78420 
78447 
78460 
78439 
78418 
78403 
78361 
78317 
78234 
78193 
78144 
78075 
78044 
78050 
78002 
77922 
77887 
77847 
77808 
77780 
77739 
77683 
77641 
77622 
77591 
77531 
77441 
77365 
77298 
77276 
77273 
77256 
77216 
77211 
77217 
77222 
77219 
77208 
77179 
77107 
77070 
77083 
77094 
77080 
77043 
77002 
76989 
77037 
77041 
77032 
77012 
77017 
77002 
76996 
77012 
76998 
76974 
76961 
76956 
77010 
77038 
77070 
77117 
77142 
77143 
77141 
77147 
77204 
77244 
77261 
77284 
77256 
77220 
77220 
77292 
77353 
77354 
77352 
77357 
77382 
77402 
77377 
77374 
77374 
77413 
77466 
77496 
77504 
77471 
77452 
77446 
77463 
77497 
77503 
77505 
77562 
77599 
77629 
77663 
77679 
77686 
77694 
77706 
77723 
77719 
77731 
77787 
77827 
77820 
77804 
77810 
77841 
77857 
77871 
77859 
77842 
77828 
77850 
77868 
77875 
77909 
77943 
78013 
78024 
78035 
78073 
78115 
78138 
78161 
78226 
78235 
78219 
78230 
78243 
78275 
78304 
78329 
78355 
78353 
78339 
78359 
78375 
78395 
78442 
78456 
78466 
78454 
78495 
78540 
78548 
78563 
78577 
78564 
78573 
78568 
78568 
78579 
78606 
78653 
78704 
78704 
78726 
78714 
78707 
78689 
78705 
78732 
78757 
78741 
78757 
78798 
78820 
78814 
78805 
78788 
78783 
78779 
78796 
78801 
78811 
78817 
78849 
78868 
78864 
78831 
78820 
78817 
78831 
78831 
78826 
78815 
78795 
78804 
78810 
78796 
78798 
78791 
78774 
78758 
78743 
78732 
78689 
78695 
78683 
78666 
78686 
78662 
78656 
78636 
78631 
78587 
78534 
78498 
78430 
78379 
78355 
78311 
78281 
78263 
78222 
78154 
78131 
78106 
78069 
78032 
78017 
77987 
77904 
77853 
77813 
77760 
77734 
77690 
77669 
77648 
77652 
77649 
77631 
77580 
77556 
77569 
77545 
77529 
77492 
77474 
77459 
77397 
77384 
77357 
77338 
77339 
77356 
77344 
77318 
77298 
77290 
77307 
77326 
77279 
77287 
77272 
77255 
77248 
77261 
77260 
77245 
77221 
77245 
77255 
77277 
77276 
77263 
77282 
77263 
77205 
77182 
77176 
77215 
77232 
77199 
77177 
77182 
77206 
77251 
77305 
77368 
77346 
77311 
77306 
77283 
77264 
77234 
77222 
77246 
77293 
77313 
77313 
77296 
77340 
77341 
77330 
77347 
77341 
77332 
77364 
77403 
77405 
77413 
77427 
77487 
77525 
77525 
77522 
77533 
77520 
77548 
77575 
77582 
77580 
77587 
77587 
77582 
77603 
77631 
77661 
77706 
77705 
77744 
77785 
77805 
77819 
77831 
77817 
77818 
77850 
77893 
77918 
77982 
77993 
77995 
77999 
78022 
78017 
78030 
78056 
78082 
78068 
78061 
78066 
78066 
78047 
78053 
78091 
78111 
78109 
78105 
78142 
78171 
78190 
78210 
78261 
78261 
78224 
78234 
78240 
78225 
78245 
78240 
78288 
78302 
78286 
78267 
78256 
78267 
78273 
78255 
78270 
78311 
78316 
78323 
78312 
78305 
78286 
78279 
78301 
78341 
78343 
78323 
78349 
78365 
78365 
78354 
78368 
78360 
78338 
78340 
78353 
78348 
78333 
78309 
78265 
78207 
78180 
78195 
78208 
78202 
78183 
78205 
78250 
78250 
78199 
78161 
78124 
78108 
78077 
78033 
77992 
77973 
77939 
77898 
77870 
77829 
77779 
77727 
77682 
77662 
77646 
77599 
77565 
77529 
77514 
77487 
77426 
77362 
77315 
77317 
77288 
77232 
77203 
77178 
77115 
77028 
76944 
76915 
76888 
76821 
76787 
76799 
76801 
76787 
76731 
76690 
76626 
76601 
76611 
76634 
76593 
76546 
76498 
76465 
76472 
76481 
76459 
76448 
76446 
76425 
76431 
76437 
76428 
76405 
76394 
76351 
76358 
76412 
76425 
76417 
76387 
76402 
76424 
76429 
76442 
76485 
76508 
76500 
76461 
76446 
76436 
76455 
76466 
76477 
76497 
76496 
76480 
76481 
76488 
76460 
76455 
76514 
76590 
76613 
76579 
76594 
76616 
76649 
76682 
76709 
76724 
76737 
76758 
76791 
76823 
76840 
76874 
76947 
76983 
76952 
76933 
76968 
77007 
77031 
77085 
77132 
77139 
77164 
77224 
77279 
77312 
77343 
77321 
77312 
77354 
77395 
77413 
77436 
77464 
77467 
77495 
77518 
77567 
77643 
77706 
77717 
77749 
77767 
77775 
77800 
77843 
77938 
77978 
77954 
77943 
77964 
77970 
77993 
78060 
78142 
78139 
78115 
78098 
78118 
78165 
78191 
78210 
78267 
78281 
78263 
78279 
78269 
78244 
78247 
78257 
78280 
78272 
78243 
78217 
78204 
78217 
78244 
78268 
78292 
78303 
78305 
78290 
78246 
78252 
78267 
78272 
78302 
78328 
78345 
78348 
78343 
78296 
78263 
78271 
78317 
78328 
78307 
78273 
78254 
78264 
78275 
78276 
78325 
78343 
78352 
78382 
78416 
78395 
78380 
78333 
78323 
78338 
78317 
78290 
78300 
78329 
78317 
78305 
78289 
78290 
78275 
78274 
78265 
78280 
78304 
78314 
78312 
78327 
78337 
78351 
78337 
78306 
78291 
78322 
78330 
78322 
78296 
78264 
78256 
78263 
78251 
78249 
78253 
78252 
78194 
78169 
78118 
78079 
78015 
77950 
77879 
77815 
77750 
77706 
77685 
77663 
77584 
77521 
77480 
77452 
77413 
77349 
77307 
77267 
77285 
77240 
77208 
77163 
77071 
77028 
77002 
76952 
76927 
76893 
76894 
76889 
76891 
76882 
76829 
76781 
76762 
76749 
76746 
76734 
76691 
76670 
76668 
76682 
76698 
76673 
76682 
76740 
76758 
76742 
76714 
76702 
76714 
76729 
76728 
76731 
76773 
76773 
76740 
76726 
76735 
76752 
76773 
76788 
76805 
76811 
76861 
76879 
76852 
76863 
76861 
76856 
76875 
76855 
76860 
76858 
76843 
76822 
76837 
76868 
76866 
76838 
76824 
76799 
76782 
76798 
76842 
76863 
76877 
76904 
76936 
76958 
76971 
76943 
76952 
76951 
76938 
76945 
76950 
76975 
76978 
76969 
76974 
76979 
77000 
77060 
77077 
77091 
77100 
77104 
77092 
77089 
77090 
77130 
77161 
77193 
77202 
77206 
77217 
77229 
77241 
77275 
77325 
77322 
77304 
77309 
77310 
77324 
77358 
77411 
77419 
77399 
77405 
77400 
77421 
77441 
77431 
77430 
77423 
77480 
77501 
77521 
77584 
77621 
77654 
77698 
77705 
77721 
77742 
77729 
77716 
77707 
77753 
77767 
77785 
77818 
77815 
77796 
77785 
77829 
77885 
77876 
77849 
77855 
77862 
77856 
77855 
77895 
77905 
77884 
77894 
77914 
77981 
78029 
78037 
78022 
77966 
77933 
77948 
77969 
77988 
77993 
78009 
78046 
78046 
78047 
78093 
78112 
78138 
78160 
78137 
78084 
78103 
78111 
78085 
78046 
78063 
78103 
78112 
78096 
78115 
78144 
78155 
78128 
78123 
78119 
78082 
78096 
78089 
78098 
78118 
78154 
78158 
78127 
78115 
78114 
78064 
78028 
78017 
77994 
77970 
77923 
77866 
77783 
77709 
77677 
77643 
77615 
77539 
77441 
77348 
77293 
77262 
77226 
77188 
77159 
77118 
77044 
76979 
76950 
76882 
76807 
76787 
76756 
76688 
76618 
76573 
76560 
76527 
76505 
76448 
76397 
76384 
76385 
76339 
76300 
76303 
76284 
76261 
76252 
76221 
76181 
76124 
76116 
76126 
76114 
76083 
76079 
76105 
76118 
76073 
76025 
76025 
75989 
76005 
76014 
76009 
76031 
76065 
76086 
76094 
76109 
76081 
76033 
76006 
75995 
76037 
76107 
76121 
76099 
76042 
76012 
76055 
76087 
76090 
76120 
76133 
76108 
76133 
76151 
76160 
76159 
76155 
76196 
76246 
76232 
76215 
76210 
76191 
76188 
76218 
76239 
76291 
76342 
76349 
76345 
76356 
76385 
76401 
76416 
76484 
76546 
76550 
76562 
76572 
76593 
76614 
76589 
76634 
76692 
76724 
76733 
76779 
76798 
76810 
76837 
76869 
76889 
76892 
76887 
76870 
76884 
76918 
76950 
76982 
76960 
76952 
76954 
76990 
77052 
77084 
77113 
77089 
77106 
77141 
77189 
77208 
77202 
77233 
77237 
77231 
77253 
77237 
77224 
77259 
77279 
77278 
77315 
77349 
77334 
77300 
77311 
77330 
77328 
77321 
77341 
77355 
77350 
77382 
77399 
77428 
77481 
77479 
77478 
77460 
77469 
77516 
77557 
77557 
77569 
77588 
77609 
77606 
77609 
77652 
77686 
77716 
77737 
77728 
77756 
77794 
77783 
77783 
77786 
77782 
77795 
77808 
77774 
77764 
77784 
77786 
77787 
77805 
77806 
77826 
77785 
77730 
77732 
77726 
77739 
77711 
77711 
77720 
77745 
77715 
77704 
77692 
77708 
77773 
77764 
77768 
77747 
77690 
77689 
77673 
77646 
77652 
77631 
77575 
77509 
77429 
77381 
77317 
77262 
77248 
77225 
77192 
77144 
77133 
77121 
77074 
77067 
77039 
76944 
76843 
76759 
76691 
76686 
76677 
76656 
76634 
76623 
76622 
76607 
76601 
76596 
76587 
76566 
76561 
76558 
76503 
76445 
76445 
76445 
76444 
76436 
76449 
76484 
76495 
76499 
76506 
76540 
76534 
76509 
76554 
76584 
76568 
76590 
76616 
76677 
76707 
76690 
76694 
76744 
76757 
76793 
76831 
76837 
76849 
76844 
76855 
76875 
76930 
76969 
76963 
76974 
77005 
77010 
76987 
77011 
77076 
77059 
77038 
77058 
77087 
77123 
77136 
77147 
77195 
77186 
77158 
77107 
77126 
77155 
77150 
77172 
77235 
77289 
77285 
77248 
77251 
77253 
77252 
77284 
77345 
77378 
77374 
77362 
77360 
77378 
77355 
77349 
77401 
77394 
77396 
77443 
77488 
77481 
77492 
77480 
77452 
77454 
77472 
77468 
77477 
77476 
77470 
77483 
77474 
77485 
77504 
77533 
77550 
77555 
77560 
77517 
77468 
77465 
77509 
77549 
77531 
77508 
77467 
77488 
77513 
77572 
77562 
77545 
77543 
77544 
77499 
77455 
77441 
77460 
77481 
77500 
77524 
77515 
77534 
77508 
77482 
77499 
77545 
77523 
77549 
77588 
77575 
77544 
77544 
77593 
77626 
77640 
77633 
77659 
77699 
77715 
77665 
77670 
77731 
77739 
77725 
77732 
77784 
77816 
77781 
77768 
77776 
77786 
77795 
77826 
77839 
77865 
77910 
77920 
77893 
77890 
77894 
77841 
77873 
77901 
77891 
77910 
77915 
77917 
77911 
77897 
77895 
77904 
77897 
77919 
77924 
77893 
77898 
77898 
77894 
77873 
77851 
77837 
77816 
77789 
77778 
77762 
77714 
77700 
77680 
77621 
77569 
77531 
77470 
77419 
77361 
77309 
77291 
77269 
77206 
77172 
77155 
77106 
77054 
76990 
76958 
76919 
76883 
76892 
76889 
76849 
76788 
76724 
76709 
76699 
76645 
76631 
76615 
76596 
76595 
76588 
76599 
76585 
76576 
76576 
76579 
76579 
76552 
76540 
76546 
76532 
76541 
76522 
76555 
76555 
76561 
76589 
76589 
76561 
76573 
76606 
76648 
76682 
76700 
76695 
76713 
76738 
76711 
76725 
76775 
76794 
76785 
76788 
76815 
76848 
76872 
76873 
76933 
76952 
76973 
76994 
77012 
77041 
77033 
77028 
77058 
77061 
77042 
77072 
77102 
77133 
77165 
77201 
77222 
77187 
77167 
77155 
77171 
77204 
77226 
77258 
77277 
77277 
77268 
77266 
77295 
77334 
77357 
77379 
77387 
77365 
77396 
77419 
77418 
77391 
77365 
77414 
77455 
77473 
77511 
77531 
77494 
77512 
77535 
77596 
77624 
77618 
77614 
77635 
77653 
77669 
77679 
77697 
77696 
77701 
77708 
77724 
77742 
77769 
77767 
77749 
77718 
77721 
77711 
77726 
77735 
77735 
77745 
77748 
77722 
77713 
77681 
77677 
77671 
77672 
77701 
77720 
77710 
77718 
77737 
77752 
77766 
77809 
77826 
77828 
77832 
77814 
77782 
77771 
77744 
77728 
77739 
77742 
77738 
77703 
77660 
77669 
77680 
77697 
77745 
77752 
77755 
77745 
77736 
77745 
77735 
77730 
77741 
77706 
77707 
77724 
77757 
77749 
77727 
77719 
77751 
77755 
77743 
77758 
77767 
77729 
77693 
77662 
77667 
77651 
77586 
77542 
77492 
77452 
77412 
77371 
77305 
77278 
77278 
77273 
77246 
77199 
77140 
77083 
77072 
77055 
77047 
77017 
76953 
76900 
76835 
76788 
76744 
76716 
76724 
76692 
76672 
76668 
76642 
76589 
76547 
76532 
76506 
76448 
76417 
76414 
76459 
76481 
76494 
76464 
76455 
76463 
76461 
76478 
76526 
76574 
76574 
76551 
76515 
76507 
76486 
76538 
76594 
76568 
76578 
76608 
76615 
76586 
76579 
76609 
76660 
76675 
76643 
76626 
76631 
76628 
76658 
76667 
76691 
76716 
76721 
76746 
76748 
76767 
76774 
76750 
76728 
76739 
76762 
76766 
76776 
76760 
76757 
76773 
76802 
76793 
76774 
76811 
76820 
76811 
76794 
76806 
76846 
76841 
76842 
76883 
76884 
76854 
76893 
76989 
77016 
77001 
76999 
77019 
77067 
77057 
77022 
77032 
77087 
77142 
77130 
77155 
77191 
77183 
77182 
77226 
77231 
77225 
77230 
77254 
77292 
77307 
77358 
77356 
77364 
77382 
77396 
77403 
77413 
77445 
77492 
77490 
77492 
77505 
77512 
77495 
77496 
77517 
77534 
77530 
77516 
77505 
77555 
77572 
77587 
77592 
77561 
77534 
77528 
77520 
77547 
77575 
77612 
77585 
77584 
77616 
77634 
77642 
77624 
77625 
77627 
77612 
77603 
77624 
77623 
77632 
77694 
77699 
77706 
77700 
77693 
77683 
77682 
77712 
77741 
77707 
77658 
77650 
77659 
77629 
77648 
77668 
77668 
77662 
77684 
77665 
77663 
77683 
77682 
77696 
77731 
77728 
77750 
77768 
77762 
77754 
77738 
77729 
77724 
77729 
77734 
77668 
77628 
77639 
77658 
77617 
77572 
77535 
77464 
77452 
77414 
77373 
77343 
77282 
77225 
77162 
77110 
77085 
77064 
77041 
77009 
76971 
76920 
76854 
76824 
76837 
76820 
76754 
76706 
76708 
76665 
76620 
76578 
76600 
76632 
76646 
76655 
76645 
76632 
76592 
76579 
76590 
76555 
76561 
76593 
76593 
76577 
76577 
76567 
76591 
76610 
76612 
76620 
76623 
76622 
76624 
76625 
76625 
76616 
76601 
76617 
76634 
76681 
76687 
76697 
76693 
76715 
76734 
76757 
76780 
76801 
76822 
76852 
76849 
76861 
76868 
76834 
76841 
76856 
76859 
76883 
76906 
76914 
76923 
76950 
76961 
76987 
76991 
76994 
77035 
77056 
77055 
77091 
77132 
77149 
77144 
77182 
77240 
77270 
77291 
77292 
77287 
77272 
77257 
77286 
77327 
77338 
77324 
77330 
77341 
77337 
77312 
77291 
77322 
77385 
77425 
77419 
77399 
77393 
77390 
77388 
77396 
77391 
77400 
77427 
77436 
77451 
77474 
77443 
77465 
77496 
77515 
77502 
77483 
77528 
77572 
77591 
77585 
77571 
77538 
77524 
77538 
77578 
77607 
77645 
77641 
77640 
77676 
77733 
77715 
77681 
77683 
77698 
77751 
77786 
77807 
77812 
77820 
77808 
77797 
77795 
77785 
77811 
77798 
77762 
77722 
77734 
77751 
77744 
77737 
77746 
77776 
77781 
77782 
77815 
77823 
77837 
77839 
77833 
77822 
77804 
77793 
77809 
77810 
77771 
77736 
77726 
77730 
77746 
77723 
77722 
77746 
77735 
77704 
77716 
77739 
77735 
77734 
77746 
77780 
77789 
77778 
77771 
77746 
77761 
77795 
77804 
77830 
77842 
77807 
77785 
77767 
77745 
77676 
77624 
77610 
77623 
77595 
77556 
77526 
77473 
77424 
77393 
77398 
77454 
77450 
77365 
77320 
77331 
77307 
77249 
77202 
77171 
77156 
77174 
77170 
77110 
77060 
77084 
77087 
77079 
77082 
77076 
77051 
77023 
76987 
76975 
76973 
76959 
76969 
76984 
76960 
76979 
77015 
77010 
76960 
76960 
76993 
77005 
77022 
77023 
77006 
77019 
77008 
76972 
76964 
76993 
77033 
77023 
76998 
77005 
77000 
76991 
77014 
77030 
77059 
77063 
77080 
77068 
77047 
77055 
77078 
77095 
77132 
77176 
77161 
77141 
77135 
77195 
77251 
77216 
77179 
77135 
77087 
77090 
77126 
77145 
77187 
77248 
77277 
77285 
77266 
77253 
77264 
77339 
77365 
77322 
77344 
77379 
77362 
77379 
77407 
77416 
77388 
77359 
77380 
77430 
77408 
77384 
77406 
77471 
77494 
77503 
77510 
77519 
77519 
77500 
77493 
77532 
77526 
77520 
77527 
77528 
77523 
77544 
77575 
77624 
77589 
77572 
77557 
77560 
77543 
77563 
77614 
77637 
77636 
77675 
77694 
77692 
77670 
77684 
77690 
77690 
77682 
77664 
77658 
77679 
77705 
77743 
77758 
77761 
77779 
77809 
77829 
77811 
77785 
77771 
77743 
77698 
77673 
77704 
77724 
77709 
77710 
77732 
77730 
77740 
77748 
77732 
77733 
77779 
77824 
77825 
77830 
77836 
77803 
77783 
77808 
77813 
77789 
77778 
77786 
77806 
77790 
77767 
77799 
77849 
77882 
77856 
77842 
77813 
77769 
77741 
77738 
77717 
77676 
77651 
77636 
77624 
77637 
77673 
77658 
77644 
77643 
77641 
77637 
77632 
77604 
77560 
77547 
77519 
77528 
77512 
77473 
77437 
77412 
77400 
77415 
77415 
77400 
77407 
77395 
77328 
77281 
77239 
77190 
77144 
77139 
77136 
77106 
77104 
77081 
77081 
77060 
77007 
76981 
76937 
76919 
76964 
77018 
77005 
76990 
77018 
76999 
77012 
77013 
77008 
77043 
77049 
77015 
76991 
76964 
76945 
76951 
76949 
76979 
77057 
77072 
77035 
77029 
77018 
77005 
77012 
77043 
77097 
77083 
77034 
76982 
76972 
76975 
76975 
76989 
77008 
77008 
77030 
77024 
77006 
76992 
77011 
77024 
77043 
77058 
77082 
77080 
77054 
77057 
77049 
77089 
77124 
77109 
77123 
77110 
77095 
77126 
77135 
77149 
77182 
77195 
77202 
77239 
77257 
77296 
77313 
77286 
77229 
77243 
77307 
77350 
77329 
77318 
77369 
77403 
77381 
77361 
77389 
77385 
77353 
77369 
77410 
77468 
77454 
77429 
77425 
77454 
77476 
77472 
77479 
77515 
77519 
77501 
77546 
77581 
77577 
77571 
77600 
77637 
77639 
77624 
77615 
77642 
77644 
77667 
77698 
77719 
77763 
77740 
77725 
77709 
77671 
77643 
77655 
77680 
77695 
77714 
77712 
77676 
77681 
77693 
77712 
77745 
77788 
77790 
77781 
77799 
77804 
77823 
77795 
77804 
77822 
77819 
77817 
77806 
77839 
77902 
77926 
77917 
77914 
77924 
77906 
77835 
77805 
77834 
77846 
77822 
77794 
77796 
77792 
77798 
77808 
77813 
77803 
77819 
77827 
77842 
77840 
77849 
77871 
77855 
77825 
77794 
77733 
77725 
77725 
77752 
77750 
77760 
77788 
77781 
77773 
77755 
77732 
77729 
77749 
77748 
77770 
77769 
77747 
77745 
77737 
77752 
77806 
77853 
77833 
77823 
77809 
77799 
77803 
77814 
77860 
77863 
77854 
77858 
77853 
77882 
77868 
77856 
77897 
77955 
77979 
78006 
78002 
78016 
78017 
77985 
78007 
78075 
78085 
78086 
78096 
78091 
78116 
78113 
78133 
78187 
78225 
78259 
78272 
78252 
78221 
78270 
78355 
78355 
78305 
78271 
78287 
78298 
78313 
78317 
78288 
78283 
78297 
78276 
78252 
78241 
78226 
78225 
78275 
78237 
78184 
78154 
78146 
78143 
78139 
78100 
78056 
78071 
78131 
78139 
78094 
78053 
78039 
78041 
78016 
77954 
77946 
77963 
77942 
77879 
77859 
77860 
77846 
77829 
77835 
77857 
77870 
77856 
77811 
77810 
77806 
77786 
77796 
77845 
77845 
77843 
77891 
77893 
77854 
77834 
77857 
77911 
77932 
77894 
77867 
77860 
77833 
77842 
77858 
77819 
77842 
77835 
77862 
77916 
77938 
77917 
77900 
77883 
77887 
77897 
77903 
77887 
77882 
77876 
77876 
77874 
77896 
77910 
77955 
77983 
77991 
77972 
77907 
77884 
77921 
77924 
77909 
77872 
77880 
77891 
77908 
77912 
77865 
77857 
77885 
77904 
77895 
77917 
77918 
77905 
77903 
77907 
77876 
77846 
77833 
77833 
77816 
77828 
77843 
77822 
77808 
77809 
77754 
77739 
77750 
77769 
77780 
77817 
77840 
77844 
77837 
77839 
77830 
77816 
77830 
77840 
77832 
77834 
77841 
77846 
77868 
77874 
77885 
77895 
77887 
77831 
77825 
77840 
77850 
77829 
77805 
77817 
77870 
77862 
77853 
77850 
77893 
77895 
77845 
77837 
77858 
77891 
77924 
77935 
77930 
77895 
77904 
77862 
77828 
77851 
77844 
77881 
77876 
77854 
77824 
77800 
77787 
77763 
77735 
77719 
77738 
77779 
77783 
77782 
77803 
77786 
77723 
77713 
77770 
77796 
77805 
77808 
77812 
77834 
77868 
77886 
77893 
77845 
77821 
77826 
77847 
77889 
77936 
77978 
77993 
77976 
77951 
77931 
77941 
77923 
77893 
77874 
77894 
77947 
77965 
77969 
77960 
77968 
77999 
77971 
77944 
77929 
77960 
77964 
77907 
77880 
77878 
77848 
77886 
77901 
77910 
77909 
77868 
77842 
77865 
77897 
77931 
77914 
77914 
77911 
77885 
77892 
77869 
77837 
77840 
77866 
77874 
77857 
77825 
77794 
77790 
77765 
77787 
77802 
77793 
77787 
77798 
77783 
77755 
77723 
77696 
77701 
77762 
77776 
77748 
77736 
77750 
77731 
77690 
77686 
77747 
77758 
77742 
77755 
77745 
77732 
77736 
77724 
77723 
77708 
77678 
77684 
77676 
77659 
77659 
77670 
77674 
77722 
77763 
77746 
77695 
77696 
77707 
77681 
77711 
77716 
77746 
77725 
77705 
77723 
77742 
77727 
77761 
77807 
77803 
77799 
77830 
77850 
77855 
77890 
77892 
77875 
77894 
77910 
77916 
77930 
77895 
77880 
77867 
77902 
77896 
77874 
77877 
77898 
77919 
77931 
77916 
77902 
77893 
77893 
77902 
77909 
77922 
77937 
77937 
77926 
77887 
77925 
77948 
77943 
77946 
77975 
77979 
77965 
77951 
77943 
77946 
77985 
78029 
78038 
78051 
78084 
78083 
78026 
78029 
78079 
78111 
78089 
78064 
78055 
78023 
78031 
78012 
77965 
77944 
77949 
77942 
77928 
77924 
77915 
77888 
77860 
77879 
77890 
77893 
77904 
77863 
77837 
77808 
77782 
77772 
77785 
77769 
77754 
77761 
77787 
77793 
77783 
77815 
77833 
77820 
77788 
77781 
77772 
77743 
77730 
77730 
77732 
77704 
77706 
77679 
77675 
77697 
77673 
77658 
77678 
77681 
77701 
77715 
77722 
77738 
77723 
77694 
77684 
77668 
77658 
77654 
77654 
77661 
77669 
77686 
77750 
77742 
77726 
77686 
77673 
77669 
77694 
77722 
77727 
77701 
77666 
77651 
77625 
77643 
77655 
77686 
77718 
77736 
77744 
77718 
77679 
77628 
77620 
77621 
77643 
77660 
77641 
77641 
77640 
77651 
77686 
77738 
77726 
77696 
77690 
77709 
77766 
77792 
77802 
77818 
77783 
77743 
77740 
77763 
77756 
77750 
77760 
77789 
77790 
77798 
77793 
77763 
77755 
77730 
77750 
77784 
77766 
77758 
77785 
77771 
77728 
77708 
77707 
77693 
77666 
77633 
77640 
77664 
77701 
77741 
77734 
77737 
77735 
77741 
77781 
77757 
77777 
77823 
77797 
77768 
77739 
77735 
77761 
77764 
77759 
77725 
77733 
77795 
77811 
77818 
77847 
77850 
77815 
77762 
77720 
77730 
77768 
77822 
77830 
77791 
77768 
77772 
77777 
77812 
77814 
77777 
77766 
77741 
77743 
77734 
77713 
77703 
77720 
77751 
77739 
77734 
77739 
77725 
77712 
77690 
77722 
77724 
77708 
77710 
77727 
77721 
77704 
77714 
77731 
77738 
77736 
77742 
77727 
77722 
77723 
77714 
77714 
77729 
77740 
77722 
77683 
77680 
77722 
77734 
77734 
77753 
77753 
77731 
77719 
77720 
77708 
77712 
77760 
77770 
77794 
77795 
77747 
77726 
77715 
77692 
77746 
77757 
77709 
77713 
77714 
77680 
77678 
77687 
77674 
77668 
77645 
77628 
77624 
77609 
77605 
77537 
77518 
77519 
77519 
77569 
77588 
77586 
77576 
77567 
77591 
77615 
77660 
77672 
77668 
77625 
77583 
77565 
77576 
77562 
77543 
77493 
77481 
77477 
77497 
77534 
77530 
77498 
77525 
77590 
77563 
77564 
77567 
77565 
77595 
77591 
77553 
77553 
77545 
77530 
77512 
77481 
77472 
77461 
77457 
77482 
77538 
77577 
77572 
77574 
77558 
77507 
77452 
77443 
77455 
77473 
77454 
77457 
77476 
77506 
77485 
77484 
77515 
77504 
77492 
77510 
77534 
77560 
77560 
77512 
77504 
77531 
77543 
77533 
77537 
77519 
77527 
77551 
77600 
77645 
77653 
77653 
77648 
77660 
77641 
77588 
77606 
77670 
77681 
77659 
77692 
77729 
77719 
77688 
77711 
77718 
77708 
77680 
77690 
77682 
77663 
77665 
77694 
77754 
77747 
77715 
77718 
77746 
77772 
77789 
77802 
77797 
77798 
77800 
77806 
77837 
77845 
77806 
77795 
77797 
77759 
77755 
77791 
77837 
77852 
77835 
77823 
77801 
77801 
77797 
77842 
77861 
77863 
77902 
77895 
77878 
77873 
77876 
77887 
77904 
77914 
77952 
77977 
77972 
77945 
77910 
77907 
77891 
77912 
77916 
77908 
77878 
77848 
77857 
77900 
77939 
77914 
77893 
77894 
77871 
77879 
77916 
77877 
77892 
77934 
77930 
77933 
77948 
77960 
77926 
77944 
77977 
77960 
77961 
77975 
77977 
77977 
77970 
77987 
78002 
77993 
77967 
77932 
77916 
77911 
77916 
77939 
77935 
77913 
77915 
77932 
77947 
77979 
77995 
77967 
77942 
77936 
77923 
77927 
77916 
77869 
77814 
77819 
77819 
77793 
77837 
77857 
77839 
77876 
77880 
77875 
77878 
77879 
77836 
77836 
77846 
77851 
77868 
77832 
77775 
77775 
77785 
77755 
77741 
77729 
77760 
77759 
77750 
77763 
77777 
77785 
77815 
77820 
77828 
77816 
77803 
77766 
77809 
77837 
77833 
77805 
77754 
77739 
77747 
77757 
77721 
77682 
77657 
77654 
77696 
77731 
77761 
77748 
77729 
77729 
77730 
77722 
77758 
77753 
77740 
77694 
77675 
77672 
77679 
77720 
77738 
77702 
77698 
77714 
77704 
77664 
77584 
77592 
77655 
77734 
77733 
77709 
77701 
77706 
77699 
77703 
77743 
77742 
77704 
77700 
77688 
77682 
77699 
77693 
77653 
77662 
77673 
77664 
77666 
77645 
77629 
77598 
77597 
77607 
77640 
77663 
77660 
77635 
77576 
77587 
77603 
77622 
77602 
77631 
77624 
77560 
77523 
77530 
77516 
77521 
77559 
77598 
77592 
77545 
77505 
77496 
77496 
77463 
77458 
77490 
77560 
77560 
77531 
77489 
77453 
77445 
77444 
77452 
77437 
77414 
77407 
77418 
77400 
77406 
77426 
77433 
77457 
77476 
77471 
77494 
77510 
77531 
77539 
77503 
77442 
77406 
77409 
77422 
77424 
77432 
77409 
77352 
77319 
77370 
77435 
77446 
77454 
77476 
77514 
77573 
77563 
77554 
77534 
77475 
77456 
77473 
77477 
77467 
77476 
77507 
77518 
77537 
77560 
77558 
77549 
77579 
77588 
77597 
77619 
77592 
77573 
77576 
77563 
77564 
77610 
77633 
77642 
77634 
77611 
77600 
77597 
77685 
77727 
77705 
77680 
77679 
77685 
77686 
77697 
77692 
77698 
77662 
77649 
77679 
77663 
77618 
77602 
77613 
77635 
77642 
77650 
77654 
77644 
77670 
77688 
77720 
77716 
77701 
77650 
77634 
77660 
77668 
77664 
77691 
77701 
77683 
77676 
77662 
77617 
77598 
77630 
77651 
77624 
77605 
77586 
77570 
77542 
77553 
77577 
77610 
77665 
77705 
77710 
77698 
77717 
77715 
77701 
77713 
77730 
77707 
77692 
77673 
77647 
77625 
77617 
77644 
77679 
77691 
77699 
77708 
77719 
77694 
77647 
77632 
77624 
77579 
77564 
77558 
77583 
77592 
77600 
77595 
77595 
77604 
77602 
77614 
77614 
77620 
77580 
77546 
77557 
77595 
77596 
77579 
77564 
77560 
77566 
77575 
77573 
77582 
77595 
77586 
77584 
77592 
77611 
77593 
77570 
77591 
77648 
77677 
77674 
77639 
77628 
77582 
77498 
77462 
77500 
77537 
77567 
77612 
77612 
77560 
77543 
77569 
77574 
77609 
77635 
77673 
77685 
77654 
77619 
77614 
77690 
77711 
77699 
77652 
77648 
77660 
77664 
77633 
77626 
77683 
77685 
77632 
77622 
77650 
77621 
77606 
77597 
77618 
77655 
77663 
77691 
77725 
77713 
77696 
77663 
77668 
77701 
77698 
77694 
77671 
77665 
77670 
77671 
77643 
77637 
77683 
77694 
77654 
77614 
77606 
77601 
77616 
77625 
77663 
77625 
77592 
77604 
77599 
77579 
77580 
77636 
77698 
77694 
77681 
77625 
77579 
77565 
77563 
77560 
77593 
77576 
77561 
77549 
77553 
77563 
77561 
77576 
77646 
77703 
77657 
77627 
77645 
77616 
77587 
77588 
77574 
77581 
77581 
77564 
77564 
77564 
77565 
77572 
77584 
77606 
77588 
77575 
77587 
77610 
77610 
77592 
77579 
77561 
77528 
77542 
77556 
77583 
77595 
77584 
77551 
77536 
77519 
77492 
77487 
77484 
77513 
77523 
77539 
77544 
77550 
77523 
77471 
77461 
77423 
77406 
77408 
77433 
77439 
77418 
77432 
77443 
77447 
77449 
77459 
77432 
77420 
77403 
77377 
77375 
77388 
77374 
77362 
77378 
77427 
77465 
77468 
77460 
77460 
77488 
77454 
77404 
77427 
77439 
77429 
77405 
77390 
77402 
77435 
77433 
77403 
77390 
77368 
77389 
77400 
77414 
77422 
77377 
77339 
77321 
77339 
77329 
77325 
77321 
77378 
77384 
77392 
77385 
77417 
77417 
77393 
77407 
77410 
77430 
77443 
77403 
77380 
77397 
77403 
77425 
77452 
77417 
77383 
77416 
77445 
77415 
77395 
77458 
77497 
77491 
77481 
77451 
77446 
77449 
77450 
77462 
77487 
77479 
77467 
77443 
77427 
77442 
77439 
77469 
77493 
77452 
77434 
77443 
77433 
77435 
77449 
77447 
77473 
77501 
77504 
77492 
77512 
77491 
77471 
77512 
77574 
77557 
77511 
77479 
77488 
77478 
77490 
77516 
77546 
77557 
77550 
77548 
77569 
77554 
77542 
77558 
77543 
77528 
77542 
77524 
77485 
77468 
77484 
77556 
77611 
77621 
77607 
77566 
77534 
77537 
77559 
77592 
77606 
77586 
77572 
77577 
77582 
77582 
77623 
77620 
77573 
77532 
77559 
77602 
77561 
77507 
77513 
77599 
77649 
77683 
77723 
77693 
77690 
77670 
77675 
77675 
77685 
77693 
77722 
77729 
77715 
77725 
77770 
77764 
77760 
77781 
77772 
77764 
77781 
77813 
77850 
77827 
77796 
77785 
77806 
77843 
77822 
77804 
77815 
77804 
77805 
77832 
77783 
77792 
77798 
77782 
77777 
77788 
77774 
77764 
77794 
77791 
77789 
77804 
77800 
77788 
77745 
77704 
77717 
77780 
77788 
77788 
77807 
77802 
77749 
77703 
77713 
77744 
77766 
77737 
77650 
77622 
77639 
77653 
77633 
77631 
77647 
77661 
77676 
77644 
77630 
77615 
77624 
77626 
77591 
77612 
77650 
77645 
77656 
77667 
77653 
77655 
77642 
77651 
77678 
77662 
77673 
77696 
77711 
77705 
77700 
77656 
77623 
77613 
77591 
77595 
77599 
77585 
77576 
77565 
77537 
77517 
77533 
77552 
77566 
77541 
77534 
77499 
77468 
77485 
77488 
77540 
77555 
77544 
77563 
77565 
77555 
77507 
77433 
77421 
77482 
77490 
77506 
77517 
77540 
77559 
77546 
77542 
77569 
77575 
77576 
77561 
77553 
77531 
77481 
77504 
77514 
77500 
77486 
77477 
77496 
77545 
77561 
77553 
77546 
77560 
77579 
77560 
77547 
77572 
77579 
77602 
77598 
77578 
77559 
77560 
77590 
77629 
77628 
77581 
77578 
77603 
77574 
77575 
77579 
77609 
77629 
77635 
77637 
77641 
77595 
77556 
77550 
77602 
77643 
77634 
77615 
77617 
77647 
77639 
77626 
77669 
77667 
77646 
77647 
77644 
77632 
77646 
77662 
77670 
77690 
77643 
77590 
77583 
77559 
77565 
77568 
77574 
77594 
77595 
77599 
77557 
77545 
77561 
77601 
77617 
77637 
77645 
77664 
77658 
77637 
77612 
77608 
77605 
77609 
77603 
77608 
77588 
77559 
77561 
77598 
77639 
77647 
77634 
77612 
77607 
77577 
77536 
77524 
77544 
77554 
77589 
77617 
77585 
77595 
77644 
77628 
77586 
77571 
77556 
77522 
77527 
77532 
77516 
77506 
77472 
77482 
77523 
77520 
77515 
77525 
77560 
77551 
77558 
77557 
77533 
77504 
77473 
77478 
77483 
77487 
77511 
77558 
77590 
77593 
77595 
77570 
77515 
77517 
77548 
77539 
77516 
77510 
77511 
77490 
77492 
77516 
77482 
77524 
77561 
77543 
77506 
77465 
77456 
77467 
77461 
77405 
77375 
77389 
77402 
77411 
77393 
77349 
77338 
77374 
77423 
77424 
77421 
77429 
77396 
77400 
77412 
77381 
77349 
77309 
77335 
77329 
77347 
77368 
77389 
77403 
77404 
77392 
77382 
77360 
77349 
77363 
77337 
77311 
77288 
77307 
77367 
77413 
77415 
77436 
77435 
77419 
77377 
77338 
77345 
77376 
77382 
77378 
77380 
77403 
77438 
77473 
77494 
77498 
77468 
77461 
77477 
77480 
77490 
77470 
77470 
77513 
77506 
77482 
77488 
77527 
77563 
77551 
77518 
77498 
77513 
77514 
77501 
77501 
77494 
77492 
77521 
77554 
77551 
77519 
77519 
77525 
77529 
77554 
77576 
77619 
77640 
77618 
77616 
77614 
77570 
77569 
77577 
77564 
77558 
77577 
77556 
77588 
77648 
77639 
77579 
77543 
77518 
77569 
77644 
77720 
77757 
77753 
77714 
77667 
77619 
77605 
77666 
77676 
77645 
77621 
77660 
77691 
77678 
77714 
77709 
77653 
77630 
77630 
77643 
77627 
77617 
77641 
77640 
77628 
77640 
77647 
77643 
77642 
77609 
77598 
77633 
77657 
77654 
77660 
77653 
77656 
77669 
77693 
77721 
77724 
77711 
77717 
77724 
77723 
77692 
77642 
77627 
77620 
77605 
77617 
77610 
77608 
77613 
77618 
77650 
77677 
77675 
77690 
77706 
77739 
77739 
77710 
77709 
77718 
77717 
77699 
77663 
77652 
77610 
77566 
77586 
77619 
77627 
77586 
77604 
77614 
77608 
77636 
77681 
77698 
77657 
77638 
77630 
77624 
77626 
77600 
77586 
77575 
77610 
77607 
77594 
77571 
77552 
77537 
77499 
77471 
77464 
77473 
77457 
77459 
77485 
77483 
77450 
77436 
77474 
77511 
77501 
77493 
77474 
77457 
77432 
77427 
77473 
77471 
77462 
77472 
77478 
77484 
77461 
77430 
77430 
77409 
77405 
77400 
77373 
77386 
77392 
77375 
77348 
77329 
77332 
77372 
77364 
77348 
77366 
77344 
77337 
77392 
77428 
77376 
77330 
77304 
77279 
77301 
77320 
77319 
77338 
77345 
77361 
77367 
77375 
77364 
77372 
77341 
77368 
77424 
77415 
77376 
77361 
77372 
77354 
77335 
77373 
77390 
77394 
77393 
77391 
77379 
77352 
77347 
77376 
77406 
77389 
77395 
77398 
77424 
77444 
77457 
77473 
77480 
77466 
77462 
77469 
77453 
77418 
77422 
77436 
77423 
77449 
77461 
77460 
77454 
77480 
77521 
77538 
77511 
77477 
77462 
77434 
77452 
77485 
77513 
77515 
77479 
77458 
77459 
77497 
77466 
77454 
77472 
77476 
77476 
77492 
77483 
77463 
77458 
77493 
77524 
77534 
77496 
77481 
77495 
77497 
77511 
77526 
77542 
77589 
77612 
77580 
77596 
77611 
77641 
77688 
77730 
77731 
77716 
77705 
77700 
77710 
77722 
77680 
77648 
77649 
77665 
77689 
77704 
77703 
77659 
77643 
77648 
77651 
77696 
77720 
77747 
77753 
77733 
77769 
77804 
77778 
77753 
77789 
77840 
77810 
77778 
77778 
77755 
77777 
77776 
77813 
77811 
77793 
77819 
77851 
77868 
77902 
77888 
77895 
77885 
77840 
77873 
77930 
77915 
77902 
77880 
77849 
77843 
77846 
77851 
77892 
77863 
77870 
77874 
77886 
77896 
77916 
77941 
77931 
77913 
77896 
77915 
77898 
77893 
77838 
77809 
77820 
77805 
77811 
77781 
77766 
77782 
77777 
77777 
77779 
77785 
77789 
77778 
77760 
77756 
77765 
77807 
77804 
77730 
77673 
77632 
77628 
77638 
77648 
77653 
77674 
77680 
77673 
77668 
77653 
77621 
77578 
77548 
77560 
77594 
77597 
77543 
77515 
77495 
77484 
77507 
77501 
77499 
77486 
77520 
77542 
77573 
77580 
77559 
77536 
77507 
77467 
77496 
77552 
77592 
77584 
77515 
77500 
77502 
77498 
77512 
77554 
77600 
77596 
77601 
77592 
77584 
77587 
77620 
77655 
77652 
77645 
77651 
77652 
77642 
77651 
77691 
77731 
77725 
77691 
77690 
77706 
77713 
77721 
77704 
77688 
77688 
77677 
77666 
77700 
77732 
77742 
77742 
77757 
77759 
77738 
77712 
77721 
77727 
77773 
77787 
77800 
77800 
77804 
77822 
77853 
77881 
77931 
77923 
77889 
77910 
77906 
77861 
77842 
77885 
77939 
77953 
77955 
77963 
77941 
77931 
77933 
77942 
77972 
77942 
77910 
77903 
77913 
77900 
77896 
77920 
77909 
77901 
77927 
77957 
77961 
77940 
77918 
77930 
77949 
77950 
77958 
77937 
77895 
77900 
77920 
77892 
77908 
77918 
77925 
77924 
77943 
77935 
77916 
77940 
77975 
77978 
77962 
77969 
77976 
77965 
77929 
77906 
77931 
77945 
77935 
77919 
77889 
77858 
77841 
77853 
77874 
77857 
77842 
77875 
77914 
77936 
77889 
77900 
77921 
77952 
77972 
77974 
77959 
77958 
77945 
77941 
77966 
77991 
77966 
77967 
77949 
77929 
77923 
77925 
77891 
77850 
77837 
77812 
77776 
77720 
77704 
77709 
77726 
77727 
77709 
77667 
77667 
77650 
77645 
77648 
77635 
77629 
77641 
77638 
77609 
77572 
77533 
77495 
77520 
77540 
77494 
77446 
77434 
77424 
77419 
77423 
77426 
77414 
77412 
77432 
77388 
77347 
77336 
77336 
77320 
77342 
77355 
77381 
77376 
77388 
77408 
77422 
77419 
77419 
77441 
77422 
77384 
77366 
77378 
77353 
77340 
77336 
77402 
77415 
77387 
77347 
77324 
77295 
77317 
77330 
77313 
77308 
77355 
77371 
77367 
77353 
77349 
77350 
77333 
77302 
77313 
77376 
77389 
77415 
77433 
77472 
77500 
77486 
77485 
77493 
77472 
77446 
77457 
77498 
77533 
77529 
77507 
77514 
77537 
77571 
77620 
77643 
77625 
77571 
77550 
77528 
77575 
77598 
77553 
77530 
77544 
77598 
77610 
77624 
77635 
77614 
77618 
77629 
77653 
77657 
77646 
77642 
77683 
77692 
77668 
77701 
77727 
77733 
77734 
77747 
77761 
77760 
77755 
77791 
77812 
77804 
77776 
77752 
77769 
77780 
77818 
77852 
77878 
77908 
77937 
77933 
77932 
77917 
77929 
77962 
77954 
77907 
77919 
77910 
77906 
77893 
77933 
77971 
77989 
77981 
77962 
77948 
77973 
78026 
78065 
78083 
78065 
78054 
78052 
78074 
78073 
78099 
78094 
78079 
78101 
78138 
78150 
78134 
78134 
78172 
78248 
78259 
78222 
78182 
78192 
78217 
78224 
78242 
78234 
78203 
78216 
78220 
78237 
78222 
78212 
78222 
78219 
78201 
78191 
78222 
78247 
78238 
78249 
78261 
78246 
78208 
78180 
78171 
78177 
78184 
78180 
78208 
78234 
78255 
78237 
78199 
78177 
78154 
78109 
78105 
78072 
78058 
78074 
78070 
78047 
78013 
78002 
78018 
77980 
77932 
77897 
77849 
77820 
77794 
77778 
77795 
77836 
77879 
77872 
77853 
77804 
77757 
77725 
77738 
77753 
77757 
77757 
77770 
77764 
77763 
77723 
77691 
77646 
77673 
77690 
77709 
77725 
77741 
77739 
77689 
77718 
77761 
77751 
77717 
77691 
77701 
77712 
77713 
77709 
77701 
77679 
77686 
77688 
77670 
77669 
77688 
77740 
77783 
77795 
77782 
77764 
77749 
77738 
77762 
77789 
77791 
77803 
77839 
77872 
77901 
77910 
77910 
77941 
77928 
77890 
77902 
77934 
77944 
77926 
77887 
77887 
77885 
77869 
77856 
77922 
77957 
77962 
77995 
78032 
78022 
78015 
78012 
78007 
77990 
78032 
78085 
78097 
78109 
78106 
78113 
78084 
78057 
78069 
78104 
78138 
78171 
78206 
78191 
78158 
78162 
78211 
78241 
78243 
78250 
78211 
78195 
78232 
78262 
78287 
78248 
78219 
78262 
78285 
78285 
78313 
78353 
78365 
78339 
78323 
78319 
78358 
78390 
78401 
78417 
78387 
78381 
78409 
78406 
78388 
78359 
78358 
78389 
78407 
78449 
78463 
78464 
78453 
78428 
78391 
78403 
78390 
78387 
78367 
78353 
78353 
78343 
78408 
78454 
78446 
78449 
78435 
78413 
78374 
78332 
78339 
78381 
78394 
78373 
78384 
78404 
78424 
78446 
78446 
78456 
78444 
78427 
78424 
78424 
78427 
78457 
78493 
78490 
78487 
78470 
78439 
78444 
78449 
78446 
78454 
78500 
78516 
78483 
78465 
78449 
78432 
78413 
78413 
78453 
78447 
78439 
78501 
78546 
78530 
78499 
78511 
78515 
78519 
78506 
78519 
78505 
78479 
78468 
78502 
78511 
78516 
78511 
78476 
78470 
78453 
78423 
78422 
78481 
78485 
78426 
78389 
78410 
78423 
78398 
78367 
78339 
78291 
78260 
78257 
78241 
78226 
78239 
78222 
78220 
78215 
78184 
78129 
78068 
78060 
78058 
78073 
78069 
78088 
78052 
78030 
78048 
78042 
78005 
77979 
77975 
77991 
77981 
77977 
77957 
77911 
77895 
77929 
77975 
78004 
78000 
77981 
78014 
78027 
78018 
78034 
78051 
78008 
77976 
77994 
78038 
78073 
78083 
78102 
78109 
78132 
78134 
78101 
78083 
78059 
78099 
78170 
78190 
78207 
78205 
78216 
78220 
78209 
78220 
78251 
78224 
78193 
78198 
78223 
78259 
78310 
78330 
78333 
78348 
78338 
78317 
78342 
78366 
78388 
78382 
78376 
78374 
78388 
78388 
78422 
78463 
78519 
78525 
78491 
78482 
78499 
78488 
78488 
78467 
78520 
78592 
78626 
78669 
78676 
78700 
78705 
78702 
78699 
78690 
78685 
78706 
78701 
78730 
78744 
78778 
78786 
78777 
78775 
78754 
78732 
78720 
78694 
78716 
78744 
78745 
78756 
78748 
78746 
78744 
78730 
78734 
78777 
78836 
78879 
78895 
78909 
78892 
78887 
78878 
78897 
78886 
78907 
78907 
78893 
78867 
78862 
78849 
78842 
78864 
78870 
78913 
78927 
78894 
78891 
78875 
78888 
78926 
78933 
78966 
78975 
78928 
78926 
78943 
78978 
78999 
78980 
78989 
78992 
79005 
79011 
79012 
78971 
78952 
78930 
78947 
78993 
79012 
79037 
79043 
79018 
78961 
78952 
78950 
78937 
78905 
78879 
78865 
78877 
78908 
78931 
78934 
78956 
78987 
78961 
78975 
78993 
78968 
78958 
78980 
79000 
79019 
79012 
78990 
78981 
78970 
78975 
78993 
78975 
78959 
78960 
78982 
79012 
79007 
79007 
79019 
79021 
79007 
78969 
78936 
78920 
78910 
78910 
78912 
78923 
78908 
78897 
78916 
78904 
78878 
78855 
78847 
78840 
78858 
78810 
78802 
78774 
78713 
78686 
78673 
78663 
78665 
78626 
78597 
78580 
78556 
78542 
78496 
78462 
78452 
78443 
78448 
78445 
78428 
78399 
78385 
78383 
78399 
78429 
78406 
78368 
78354 
78310 
78280 
78285 
78321 
78336 
78348 
78348 
78344 
78333 
78318 
78309 
78297 
78288 
78306 
78305 
78321 
78322 
78317 
78324 
78337 
78346 
78356 
78364 
78355 
78353 
78345 
78342 
78325 
78309 
78272 
78288 
78322 
78334 
78387 
78429 
78449 
78420 
78376 
78352 
78382 
78384 
78372 
78390 
78412 
78427 
78458 
78488 
78469 
78464 
78492 
78508 
78485 
78427 
78392 
78427 
78471 
78469 
78471 
78465 
78491 
78516 
78527 
78559 
78574 
78600 
78621 
78640 
78660 
78672 
78690 
78693 
78682 
78654 
78642 
78646 
78647 
78663 
78690 
78749 
78748 
78745 
78773 
78805 
78828 
78810 
78779 
78792 
78805 
78810 
78823 
78851 
78855 
78868 
78903 
78902 
78914 
78923 
78894 
78885 
78940 
78969 
78903 
78881 
78893 
78902 
78918 
78926 
78886 
78892 
78940 
78926 
78903 
78918 
78963 
78978 
78945 
78969 
79024 
79034 
79015 
78972 
78964 
78995 
79023 
79042 
79047 
79061 
79037 
79034 
79014 
79005 
79015 
78997 
79002 
79053 
79092 
79101 
79098 
79122 
79098 
79063 
79054 
79047 
79039 
79069 
79083 
79071 
79060 
79065 
79057 
79019 
79026 
79067 
79038 
79039 
79024 
79026 
79070 
79113 
79101 
79076 
79075 
79142 
79196 
79220 
79195 
79134 
79081 
79069 
79070 
79088 
79111 
79085 
79058 
79074 
79097 
79059 
79051 
79091 
79117 
79145 
79151 
79150 
79144 
79107 
79122 
79135 
79174 
79196 
79176 
79146 
79140 
79174 
79207 
79183 
79190 
79196 
79212 
79189 
79162 
79157 
79182 
79212 
79250 
79260 
79253 
79227 
79193 
79157 
79110 
79076 
79071 
79042 
78982 
78948 
78918 
78898 
78886 
78889 
78897 
78903 
78872 
78821 
78798 
78808 
78793 
78753 
78716 
78656 
78595 
78600 
78607 
78584 
78536 
78482 
78462 
78439 
78433 
78432 
78436 
78417 
78398 
78375 
78349 
78333 
78298 
78257 
78250 
78248 
78217 
78210 
78195 
78204 
78194 
78198 
78215 
78184 
78143 
78106 
78129 
78167 
78169 
78210 
78263 
78283 
78292 
78293 
78296 
78334 
78349 
78387 
78398 
78366 
78360 
78367 
78365 
78347 
78366 
78397 
78398 
78406 
78398 
78431 
78474 
78485 
78458 
78468 
78493 
78458 
78440 
78448 
78469 
78494 
78510 
78515 
78509 
78531 
78537 
78557 
78587 
78626 
78633 
78622 
78621 
78625 
78628 
78651 
78663 
78648 
78641 
78628 
78605 
78630 
78660 
78690 
78701 
78724 
78751 
78784 
78798 
78820 
78857 
78859 
78868 
78864 
78855 
78852 
78856 
78885 
78903 
78927 
78981 
79010 
79046 
79017 
78994 
78981 
78981 
78993 
78969 
78935 
78921 
78896 
78930 
78990 
79013 
79042 
79016 
79015 
79047 
79085 
79057 
79037 
79058 
79077 
79094 
79065 
79075 
79121 
79139 
79177 
79174 
79140 
79130 
79103 
79088 
79095 
79115 
79135 
79181 
79199 
79225 
79263 
79265 
79247 
79247 
79238 
79270 
79286 
79300 
79314 
79297 
79279 
79293 
79345 
79363 
79355 
79340 
79324 
79310 
79295 
79334 
79423 
79403 
79339 
79305 
79284 
79263 
79257 
79245 
79247 
79239 
79238 
79262 
79279 
79295 
79300 
79278 
79284 
79303 
79307 
79300 
79297 
79276 
79251 
79230 
79213 
79264 
79316 
79335 
79314 
79303 
79277 
79280 
79302 
79341 
79310 
79303 
79304 
79262 
79250 
79221 
79207 
79205 
79232 
79234 
79246 
79259 
79266 
79255 
79240 
79278 
79271 
79262 
79260 
79273 
79259 
79249 
79294 
79323 
79330 
79316 
79312 
79325 
79327 
79298 
79313 
79312 
79323 
79321 
79330 
79354 
79341 
79306 
79311 
79339 
79314 
79288 
79278 
79259 
79195 
79152 
79141 
79149 
79147 
79133 
79090 
79025 
78983 
78962 
78975 
78992 
78943 
78872 
78877 
78870 
78847 
78794 
78749 
78733 
78740 
78720 
78681 
78684 
78661 
78639 
78614 
78578 
78555 
78539 
78506 
78479 
78477 
78484 
78508 
78506 
78490 
78462 
78440 
78441 
78412 
78376 
78394 
78383 
78382 
78382 
78377 
78386 
78382 
78364 
78344 
78356 
78346 
78379 
78439 
78455 
78463 
78473 
78483 
78466 
78452 
78427 
78457 
78497 
78500 
78495 
78478 
78487 
78484 
78509 
78530 
78543 
78570 
78566 
78557 
78575 
78554 
78558 
78575 
78562 
78591 
78642 
78643 
78636 
78650 
78664 
78653 
78688 
78660 
78614 
78635 
78660 
78718 
78784 
78793 
78819 
78874 
78879 
78835 
78806 
78829 
78867 
78861 
78890 
78913 
78902 
78903 
78931 
78958 
78958 
78936 
78925 
78897 
78902 
78924 
78967 
78978 
78965 
78967 
79002 
79020 
79007 
78990 
79007 
79048 
79076 
79090 
79076 
79095 
79126 
79119 
79126 
79132 
79164 
79168 
79161 
79177 
79162 
79157 
79177 
79167 
79164 
79167 
79194 
79196 
79209 
79191 
79226 
79231 
79228 
79231 
79216 
79217 
79178 
79167 
79200 
79215 
79224 
79247 
79255 
79279 
79293 
79295 
79314 
79275 
79261 
79307 
79328 
79315 
79300 
79294 
79316 
79324 
79333 
79276 
79248 
79227 
79212 
79205 
79245 
79295 
79294 
79274 
79269 
79275 
79274 
79268 
79282 
79275 
79305 
79343 
79348 
79309 
79319 
79339 
79381 
79367 
79323 
79299 
79300 
79339 
79357 
79352 
79377 
79371 
79352 
79372 
79358 
79374 
79396 
79398 
79402 
79415 
79427 
79396 
79376 
79364 
79386 
79422 
79479 
79473 
79440 
79422 
79415 
79402 
79404 
79372 
79349 
79357 
79386 
79371 
79352 
79355 
79369 
79395 
79421 
79414 
79353 
79338 
79321 
79324 
79350 
79318 
79330 
79313 
79259 
79244 
79211 
79202 
79170 
79119 
79093 
79069 
79106 
79113 
79069 
78989 
78932 
78899 
78883 
78868 
78862 
78842 
78842 
78823 
78781 
78739 
78709 
78669 
78670 
78680 
78651 
78589 
78543 
78520 
78527 
78544 
78536 
78577 
78676 
78679 
78639 
78625 
78608 
78568 
78525 
78516 
78511 
78524 
78553 
78542 
78556 
78546 
78554 
78550 
78558 
78580 
78611 
78618 
78619 
78626 
78629 
78643 
78663 
78737 
78734 
78707 
78705 
78688 
78718 
78711 
78722 
78764 
78782 
78789 
78799 
78831 
78841 
78841 
78861 
78896 
78874 
78872 
78902 
78941 
78953 
78978 
79025 
79023 
79012 
79012 
78993 
79011 
79040 
79090 
79117 
79141 
79142 
79114 
79124 
79126 
79142 
79182 
79194 
79213 
79236 
79258 
79266 
79267 
79296 
79335 
79366 
79367 
79363 
79351 
79368 
79408 
79408 
79411 
79415 
79441 
79482 
79555 
79618 
79625 
79609 
79581 
79568 
79591 
79630 
79650 
79663 
79682 
79670 
79658 
79631 
79634 
79666 
79684 
79701 
79715 
79729 
79737 
79750 
79757 
79790 
79794 
79785 
79805 
79815 
79811 
79807 
79845 
79856 
79835 
79815 
79795 
79787 
79774 
79754 
79763 
79826 
79851 
79822 
79783 
79794 
79837 
79834 
79845 
79862 
79863 
79842 
79833 
79838 
79847 
79822 
79791 
79826 
79891 
79927 
79923 
79912 
79895 
79882 
79908 
79889 
79859 
79862 
79869 
79856 
79836 
79834 
79854 
79870 
79844 
79792 
79772 
79801 
79820 
79829 
79871 
79891 
79870 
79848 
79837 
79836 
79850 
79871 
79889 
79901 
79887 
79858 
79847 
79830 
79812 
79769 
79724 
79727 
79705 
79679 
79650 
79610 
79570 
79535 
79485 
79464 
79433 
79451 
79428 
79364 
79337 
79338 
79300 
79272 
79259 
79252 
79250 
79200 
79156 
79094 
79075 
79084 
79064 
79048 
79072 
79107 
79103 
79059 
79022 
79008 
79017 
79031 
79065 
79089 
79085 
79075 
79095 
79104 
79121 
79150 
79187 
79205 
79235 
79250 
79240 
79233 
79256 
79307 
79344 
79357 
79384 
79390 
79429 
79453 
79517 
79576 
79600 
79609 
79598 
79588 
79602 
79647 
79684 
79706 
79729 
79759 
79808 
79855 
79876 
79872 
79860 
79832 
79816 
79847 
79888 
79893 
79873 
79880 
79901 
79890 
79879 
79912 
79966 
79962 
79992 
80021 
79982 
79953 
79994 
80049 
80069 
80068 
80086 
80101 
80118 
80145 
80191 
80229 
80240 
80229 
80224 
80269 
80303 
80339 
80347 
80308 
80304 
80312 
80301 
80284 
80281 
80309 
80383 
80461 
80466 
80457 
80486 
80489 
80458 
80443 
80466 
80452 
80427 
80414 
80464 
80547 
80561 
80532 
80554 
80572 
80571 
80573 
80600 
80589 
80571 
80599 
80634 
80642 
80671 
80638 
80635 
80657 
80674 
80694 
80707 
80677 
80658 
80673 
80658 
80662 
80714 
80728 
80727 
80704 
80685 
80660 
80652 
80654 
80663 
80684 
80698 
80690 
80679 
80684 
80680 
80664 
80685 
80674 
80677 
80701 
80702 
80654 
80623 
80627 
80638 
80642 
80630 
80659 
80659 
80656 
80617 
80611 
80615 
80622 
80667 
80715 
80712 
80665 
80647 
80639 
80623 
80613 
80595 
80568 
80576 
80567 
80529 
80481 
80455 
80448 
80453 
80442 
80427 
80394 
80347 
80312 
80282 
80238 
80186 
80133 
80069 
80036 
80011 
80001 
79912 
79802 
79735 
79697 
79673 
79657 
79616 
79599 
79585 
79509 
79433 
79412 
79369 
79340 
79321 
79283 
79251 
79217 
79199 
79168 
79145 
79112 
79069 
79072 
79088 
79042 
78994 
78972 
78952 
78896 
78841 
78824 
78807 
78828 
78848 
78840 
78781 
78747 
78716 
78647 
78559 
78518 
78458 
78432 
78422 
78419 
78398 
78381 
78371 
78341 
78294 
78270 
78252 
78215 
78221 
78207 
78169 
78166 
78193 
78204 
78216 
78242 
78287 
78299 
78289 
78297 
78309 
78280 
78279 
78308 
78290 
78302 
78309 
78302 
78352 
78408 
78459 
78485 
78495 
78532 
78595 
78656 
78698 
78700 
78705 
78707 
78727 
78702 
78727 
78780 
78792 
78787 
78845 
78864 
78844 
78832 
78852 
78882 
78870 
78846 
78833 
78837 
78830 
78849 
78885 
78950 
78953 
78928 
78912 
78938 
78937 
78956 
78992 
78978 
78941 
78926 
78906 
78925 
78962 
78923 
78907 
78883 
78846 
78818 
78772 
78744 
78724 
78723 
78714 
78727 
78716 
78698 
78699 
78707 
78676 
78631 
78591 
78586 
78635 
78630 
78595 
78576 
78587 
78558 
78530 
78519 
78504 
78515 
78455 
78395 
78359 
78387 
78405 
78403 
78387 
78381 
78405 
78442 
78422 
78429 
78444 
78423 
78402 
78388 
78420 
78485 
78521 
78518 
78495 
78472 
78492 
78506 
78508 
78515 
78508 
78498 
78492 
78479 
78461 
78426 
78430 
78483 
78518 
78526 
78526 
78546 
78564 
78539 
78504 
78484 
78503 
78506 
78482 
78477 
78488 
78456 
78432 
78385 
78378 
78360 
78306 
78248 
78188 
78174 
78140 
78084 
78047 
78067 
78050 
77986 
77958 
77944 
77902 
77872 
77892 
77908 
77897 
77921 
77889 
77824 
77778 
77738 
77731 
77775 
77833 
77781 
77743 
77748 
77742 
77674 
77643 
77671 
77666 
77670 
77691 
77695 
77700 
77721 
77743 
77746 
77712 
77696 
77682 
77680 
77689 
77669 
77647 
77664 
77662 
77693 
77724 
77728 
77708 
77725 
77754 
77773 
77824 
77850 
77843 
77836 
77827 
77838 
77872 
77909 
77950 
77952 
77946 
77901 
77854 
77819 
77811 
77832 
77879 
77918 
77954 
77989 
78028 
78019 
77991 
78036 
78081 
78111 
78105 
78082 
78086 
78092 
78108 
78099 
78107 
78113 
78121 
78129 
78148 
78220 
78304 
78299 
78285 
78286 
78276 
78294 
78361 
78435 
78470 
78484 
78498 
78475 
78479 
78493 
78497 
78531 
78547 
78520 
78517 
78513 
78491 
78474 
78495 
78554 
78620 
78622 
78594 
78601 
78631 
78662 
78699 
78687 
78706 
78709 
78681 
78677 
78685 
78745 
78791 
78801 
78791 
78791 
78795 
78801 
78801 
78826 
78816 
78820 
78813 
78843 
78821 
78791 
78813 
78868 
78898 
78909 
78897 
78881 
78877 
78883 
78888 
78946 
78953 
78908 
78891 
78886 
78862 
78859 
78844 
78873 
78897 
78883 
78874 
78889 
78891 
78908 
78899 
78905 
78897 
78893 
78879 
78884 
78887 
78874 
78871 
78878 
78870 
78859 
78859 
78861 
78842 
78795 
78797 
78815 
78808 
78759 
78703 
78653 
78628 
78613 
78607 
78586 
78548 
78518 
78484 
78447 
78391 
78341 
78311 
78280 
78237 
78209 
78186 
78148 
78096 
78067 
78052 
78006 
77963 
77932 
77898 
77914 
77989 
77981 
77946 
77903 
77875 
77829 
77803 
77774 
77734 
77721 
77691 
77684 
77734 
77735 
77705 
77668 
77690 
77736 
77764 
77761 
77769 
77772 
77746 
77729 
77720 
77763 
77800 
77796 
77816 
77828 
77834 
77854 
77907 
77940 
77923 
77900 
77889 
77874 
77881 
77922 
77916 
77941 
77979 
77969 
77972 
77969 
77955 
77933 
77908 
77927 
78013 
78047 
78056 
78075 
78088 
78107 
78145 
78190 
78217 
78228 
78223 
78225 
78239 
78199 
78195 
78247 
78267 
78277 
78265 
78249 
78255 
78246 
78256 
78242 
78258 
78305 
78341 
78341 
78313 
78333 
78413 
78425 
78409 
78397 
78388 
78426 
78429 
78410 
78421 
78447 
78454 
78449 
78443 
78481 
78517 
78521 
78558 
78618 
78618 
78631 
78636 
78655 
78669 
78654 
78663 
78708 
78731 
78743 
78776 
78766 
78744 
78749 
78746 
78764 
78745 
78725 
78733 
78724 
78741 
78782 
78785 
78792 
78809 
78786 
78774 
78788 
78819 
78813 
78816 
78838 
78853 
78801 
78783 
78814 
78836 
78848 
78853 
78816 
78822 
78867 
78882 
78854 
78854 
78866 
78879 
78868 
78830 
78809 
78783 
78772 
78763 
78809 
78850 
78812 
78811 
78791 
78737 
78765 
78748 
78712 
78706 
78748 
78781 
78783 
78759 
78742 
78721 
78710 
78754 
78749 
78729 
78718 
78706 
78703 
78688 
78679 
78665 
78687 
78704 
78694 
78658 
78672 
78673 
78686 
78700 
78675 
78659 
78634 
78615 
78552 
78514 
78493 
78445 
78392 
78349 
78337 
78338 
78298 
78234 
78178 
78133 
78075 
78049 
78019 
77988 
77969 
77953 
77907 
77835 
77815 
77801 
77751 
77708 
77672 
77651 
77672 
77641 
77571 
77537 
77527 
77525 
77491 
77446 
77431 
77445 
77420 
77400 
77388 
77382 
77377 
77350 
77335 
77376 
77387 
77400 
77374 
77333 
77293 
77268 
77275 
77273 
77272 
77300 
77288 
77291 
77297 
77293 
77319 
77332 
77338 
77382 
77383 
77374 
77394 
77416 
77431 
77412 
77320 
77242 
77243 
77299 
77332 
77384 
77393 
77383 
