0.0,-96520.88988076328,-96540.89469205079,-96561.12302078283,-96581.26194253706,-96601.37851254684,-96621.53978604553,-96641.70105954423,-96661.92938827627,-96682.15771700832,-96702.38604574038,-96722.56967098352,-96742.7309444822,-96762.98162495872,-96783.18760194631,-96803.37122718946,-96823.59955592151,-96843.82788465355,-96863.94445466333,-96884.28454211766,-96904.60227782754,-96924.78590307069,-96945.03658354719,-96965.2872640237,-96985.51559275575,-97005.81097672117,-97026.1063606866,-97046.37939290755,-97066.74183210635,-97087.12662304958,-97107.39965527054,-97127.65033574705,-97147.92336796802,-97168.17404844452,-97188.5364876433,-97208.76481637536,-97229.06020034078,-97249.51204651738,-97273.85309622921,-97286.97357022448,-97282.43616610006,-97276.66941603058,-97271.03677642785,-97265.47119205847,-97259.86090420019,-97252.35071806322,-97247.56744474977,-97264.93475019155,-97265.42648856956,-97260.01736641138,-97254.63059599765,-97249.17677035056,-97243.70059295901,-97238.26911905636,-97229.44017999651,-97231.31772653076,-97248.05918312779,-97245.60049123771,-97240.32547954626,-97234.96106087697,-97229.5966422077,-97224.27692702734,-97219.09132231372,-97213.19046177751,-97204.2944674843,-97218.44312172451,-97227.31676427326,-97222.46643572647,-97217.19142403502,-97212.05052281028,-97206.82021460775,-97201.5899064052,-97196.38194994711,-97190.50344115538,-97181.94272302899,-97196.58311564721,-97203.95919131747,-97198.9971040484,-97193.85620282366,-97188.71530159895,-97183.50734514087,-97178.27703693832,-97172.77850780232,-97163.6366443201,-97174.74546131438,-97185.7872230753,-97181.38392941761,-97176.33243517071,-97171.21388569045,-97166.05063272126,-97160.99913847436,-97155.94764422748,-97149.21976914642,-97143.74359175487,-97161.06619370774,-97162.5861123307,-97157.48991459489,-97152.39371685908,-97147.43162958999,-97142.29072836527,-97137.37334458511,-97132.25479510485,-97125.25869909034,-97121.5259577663,-97137.9768416854,-97137.44039981847,-97132.34420208266,-97127.35976306914,-97122.33062056669,-97117.30147806424,-97112.22763207289,-97103.59985871315,-97106.77380642579,-97122.7776554558,-97120.1177978656,-97114.88748966307,-97109.85834716063,-97104.71744593591,-97099.59889645565,-97094.63680918656,-97088.914762606,-97080.44345145744,-97094.5697539532,-97101.99053311236,-97097.1178528211,-97092.17811729648,-97087.12662304958,-97082.09748054713,-97076.95657932242,-97071.23453274186,-97063.34436694914,-97076.48719268886,-97079.63878865704,-97074.49788743233,-97069.46874492988,-97064.39489893852,-97059.29870120272,-97054.11309648909,-97046.98289000784,-97042.91487251698,-97059.8574948141,-97059.8127913252,-97054.73894533384,-97049.73215457585,-97044.68066032894,-97039.62916608206,-97034.68943055742,-97028.98973572132,-97020.92075597295,-97035.62820382456,-97040.94791900492,-97036.14229394702,-97031.1578549335,-97025.99460196431,-97021.07721818415,-97016.09277917062,-97011.01893317926,-97001.96647667486,-97009.11903490056,-97022.06069494018,-97018.21619489387,-97013.25410762479,-97008.22496512234,-97003.1958226199,-96998.27843883973,-96992.80226144819,-96984.42035727744,-96996.75852021677,-97002.01118016377,-96997.0937963836,-96992.01995039225,-96987.05786312316,-96982.1851828319,-96977.24544730729,-96972.35041527158,-96966.02487159072,-96959.09583080959,-96976.17256357343,-96981.02289212024,-96976.15021182898,-96971.16577281544,-96966.20368554637,-96961.21924653284,-96956.30186275266,-96951.40683071695,-96943.51666492423,-96943.71783062433,-96959.1852377874,-96956.72654589731,-96951.74210688379,-96946.80237135915,-96941.84028409008,-96936.83349333209,-96931.89375780747,-96926.01524901572,-96917.99097275628,-96933.57013864162,-96940.49917942277,-96935.69355436487,-96930.7314670958,-96925.83643506009,-96920.874347791,-96915.91226052193,-96910.9725249973,-96902.61297257102,-96905.36223713902,-96919.55559486814,-96916.44870238885,-96911.50896686423,-96906.47982436178,-96901.58479232607,-96896.68976029036,-96891.7723765102,-96886.18444039636,-96877.57901878108,-96891.10182417654,-96899.41667311391,-96894.76751026721,-96889.76071950921,-96884.79863224014,-96879.88124845998,-96874.9638646798,-96869.97942566627,-96863.34095756305,-96858.28946331615,-96875.38854782445,-96876.46143155832,-96871.38758556696,-96866.40314655342,-96861.48576277326,-96856.56837899309,-96851.62864346846,-96846.57714922156,-96837.68115492834,-96844.78900966514,-96857.03776562665,-96853.10385860251,-96848.09706784453,-96843.17968406435,-96838.26230028419,-96833.36726824848,-96828.33812574603,-96820.96205007579,-96818.79393086361,-96837.34587876152,-96837.43528573934,-96832.45084672581,-96827.51111120118,-96822.57137567656,-96817.54223317411,-96812.6024976495,-96807.68511386933,-96802.20893647778,-96793.6482183514,-96806.54517490212,-96814.05536103909,-96809.29443947012,-96804.26529696767,-96799.3479131875,-96794.54228812961,-96789.58020086052,-96784.70752056927,-96778.22551467724,-96772.21289541876,-96790.00488400517,-96793.4470526513,-96788.50731712667,-96783.5452298576,-96778.65019782189,-96773.86692450845,-96768.94954072828,-96763.98745345921,-96758.15364815637,-96750.21877887474,-96765.88735173791,-96772.72698554123,-96767.94371222779,-96763.07103193653,-96758.13129641191,-96753.32567135402,-96748.36358408495,-96743.49090379369,-96738.59587175798,-96730.14691235387,-96732.89617692187,-96747.96125268475,-96745.07787765001,-96740.16049386984,-96735.24311008968,-96730.30337456506,-96725.34128729597,-96720.42390351581,-96713.78543541259,-96708.44336848777,-96726.36946754092,-96728.62699373091,-96723.7319616952,-96718.74752268166,-96713.80778715704,-96708.89040337688,-96704.04007483007,-96699.18974628327,-96693.98178982518,-96684.92933332079,-96694.58528692547,-96706.38700799788,-96702.38604574038,-96697.46866196021,-96692.48422294667,-96687.54448742206,-96682.62710364189,-96677.73207160618,-96670.42305116929,-96667.47262090119,-96686.58336241047,-96687.6785978888,-96682.6718071308,-96677.77677509509,-96672.79233608155,-96667.91965579029,-96663.00227201013,-96658.04018474105,-96653.18985619425,-96645.97024273519,-96643.556254334,-96661.23648419816,-96660.87885628687,-96655.89441727335,-96651.04408872654,-96646.12670494636,-96641.2540246551,-96636.29193738603,-96630.50283557212,-96622.81383547948,-96638.23653915364,-96643.7127165452,-96638.84003625394,-96634.0567629405,-96629.22878613816,-96624.28905061353,-96619.32696334446,-96614.49898654211,-96609.42514055075,-96600.37268404635,-96608.7545882171,-96623.68555351325,-96620.26573661157,-96615.34835283141,-96610.4980242846,-96605.55828875999,-96600.81971893547,-96595.94703864421,-96591.07435835295,-96582.87126813785,-96584.1006140829,-96601.64673348032,-96600.05975962398,-96595.16472758827,-96590.33675078592,-96585.46407049467,-96580.5019832256,-96575.65165467879,-96570.80132613199,-96564.3416719844,-96559.40193645978,-96576.0986895679,-96576.76924190155,-96571.85185812139,-96566.86741910785,-96562.01709056104,-96557.25616899207,-96552.40584044527,-96547.4437531762,-96540.60411937286,-96536.3796396708,-96554.88688407981,-96556.63032014732,-96551.75763985606,-96546.90731130926,-96542.12403799583,-96537.22900596011,-96532.26691869104,-96527.4836453776,-96521.80630228596,-96513.62556381531,-96528.73534306709,-96536.55845362645,-96531.90929077975,-96526.99190699958,-96522.07452321942,-96517.20184292816,-96512.284459148,-96507.523537579,-96502.58380205439,-96496.70529326264,-96489.26216235902,-96505.4224736002,-96510.94335448067,-96506.16008116724,-96501.24269738708,-96496.43707232918,-96491.54204029347,-96486.69171174667,-96481.86373494432,-96475.94052266366,-96468.38563303777,-96484.38948206777,-96489.99976992606,-96485.19414486816,-96480.3214645769,-96475.4711360301,-96470.4643452721,-96465.63636846977,-96460.20489456713,-96451.73358341857,-96465.21168532512,-96472.02896738399,-96467.31274930392,-96462.44006901266,-96457.58974046586,-96452.65000494123,-96447.8220281389,-96442.30114725842,-96433.94159483214,-96448.24671128354,-96455.80160090943,-96451.13008631827,-96446.23505428256,-96441.40707748021,-96436.53439718895,-96431.6617168977,-96426.81138835089,-96421.91635631518,-96416.61899287927,-96407.81240556389,-96419.88234756976,-96428.15249301822,-96423.57038540488,-96418.74240860253,-96413.80267307791,-96408.97469627556,-96404.0573124954,-96399.09522522632,-96393.48493736803,-96385.37125413076,-96400.36927466028,-96407.2536119525,-96402.47033863906,-96397.50825136999,-96392.63557107873,-96387.80759427638,-96382.93491398513,-96378.03988194941,-96372.42959409114,-96364.22650387604,-96379.24687615,-96386.86882100927,-96382.24200990702,-96377.3022743824,-96372.38489060222,-96367.55691379988,-96362.55012304189,-96357.63273926172,-96351.62012000324,-96344.66872747765,-96360.87374220774,-96365.05351842089,-96360.15848638517,-96355.28580609392,-96350.36842231375,-96345.4957420225,-96340.55600649786,-96335.6833262066,-96328.01667785844,-96326.96614586904,-96344.6463757332,-96343.72995421052,-96338.81257043035,-96333.96224188355,-96329.06720984784,-96324.21688130104,-96319.34420100978,-96314.44916897407,-96306.983686326,-96305.3296572363,-96322.78636965589,-96321.93700336659,-96316.95256435307,-96312.19164278408,-96307.25190725946,-96302.3792269682,-96297.48419493249,-96292.54445940787,-96287.15768899414,-96278.75343307895,-96292.29859021887,-96299.8311281003,-96295.15961350914,-96290.35398845124,-96285.41425292662,-96280.51922089091,-96275.71359583302,-96270.84091554176,-96262.21314218202,-96266.30351141734,-96282.48617440298,-96279.96042727953,-96275.08774698827,-96270.10330797474,-96265.25297942794,-96260.40265088114,-96255.55232233433,-96250.63493855417,-96243.77295300638,-96240.12961866017,-96256.80402002383,-96256.35698513473,-96251.48430484347,-96246.65632804112,-96241.73894426096,-96236.9109674586,-96232.03828716735,-96227.1656068761,-96218.82840619427,-96220.16951086158,-96239.8166942378,-96239.48141807097,-96234.63108952416,-96229.73605748845,-96224.77397021938,-96219.90128992812,-96215.18507184806,-96210.33474330125,-96205.5067664989,-96199.82942340725,-96191.87220238117,-96206.73611244395,-96213.66515322508,-96209.03834212285,-96204.18801357604,-96199.44944375151,-96194.57676346025,-96189.77113840237,-96184.96551334448,-96178.66232140808,-96172.82851610525,-96190.32993201374,-96193.25801053739,-96188.36297850168,-96183.55735344379,-96178.7517283859,-96173.9013998391,-96169.00636780339,-96164.26779797886,-96159.08219326523,-96150.23090246093,-96161.67499562204,-96172.15796377158,-96167.88878058062,-96162.9937485449,-96158.23282697593,-96153.40485017358,-96148.64392860461,-96143.83830354671,-96136.28341392081,-96136.21635868745,-96150.92380653904,-96148.39805941559,-96143.54773086878,-96138.7421058109,-96133.91412900855,-96129.22026267294,-96124.4816928484,-96116.36800961113,-96117.66441078954,-96135.27758542032,-96133.78001854182,-96129.01909697284,-96124.25817540385,-96119.40784685707,-96114.71398052144,-96109.99776244137,-96105.25919261685,-96100.1853466255,-96091.28935233229,-96101.8393757152,-96113.19406189848,-96109.26015487436,-96104.45452981646,-96099.69360824747,-96094.9326866785,-96090.23882034289,-96085.54495400727,-96078.12417484811,-96076.33603529168,-96094.5303552783,-96094.2844860893,-96089.45650928695,-96084.74029120688,-96080.00172138236,-96075.28550330228,-96070.56928522221,-96065.8307153977,-96060.89097987306,-96051.95028209094,-96061.58388395119,-96074.43613701298,-96070.63634045557,-96065.89777063105,-96061.18155255099,-96056.48768621538,-96051.74911639084,-96047.01054656632,-96042.33903197516,-96035.29823247174,-96032.63837488156,-96051.3691367351,-96052.2185030244,-96047.43522971097,-96042.74136337536,-96038.0698487842,-96033.35363070412,-96028.65976436851,-96023.98824977735,-96015.98632526235,-96017.81916830769,-96034.33710746016,-96032.23604348136,-96027.49747365684,-96022.78125557677,-96018.08738924115,-96013.41587464999,-96008.8114152922,-96004.11754895658,-95995.82505176366,-95999.53544134325,-96014.24288919484,-96011.29245892673,-96006.62094433558,-96001.94942974442,-95997.32261864217,-95992.67345579546,-95987.97958945985,-95983.33042661315,-95977.02723467676,-95971.14872588501,-95989.67832203845,-95994.17102267397,-95989.43245284945,-95984.69388302493,-95980.00001668932,-95975.28379860923,-95970.61228401808,-95966.07487989365,-95959.9952054018,-95953.62495823205,-95971.37224332956,-95975.70848175389,-95970.94756018491,-95966.38780431602,-95961.71628972486,-95957.02242338925,-95952.395612287,-95947.70174595139,-95941.89029239301,-95935.38593475652,-95950.9427488974,-95953.4014407875,-95948.77462968524,-95944.01370811627,-95939.45395224738,-95934.8941963785,-95930.33444050961,-95925.48411196281,-95916.72222813634,-95923.04777181719,-95936.95055686838,-95933.5977952001,-95929.01568758675,-95924.43357997341,-95919.67265840444,-95915.00114381328,-95910.35198096657,-95905.50165241977,-95896.67271335992,-95906.50748092026,-95918.64447815949,-95914.82232985763,-95910.08376003311,-95905.38989369749,-95900.7407308508,-95896.11391974855,-95891.37534992401,-95886.6814835884,-95878.14311720648,-95883.44048064238,-95900.22664072832,-95897.7903005827,-95893.16348948044,-95888.46962314483,-95883.84281204258,-95879.19364919588,-95874.47743111581,-95869.85062001356,-95863.34626237706,-95858.89826523045,-95877.13728870598,-95879.03718698469,-95874.34332064907,-95869.73886129128,-95865.11205018903,-95860.44053559787,-95855.79137275116,-95851.11985816,-95845.8224947241,-95837.77586672019,-95852.14803840495,-95859.23354139729,-95854.71848901731,-95850.09167791506,-95845.39781157945,-95840.79335222166,-95836.09948588604,-95831.40561955042,-95824.61068923601,-95821.8167211791,-95839.16167487642,-95838.96050917632,-95834.26664284071,-95829.617479994,-95824.99066889175,-95820.3638577895,-95815.66999145389,-95811.08788384055,-95803.71180817031,-95802.28129652517,-95821.79436943465,-95822.53197700166,-95817.8157589216,-95813.12189258599,-95808.5621367171,-95803.9129738704,-95799.2638110237,-95794.74875864372,-95789.36198823,-95781.605932904,-95796.46984296678,-95802.2142412918,-95797.69918891182,-95793.05002606512,-95788.40086321841,-95783.75170037171,-95779.21429624729,-95774.52042991167,-95769.06660426458,-95761.3552524275,-95777.06852877958,-95783.52818292716,-95778.92372356937,-95774.27456072267,-95769.67010136487,-95765.08799375153,-95760.48353439374,-95755.87907503595,-95750.13467671094,-95742.93741499633,-95759.92474078236,-95766.42909841886,-95761.86934254997,-95757.19782795881,-95752.5486651121,-95748.01126098768,-95743.51856035217,-95738.91410099437,-95734.33199338103,-95728.095856678,-95722.30675486407,-95740.43401961733,-95744.18911268582,-95739.62935681693,-95735.06960094806,-95730.37573461243,-95725.7936269991,-95721.12211240795,-95716.51765305015,-95711.42145531434,-95703.01719939914,-95716.96468793925,-95726.35242061048,-95722.15029265289,-95717.56818503955,-95712.9860774262,-95708.42632155733,-95703.77715871063,-95699.19505109728,-95694.65764697286,-95687.21451606925,-95686.49926024667,-95703.93362092182,-95702.88308893242,-95698.16687085234,-95693.60711498346,-95689.04735911457,-95684.4876032457,-95679.90549563235,-95675.34573976348,-95669.06489957153,-95663.67812915781,-95682.29713228908,-95686.07457710202,-95681.44776599978,-95676.84330664198,-95672.26119902864,-95667.67909141531,-95663.14168729087,-95658.55957967755,-95653.82100985301,-95645.1261812599,-95653.23986449717,-95667.47792571521,-95664.23692276918,-95659.58775992248,-95654.9833005647,-95650.31178597354,-95645.7743818491,-95641.23697772468,-95636.63251836688,-95628.2729659406,-95632.98918402067,-95648.21072199474,-95645.32734696,-95640.74523934665,-95636.09607649996,-95631.53632063107,-95626.95421301773,-95622.34975365995,-95617.81234953551,-95611.39739887684,-95606.77058777459,-95625.50134962815,-95628.04944849605,-95623.40028564935,-95618.86288152491,-95614.3701808894,-95609.74336978715,-95605.09420694044,-95600.51209932711,-95593.80657599051,-95590.58792478895,-95608.93870698675,-95609.89983199834,-95605.27302089609,-95600.62385804938,-95596.08645392496,-95591.57140154498,-95587.03399742056,-95582.51894504059,-95577.9591891717,-95571.2536658351,-95567.27505532207,-95586.27403810907,-95588.2186398767,-95583.56947702999,-95579.09912813893,-95574.58407575895,-95569.9572646567,-95565.39750878782,-95560.79304943002,-95556.09918309441,-95547.58316845694,-95553.9534156267,-95568.66086347829,-95565.64337797683,-95561.01656687458,-95556.47916275015,-95551.94175862572,-95547.33729926794,-95542.7998951435,-95536.34024099592,-95532.33927873842,-95549.41601150227,-95549.88539813584,-95545.23623528914,-95540.72118290915,-95536.18377878473,-95531.62402291584,-95527.10897053588,-95521.67749663325,-95514.1449587518,-95528.80770311448,-95533.92625259474,-95529.41120021477,-95524.80674085698,-95520.11287452136,-95515.57547039694,-95511.10512150588,-95506.3441999369,-95497.55996436597,-95505.56188888095,-95520.62696464384,-95517.58712739791,-95512.96031629566,-95508.40056042679,-95503.88550804682,-95499.32575217793,-95494.76599630904,-95490.1391852068,-95485.28885666,-95476.61637981134,-95487.52403110552,-95498.29757193298,-95494.20720269767,-95489.66979857323,-95485.15474619326,-95480.6396938133,-95476.0352344555,-95471.45312684216,-95466.22281863962,-95458.06443191343,-95472.72717627611,-95481.4890601026,-95477.17517342271,-95472.59306580939,-95468.05566168495,-95463.40649883825,-95458.89144645828,-95454.26463535603,-95445.94978641866,-95452.00710916605,-95464.2335133831,-95460.67958601471,-95456.09747840137,-95451.47066729912,-95446.95561491915,-95442.41821079471,-95437.88080667029,-95432.71755370112,-95424.29094604147,-95438.1713793482,-95449.25784459805,-95445.279234085,-95440.58536774939,-95436.04796362495,-95431.46585601162,-95426.95080363164,-95422.41339950722,-95417.31720177141,-95409.3152772564,-95422.07812334038,-95427.71076294313,-95423.21806230761,-95418.65830643872,-95414.05384708094,-95409.49409121205,-95404.97903883208,-95400.28517249647,-95391.56799215889,-95399.54756492944,-95413.74092265856,-95410.522271457,-95406.00721907703,-95401.5145184415,-95396.95476257263,-95392.41735844819,-95387.85760257932,-95383.3201984549,-95377.55344838541,-95370.73616632655,-95387.5670299014,-95392.79733810393,-95388.30463746842,-95383.65547462172,-95379.1180704973,-95374.62536986177,-95370.13266922625,-95365.57291335738,-95360.67788132167,-95352.02775621746,-95363.65066333422,-95375.25121870651,-95371.29495993794,-95366.66814883568,-95362.17544820017,-95357.68274756466,-95353.16769518467,-95348.69734629361,-95344.13759042474,-95339.3990206002,-95330.72654375155,-95339.93546246714,-95352.85477076231,-95349.41260211618,-95344.83049450285,-95340.22603514505,-95335.64392753172,-95331.12887515174,-95326.70322974959,-95321.91995643616,-95313.15807260967,-95322.03171515843,-95336.49329382103,-95333.18523564163,-95328.60312802829,-95323.99866867051,-95319.50596803498,-95314.99091565501,-95310.4982150195,-95306.07256961735,-95300.57404048134,-95293.2426683,-95309.71590396356,-95316.35437206678,-95311.9510784091,-95307.41367428466,-95302.9433253936,-95298.42827301363,-95293.80146191138,-95289.33111302032,-95284.23491528451,-95275.7859558804,-95289.08524383132,-95299.3446945363,-95295.32138053434,-95290.71692117654,-95286.17951705212,-95281.70916816106,-95277.21646752555,-95272.74611863449,-95268.20871451005,-95261.4361359401,-95258.70922311654,-95276.21063902506,-95276.21063902506,-95271.60617966726,-95267.06877554284,-95262.66548188514,-95258.12807776072,-95253.61302538074,-95249.07562125631,-95241.0289932524,-95243.84531305377,-95260.07267952833,-95257.81515333834,-95253.233045725,-95248.65093811166,-95244.15823747615,-95239.68788858509,-95235.23989143848,-95230.23310068049,-95221.80649302083,-95234.2787664269,-95243.66649909812,-95239.50907462944,-95235.06107748284,-95230.5236733584,-95226.0756762118,-95221.51592034292,-95217.00086796295,-95212.15053941615,-95203.63452477867,-95215.16802491761,-95225.06984771132,-95221.00183022044,-95216.50912958493,-95212.01642894941,-95207.43432133607,-95202.94162070056,-95198.40421657613,-95191.74339672845,-95188.25652459342,-95207.9260597141,-95210.65297253765,-95206.09321666876,-95201.60051603324,-95197.13016714218,-95192.54805952884,-95188.01065540442,-95183.42854779107,-95177.1700593436,-95173.1690970861,-95190.15642287213,-95190.60345776123,-95186.11075712572,-95181.52864951237,-95176.9688936435,-95172.45384126352,-95167.98349237246,-95163.49079173694,-95156.98643410044,-95153.49956196542,-95171.13508834066,-95171.73858544095,-95167.15647782761,-95162.55201846983,-95158.0593178343,-95153.63367243214,-95149.11862005218,-95144.53651243885,-95139.01563155839,-95131.79601809931,-95148.38101248516,-95154.99712884393,-95150.50442820841,-95145.98937582843,-95141.45197170401,-95136.9592710685,-95132.46657043298,-95128.04092503083,-95123.39176218412,-95114.6522301021,-95122.67650636155,-95137.02632630186,-95133.87473033366,-95129.38202969814,-95124.75521859589,-95120.37427668266,-95115.81452081377,-95111.32182017826,-95106.80676779828,-95100.12359620615,-95096.72613104894,-95116.06039000278,-95118.11675049267,-95113.57934636823,-95109.10899747717,-95104.48218637494,-95100.01183748386,-95095.5414885928,-95091.00408446838,-95086.39962511059,-95078.0400726843,-95083.00215995338,-95101.24118342891,-95099.58715433921,-95095.00504672588,-95090.42293911254,-95085.90788673257,-95081.41518609706,-95076.9895406949,-95072.51919180385,-95067.9370841905,-95060.22573235343,-95062.39385156559,-95078.21888663995,-95076.05076742778,-95071.44630807,-95066.95360743447,-95062.50561028786,-95057.99055790789,-95053.54256076129,-95048.17814209202,-95040.82441816622,-95056.5823980072,-95062.52796203233,-95058.07996488572,-95053.52020901683,-95049.02750838132,-95044.51245600134,-95040.0868105992,-95034.90120588556,-95027.01104009284,-95041.49497049987,-95048.02167988083,-95043.57368273422,-95039.0362786098,-95034.6329849521,-95030.14028431659,-95025.5805284477,-95020.93136560099,-95012.28124049678,-95020.64079292308,-95033.35893551815,-95029.84971163866,-95025.26760402533,-95020.7749033898,-95016.34925798766,-95011.92361258551,-95007.38620846107,-95002.96056305892,-94998.40080719005,-94990.30947569723,-94993.79634783225,-95010.85072885166,-95008.95083057295,-95004.41342644852,-94999.89837406855,-94995.42802517749,-94990.91297279752,-94986.37556867309,-94981.90521978203,-94974.93147551197,-94973.00922548881,-94992.164670487,-94993.1704989875,-94988.74485358535,-94984.22980120538,-94979.73710056987,-94975.17734470098,-94970.77405104328,-94966.19194342995,-94960.98398697186,-94953.27263513478,-94967.57775158617,-94973.41155688901,-94969.03061497577,-94964.53791434025,-94960.0675654492,-94955.55251306923,-94951.03746068924,-94946.63416703156,-94939.34749833912,-94938.56518728318,-94956.78185901426,-94956.29012063624,-94951.73036476737,-94947.17060889848,-94942.72261175187,-94938.27461460527,-94933.69250699192,-94929.24450984532,-94924.03655338724,-94916.07933236114,-94930.74207672384,-94938.76635298328,-94934.5642250257,-94929.9597656679,-94925.51176852129,-94921.06377137468,-94916.59342248362,-94912.12307359256,-94906.93746887892,-94899.22611704185,-94914.35824803809,-94920.9520126524,-94916.59342248362,-94912.10072184811,-94907.60802121258,-94903.11532057707,-94898.68967517492,-94894.1969745394,-94889.05607331468,-94880.92003833294,-94894.93458210643,-94903.651762444,-94899.42728274195,-94895.0016373398,-94890.55364019319,-94886.01623606875,-94881.41177671097,-94876.91907607546,-94872.2922649732,-94863.642139869,-94872.85105858458,-94885.83742211312,-94882.28349474473,-94877.72373887584,-94873.27574172923,-94868.82774458262,-94864.31269220266,-94859.8870468005,-94855.26023569825,-94846.76657280524,-94854.03088975322,-94867.3972329375,-94864.22328522484,-94859.70823284486,-94855.2378839538,-94850.8345902961,-94846.29718617168,-94841.78213379171,-94837.24472966728,-94828.79577026317,-94836.37301163352,-94848.97939550632,-94845.49252337129,-94840.97747099132,-94836.4847703558,-94832.05912495365,-94827.6334795515,-94823.14077891599,-94815.13885440098,-94817.82106373562,-94834.67427905492,-94832.79673252067,-94828.25932839625,-94823.78897950519,-94819.36333410304,-94814.87063346752,-94810.42263632092,-94805.90758394093,-94800.20788910483,-94793.79293844616,-94811.07083691012,-94815.65294452345,-94811.16024388793,-94806.77930197469,-94802.24189785027,-94797.70449372585,-94793.18944134586,-94788.74144419926,-94784.24874356374,-94776.35857777103,-94778.34788302754,-94797.74919721475,-94797.34686581456,-94792.83181343459,-94788.2720575657,-94783.8240604191,-94779.30900803913,-94774.79395565916,-94770.39066200146,-94765.3168160101,-94757.3148914951,-94771.10591782402,-94778.34788302754,-94774.01164460322,-94769.5189439677,-94765.09329856555,-94760.62294967449,-94756.17495252789,-94751.72695538128,-94746.18372275637,-94738.80764708611,-94755.52675193868,-94763.66278692041,-94759.371251985,-94754.87855134948,-94750.4082024584,-94745.89315007844,-94741.5122081652,-94737.01950752968,-94732.57151038307,-94724.6589928459,-94727.58707136955,-94743.76973435518,-94741.53455990966,-94737.01950752968,-94732.63856561645,-94728.19056846984,-94723.72021957877,-94719.27222243216,-94714.82422528557,-94710.17506243887,-94701.48023384575,-94710.51033860569,-94724.23430970125,-94720.92625152186,-94716.34414390853,-94711.94085025083,-94707.4034461264,-94702.86604200197,-94698.50745183318,-94692.96421920827,-94685.83401272703,-94702.24019315722,-94708.11870194897,-94703.69305654682,-94699.24505940021,-94694.81941399806,-94690.39376859591,-94685.87871621594,-94681.43071906934,-94676.75920447818,-94668.04202414061,-94676.11100388897,-94691.24313488521,-94688.31505636156,-94683.8447074705,-94679.3967103239,-94674.81460271057,-94670.34425381951,-94666.03036713963,-94661.58236999302,-94653.9380733893,-94655.48034375672,-94671.08186138653,-94668.91374217437,-94664.4433932833,-94659.9953961367,-94655.43564026781,-94651.00999486566,-94646.56199771905,-94641.24228253869,-94634.11207605746,-94649.37831752043,-94653.98277687821,-94649.51242798715,-94645.04207909609,-94640.54937846058,-94636.10138131397,-94631.63103242291,-94627.1830352763,-94619.11405552794,-94622.66798289634,-94639.76706740464,-94637.84481738148,-94633.30741325706,-94628.81471262155,-94624.36671547494,-94619.89636658387,-94615.53777641509,-94611.15683450185,-94603.73605534268,-94604.31720069853,-94620.25399449516,-94618.44350319428,-94613.97315430322,-94609.54750890107,-94605.03245652109,-94600.56210763003,-94596.15881397233,-94591.08496798099,-94582.90422951034,-94596.91877328382,-94605.63595362139,-94601.50088089716,-94597.14229072837,-94592.56018311503,-94588.20159294625,-94583.70889231074,-94579.21619167521,-94574.67878755079,-94566.63215954688,-94570.20843865973,-94587.30752316804,-94585.40762488934,-94580.93727599828,-94576.46692710722,-94571.92952298278,-94567.57093281401,-94563.05588043403,-94558.58553154297,-94553.69049950725,-94545.17448486979,-94557.80322048703,-94568.80027875904,-94564.88872347937,-94560.4183745883,-94555.94802569725,-94551.5223802951,-94547.09673489294,-94542.64873774633,-94538.06663013299,-94529.59531898443,-94535.69734522073,-94552.72937449567,-94550.4718483057,-94545.93444418126,-94541.53115052357,-94537.08315337697,-94532.63515623036,-94528.14245559483,-94523.7168101927,-94517.57008046749,-94512.76445540959,-94530.60114748492,-94532.72456320818,-94528.18715908375,-94523.7168101927,-94519.313516535,-94514.84316764394,-94510.43987398624,-94506.01422858408,-94500.98508608164,-94492.96080982218,-94506.9082983623,-94514.9102228773,-94510.7080949197,-94506.17069079528,-94501.78974888203,-94497.34175173542,-94492.84905109991,-94488.4010539533,-94481.2484957276,-94480.95792304969,-94497.90054534681,-94496.73825463513,-94492.29025748852,-94487.79755685301,-94483.32720796195,-94478.9015625598,-94474.47591715764,-94470.00556826658,-94463.7470798191,-94458.96380650566,-94478.40982418178,-94482.36608295036,-94477.8510305704,-94473.40303342379,-94468.93268453273,-94464.50703913058,-94460.08139372843,-94455.65574832627,-94451.18539943521,-94444.72574528764,-94441.1941696637,-94459.18732395022,-94460.26020768407,-94455.72280355965,-94451.27480641304,-94446.75975403306,-94442.31175688645,-94437.8861114843,-94432.63345153732,-94425.07856191142,-94440.30009988548,-94446.8938644998,-94442.535274331,-94438.15433241778,-94433.66163178226,-94429.12422765783,-94424.63152702231,-94420.20588162016,-94415.80258796246,-94408.27005008103,-94409.32058207043,-94427.00081193457,-94425.79381773398,-94421.3905240763,-94416.87547169632,-94412.44982629416,-94407.9347739142,-94403.5314802565,-94396.91536389773,-94394.30020979646,-94411.89103268279,-94412.02514314951,-94407.55479425845,-94402.97268664512,-94398.52468949852,-94394.05434060746,-94389.60634346085,-94385.24775329206,-94379.25748577804,-94373.91541885323,-94391.61800046182,-94394.36726502982,-94389.87456439431,-94385.40421550325,-94380.88916312327,-94376.44116597666,-94372.10492755234,-94367.67928215019,-94362.56073266992,-94354.33529071037,-94367.70163389464,-94377.08936656588,-94373.04370081946,-94368.59570367285,-94364.08065129288,-94359.63265414628,-94355.22936048858,-94350.78136334197,-94344.14289523875,-94341.59479637085,-94358.51506692352,-94358.11273552332,-94353.73179361007,-94349.23909297456,-94344.79109582795,-94340.47720914808,-94336.00686025702,-94331.49180787704,-94325.05450547392,-94321.58998508335,-94339.69489809214,-94340.65602310373,-94336.14097072375,-94331.73767706606,-94327.31203166391,-94322.90873800621,-94318.37133388178,-94314.012743713,-94306.59196455384,-94306.16728140919,-94325.99327874104,-94326.50736886352,-94321.99231648355,-94317.52196759247,-94312.98456346805,-94308.5589180659,-94304.17797615266,-94299.75233075052,-94295.28198185944,-94288.84467945632,-94284.59784800981,-94304.51325231949,-94308.40245585471,-94303.9544587081,-94299.52881330595,-94295.08081615934,-94290.67752250166,-94286.25187709951,-94281.8038799529,-94277.31117931739,-94271.96911239256,-94264.48127800004,-94280.46277528559,-94287.77179572247,-94283.48026078705,-94279.07696712935,-94274.62896998275,-94270.18097283614,-94265.77767917844,-94261.39673726521,-94255.98761510702,-94249.08092607032,-94265.24123731152,-94269.75628969149,-94265.3976995227,-94260.94970237609,-94256.38994650722,-94251.80783889387,-94247.40454523618,-94243.06830681185,-94235.53576893041,-94236.7874666199,-94253.7971441504,-94252.23252203852,-94247.78452489192,-94243.38123123422,-94238.91088234316,-94234.46288519655,-94230.01488804995,-94225.56689090334,-94217.11793149925,-94224.78457984742,-94237.41331546466,-94233.92644332963,-94229.47844618303,-94225.07515252533,-94220.60480363427,-94216.24621346548,-94211.86527155225,-94207.46197789455,-94200.35412315775,-94198.4318731346,-94217.90024255517,-94218.92842280012,-94214.4357221646,-94209.987725018,-94205.5844313603,-94201.1811377026,-94196.71078881154,-94192.19573643157,-94184.75260552796,-94186.31722763983,-94202.00815224745,-94199.84003303529,-94195.30262891087,-94190.87698350872,-94186.47368985102,-94181.95863747105,-94177.55534381335,-94173.04029143338,-94164.70309075154,-94170.15691639864,-94186.42898636211,-94184.03734970538,-94179.58935255877,-94175.05194843435,-94170.6263030322,-94166.1783058856,-94161.68560525008,-94156.47764879199,-94149.28038707738,-94163.78666922888,-94167.69822450855,-94163.20552387304,-94158.73517498198,-94154.30952957983,-94149.92858766658,-94145.5252940089,-94141.01024162892,-94135.0199741149,-94129.43203800108,-94148.05104113235,-94152.67785223458,-94148.29691032135,-94143.84891317475,-94139.37856428369,-94134.95291888154,-94130.54962522384,-94126.07927633278,-94121.09483731924,-94112.8693953597,-94126.92864262208,-94136.49518924895,-94132.40482001363,-94127.93447112257,-94123.55352920933,-94119.19493904054,-94114.74694189393,-94110.27659300287,-94105.91800283409,-94099.4583486865,-94095.61384864019,-94114.07638956027,-94115.73041864997,-94111.28242150336,-94106.85677610121,-94102.38642721015,-94098.07254053028,-94093.57983989475,-94089.08713925924,-94082.04633975582,-94081.3087321888,-94099.61481089769,-94099.19012775304,-94094.76448235089,-94090.33883694874,-94085.91319154658,-94081.42049091107,-94076.99484550892,-94072.59155185122,-94068.03179598234,-94059.76165053388,-94065.39429013661,-94080.88404904415,-94078.24654319842,-94073.84324954072,-94069.43995588303,-94064.9472552475,-94060.52160984535,-94056.16301967658,-94050.59743530721,-94043.6013392927,-94060.94629299,-94068.36707214918,-94064.03083372484,-94059.62754006714,-94055.24659815391,-94050.79860100731,-94046.32825211623,-94041.85790322517,-94037.38755433411,-94031.77726647584,-94025.56348151725,-94042.66256602557,-94046.66352828307,-94042.19317939201,-94037.67812701204,-94033.25248160989,-94028.7374292299,-94024.33413557222,-94019.95319365898,-94012.443007522,-94013.62764997812,-94030.5926240197,-94029.07270539674,-94024.55765301677,-94020.19906284798,-94015.81812093474,-94011.34777204368,-94006.87742315262,-94002.1388533281,-93993.935763113,-94005.60337371867,-94013.4935395114,-94009.33611504271,-94004.82106266274,-94000.37306551613,-93995.96977185844,-93991.54412645628,-93987.11848105413,-93982.20109727397,-93973.84154484767,-93987.20788803195,-93999.05431259326,-93995.27686778033,-93990.89592586708,-93986.33616999819,-93981.97757982941,-93977.52958268281,-93973.17099251402,-93968.54418141177,-93960.05051851875,-93969.39354770107,-93980.81528911773,-93977.01549256033,-93972.54514366927,-93968.14185001157,-93963.80561158725,-93959.424669674,-93954.90961729403,-93946.93004452348,-93951.24393120337,-93964.72203310991,-93961.7268993529,-93957.25655046184,-93952.80855331523,-93948.42761140199,-93944.06902123321,-93939.6210240866,-93935.19537868445,-93927.88635824756,-93927.55108208074,-93947.15356196804,-93947.75705906833,-93943.39846889956,-93938.99517524186,-93934.63658507307,-93930.14388443755,-93925.67353554649,-93921.2702418888,-93916.79989299773,-93908.37328533808,-93914.76588425231,-93930.45680885993,-93927.70754429193,-93923.23719540087,-93918.81154999872,-93914.47531157438,-93910.02731442777,-93905.57931728117,-93901.28778234575,-93896.03512239875,-93888.07790137267,-93903.67941900247,-93914.1176836631,-93910.18377663897,-93905.78048298127,-93901.33248583466,-93896.97389566588,-93892.6153054971,-93888.2120118394,-93883.78636643724,-93878.62311346807,-93870.77765116426,-93885.48509901584,-93892.77176770828,-93888.52493626178,-93884.16634609298,-93879.69599720192,-93875.24800005532,-93870.82235465317,-93866.46376448439,-93861.83695338214,-93853.18682827793,-93862.19458129341,-93876.74556693382,-93873.59397096562,-93869.16832556347,-93864.83208713915,-93860.42879348145,-93856.0031480793,-93851.5998544216,-93847.28596774173,-93840.69220312742,-93837.67471762595,-93856.22666552385,-93857.21014227989,-93852.8515521111,-93848.42590670894,-93844.06731654017,-93839.61931939356,-93835.19367399141,-93830.81273207816,-93825.96240353136,-93817.42403714944,-93829.91866229996,-93840.98277580533,-93837.13827575902,-93832.66792686796,-93828.15287448799,-93823.81663606365,-93819.3909906615,-93815.01004874827,-93810.65145857948,-93803.92358349843,-93801.59900207508,-93820.08389473963,-93820.62033660655,-93816.23939469332,-93811.76904580224,-93807.3434004001,-93802.9401067424,-93798.4921095958,-93793.79824326019,-93785.34928385608,-93795.5863828166,-93807.16458644446,-93803.36478988705,-93798.894440996,-93794.44644384939,-93790.02079844724,-93785.66220827845,-93781.2365628763,-93776.67680700742,-93768.07138539212,-93775.76038548475,-93792.47949033731,-93789.95374321387,-93785.4833943228,-93781.12480415402,-93776.76621398523,-93772.40762381646,-93767.9372749254,-93763.5339812677,-93759.1753910989,-93753.20747532934,-93747.57483572661,-93766.14913536896,-93770.79829821567,-93766.39500455797,-93761.92465566691,-93757.61076898704,-93753.25217881825,-93748.78182992719,-93744.31148103613,-93739.9752426118,-93732.30859426362,-93734.14143730896,-93751.46403926183,-93750.05587936114,-93745.67493744791,-93741.18223681238,-93736.8236466436,-93732.42035298591,-93727.95000409485,-93723.47965520379,-93718.45051270134,-93710.51564341971,-93725.20073952684,-93734.0743820756,-93729.91695760691,-93725.53601569367,-93721.11037029153,-93716.68472488938,-93712.30378297613,-93707.90048931843,-93702.20079448233,-93696.67991360187,-93712.52730042068,-93714.04721904364,-93709.50981491922,-93705.12887300598,-93700.72557934828,-93696.32228569059,-93691.9636955218,-93686.97925650828,-93678.88792501544,-93692.94717227784,-93701.75375959322,-93697.6633903579,-93693.28244844466,-93688.83445129805,-93684.45350938482,-93680.05021572713,-93675.62457032497,-93669.58959932203,-93665.23100915326,-93681.74894830573,-93682.17363145038,-93677.81504128159,-93673.45645111281,-93669.09786094402,-93664.7616225197,-93660.20186665081,-93655.88797997094,-93648.8024769786,-93648.22133162277,-93666.4603550983,-93665.99096846473,-93661.56532306259,-93657.16202940489,-93652.7587357472,-93648.28838685613,-93643.88509319843,-93639.43709605183,-93631.03284013663,-93638.65478499589,-93651.39527933543,-93648.02016592267,-93643.61687226497,-93639.19122686282,-93634.74322971622,-93630.36228780297,-93626.0036976342,-93618.47115975275,-93619.5440434866,-93636.66547973937,-93635.14556111641,-93630.76461920317,-93626.40602903439,-93622.0027353767,-93617.62179346345,-93613.30790678358,-93608.90461312588,-93603.27197352314,-93597.05818856457,-93614.20197656179,-93618.2923457971,-93613.82199690604,-93609.37399975944,-93604.94835435729,-93600.65681942187,-93596.32058099755,-93591.80552861757,-93585.2341157477,-93582.39544420189,-93600.47800546623,-93601.03679907761,-93596.63350541992,-93592.20786001776,-93587.78221461561,-93583.334217469,-93578.99797904468,-93574.61703713144,-93569.16321148434,-93561.94359802527,-93578.57329590003,-93585.4352814478,-93581.14374651239,-93576.74045285469,-93572.35951094146,-93568.00092077267,-93563.55292362606,-93559.17198171282,-93554.72398456621,-93546.8785222624,-93549.53837985259,-93567.19625797227,-93565.72104283822,-93561.29539743607,-93556.89210377839,-93552.5335136096,-93548.19727518527,-93543.77162978312,-93538.96600472523,-93530.56174881003,-93542.36346988243,-93552.55586535405,-93548.62195832992,-93544.15160943885,-93539.63655705888,-93535.32267037901,-93530.91937672131,-93526.4266760858,-93522.06808591701,-93514.60260326894,-93515.98841142518,-93532.34988836646,-93530.58410055448,-93526.11375166342,-93521.6210510279,-93517.15070213685,-93512.81446371252,-93508.38881831037,-93500.49865251764,-93504.76783570861,-93518.2682893596,-93515.16139688033,-93510.73575147818,-93506.26540258712,-93501.99621939614,-93497.61527748291,-93493.1672803363,-93488.45106225624,-93479.84564064094,-93490.6191814684,-93503.78435895257,-93500.29748681754,-93495.84948967093,-93491.40149252432,-93487.0205506111,-93482.75136742013,-93478.39277725134,-93473.98948359364,-93468.20038177972,-93462.23246601016,-93480.18091680777,-93484.78537616556,-93480.40443425233,-93476.00114059463,-93471.62019868138,-93467.28396025706,-93462.92537008827,-93458.43266945276,-93450.76602110459,-93452.9117885723,-93469.49678295813,-93467.77569863507,-93463.41710846628,-93458.92440783077,-93454.52111417307,-93450.16252400429,-93445.7592303466,-93441.4006401778,-93436.72912558664,-93428.07900048245,-93438.18198897624,-93451.23540773815,-93447.81559083649,-93443.38994543433,-93438.98665177663,-93434.60570986339,-93430.22476795016,-93425.84382603691,-93421.44053237922,-93416.0984654544,-93408.87885199534,-93425.57560510346,-93432.28112844004,-93428.01194524908,-93423.51924461356,-93419.22770967815,-93414.802064276,-93410.48817759613,-93406.17429091624,-93401.61453504737,-93393.3443895989,-93398.52999431253,-93415.4502648652,-93413.32684914194,-93408.90120373979,-93404.52026182655,-93400.02756119103,-93395.62426753333,-93391.33273259792,-93386.8400319624,-93382.50379353808,-93375.17242135674,-93375.79827020149,-93394.7972529885,-93394.43962507721,-93389.96927618615,-93385.56598252845,-93381.11798538185,-93376.7370434686,-93372.31139806645,-93367.86340091984,-93359.6379589603,-93365.38235728531,-93380.11215688135,-93377.29583707999,-93372.87019167784,-93368.42219453123,-93364.06360436244,-93359.70501419366,-93355.34642402487,-93350.9878338561,-93343.70116516366,-93343.99173784158,-93361.31433979445,-93360.24145606058,-93355.81581065845,-93351.36781351184,-93347.00922334305,-93342.67298491872,-93338.24733951657,-93333.70993539214,-93325.10451377685,-93333.08408654739,-93349.1326390663,-93346.51748496504,-93342.09183956288,-93337.73324939409,-93333.28525224749,-93328.85960684533,-93324.52336842101,-93320.09772301886,-93315.78383633899,-93307.73720833508,-93311.35819093684,-93328.01024055603,-93325.88682483278,-93321.46117943063,-93317.01318228402,-93312.63224037079,-93308.25129845754,-93303.8703565443,-93299.46706288662,-93294.10264421733,-93286.74892029155,-93303.6691908442,-93311.91698454821,-93307.71485659062,-93303.19980421064,-93298.86356578632,-93294.54967910644,-93290.23579242657,-93285.83249876887,-93281.47390860009,-93276.69063528665,-93268.17462064918,-93280.78100452197,-93292.58272559437,-93288.84998427035,-93284.40198712374,-93280.04339695495,-93275.68480678616,-93271.259161384,-93266.92292295968,-93262.45257406862,-93254.51770478698,-93258.27279785548,-93274.7683852635,-93272.57791430688,-93268.15226890473,-93263.83838222484,-93259.43508856716,-93255.07649839837,-93250.69555648512,-93246.38166980525,-93239.22911157955,-93238.31269005689,-93257.17756237717,-93257.28932109945,-93252.81897220838,-93248.39332680624,-93244.07944012636,-93239.72084995758,-93235.31755629988,-93230.89191089773,-93226.60037596231,-93219.04548633641,-93219.71603867007,-93238.64796622373,-93238.33504180134,-93233.97645163257,-93229.55080623041,-93225.23691955053,-93220.94538461512,-93216.47503572406,-93212.13879729972,-93206.752026886,-93199.33124772683,-93216.2515182795,-93224.47696023906,-93220.29718402591,-93215.91624211267,-93211.6023554328,-93207.24376526401,-93202.90752683968,-93198.48188143753,-93194.07858777983,-93189.20590748858,-93181.0475207624,-93195.12911976923,-93204.78507337393,-93200.73940762752,-93196.26905873646,-93191.86576507876,-93187.48482316552,-93183.10388125227,-93178.76764282795,-93174.3867009147,-93166.87651477773,-93167.74823281149,-93186.0990150093,-93185.2943522089,-93180.8463550623,-93176.51011663796,-93172.240933447,-93167.7929363004,-93163.41199438716,-93159.05340421837,-93154.65011056067,-93146.35761336776,-93151.9902529705,-93166.69770082209,-93163.97078799854,-93159.56749434084,-93155.09714544978,-93150.67150004763,-93146.31290987885,-93141.9319679656,-93137.57337779683,-93130.01848817093,-93130.75609573795,-93149.77743026942,-93149.39745061367,-93144.97180521152,-93140.56851155384,-93136.2322731295,-93131.87368296072,-93127.47038930302,-93122.82122645632,-93114.37226705221,-93124.4305520571,-93136.74636325198,-93133.23713937249,-93128.83384571479,-93124.47525554601,-93120.13901712168,-93115.75807520845,-93111.35478155075,-93106.95148789305,-93102.48113900199,-93094.21099355353,-93100.91651689012,-93114.9757641525,-93111.91357516212,-93107.55498499334,-93103.28580180238,-93098.92721163359,-93094.41215925362,-93089.96416210702,-93081.80577538082,-93086.94667660556,-93101.5200139904,-93098.61428721123,-93094.16629006462,-93089.85240338474,-93085.44910972705,-93080.95640909152,-93076.6201706672,-93072.35098747624,-93067.03127229588,-93059.83401058127,-93076.70957764502,-93084.15270854863,-93079.86117361322,-93075.45787995552,-93071.07693804229,-93066.74069961795,-93062.40446119363,-93057.97881579147,-93053.26259771141,-93044.88069354066,-93055.18484773456,-93066.02544379538,-93062.13624026017,-93057.73294660247,-93053.37435643368,-93049.0157662649,-93044.65717609611,-93040.32093767179,-93035.20238819151,-93027.49103635443,-93042.77962956186,-93050.22276046548,-93046.04298425234,-93041.68439408355,-93037.30345217031,-93032.92251025708,-93028.67567881057,-93024.29473689733,-93019.60087056171,-93011.21896639097,-93021.54547232932,-93032.4084201346,-93028.51921659938,-93024.09357119723,-93019.73498102844,-93015.37639085966,-93011.01780069087,-93006.61450703317,-93000.37837033015,-92996.6456290061,-93013.90117572561,-93014.43761759253,-93010.0566756793,-93005.6533820216,-93001.33949534173,-92996.91384993958,-92992.55525977079,-92985.46975677846,-92984.86625967817,-93003.1052831537,-93002.77000698686,-92998.36671332917,-92994.00812316038,-92989.62718124714,-92985.33564631172,-92980.9994078874,-92976.64081771861,-92969.10827983716,-92969.48825949291,-92989.02368414684,-92989.18014635803,-92984.7992044448,-92980.44061427601,-92976.03732061831,-92971.67873044954,-92967.20838155848,-92962.78273615632,-92958.46884947644,-92952.88091336262,-92946.19774177048,-92964.28030303483,-92971.76813742735,-92967.63306470313,-92963.18506755652,-92958.75942215437,-92954.44553547449,-92949.97518658343,-92945.68365164801,-92941.36976496814,-92937.01117479935,-92932.1384945081,-92923.82364557072,-92937.2346922439,-92949.21522727195,-92945.59424467018,-92941.14624752359,-92936.7876573548,-92932.3843636971,-92928.07047701723,-92923.7342385929,-92918.79450306827,-92910.434950642,-92923.04133451478,-92932.60788114165,-92928.69632586198,-92924.24832871537,-92919.86738680213,-92915.55350012226,-92911.10550297565,-92906.72456106241,-92901.15897669304,-92894.94519173446,-92912.46895938742,-92917.14047397858,-92912.7818838098,-92908.51270061883,-92904.1317587056,-92899.75081679235,-92895.34752313465,-92891.10069168815,-92886.80915675273,-92879.67895027148,-92878.71782525991,-92898.11913944711,-92898.7226365474,-92894.34169463417,-92889.98310446538,-92885.57981080769,-92881.26592412782,-92876.90733395902,-92872.63815076806,-92867.13962163206,-92860.63526399557,-92877.13085140358,-92881.13181366108,-92876.72852000338,-92872.3252263457,-92868.10074664364,-92863.69745298594,-92859.33886281715,-92854.91321741501,-92846.57601673318,-92853.12507785858,-92867.2737320988,-92864.27859834179,-92859.9647116619,-92855.62847323758,-92851.15812434652,-92846.84423766664,-92842.4632957534,-92838.12705732907,-92830.99685084783,-92830.39335374754,-92848.63237722307,-92848.34180454515,-92843.98321437636,-92839.55756897421,-92835.15427531651,-92830.79568514774,-92826.54885370123,-92822.03380132125,-92814.25539425081,-92816.98230707436,-92834.6625369385,-92833.25437703781,-92828.89578686903,-92824.6042519336,-92820.24566176483,-92815.77531287377,-92811.39437096052,-92807.10283602511,-92801.26903072227,-92795.5022806528,-92812.9589930724,-92816.37880997406,-92811.95316457191,-92807.63927789203,-92803.19128074542,-92798.83269057664,-92794.51880389676,-92789.93669628343,-92781.39832990151,-92791.68013235094,-92803.21363248989,-92799.4585394214,-92795.14465274151,-92790.76371082828,-92786.42747240394,-92782.04653049071,-92777.71029206637,-92773.37405364205,-92768.47902160634,-92760.1418209245,-92773.50816410877,-92783.83467004713,-92779.96781825637,-92775.56452459867,-92771.22828617434,-92766.86969600555,-92762.4440506034,-92758.0407569457,-92753.52570456573,-92745.27791086173,-92751.87167547604,-92766.71323379436,-92763.85221050409,-92759.44891684639,-92755.02327144424,-92750.77643999773,-92746.37314634003,-92741.94750093788,-92737.05246890217,-92728.9387856649,-92742.23807361581,-92750.32940510863,-92746.23903587331,-92741.83574221561,-92737.43244855791,-92733.07385838912,-92728.71526822035,-92724.3343263071,-92717.76291343724,-92714.67837270242,-92733.76676246725,-92735.4431433014,-92731.0398496437,-92726.59185249709,-92722.27796581722,-92717.91937564843,-92713.49373024628,-92709.17984356641,-92702.65313418546,-92700.14973880646,-92717.1817680814,-92716.91354714794,-92712.55495697916,-92708.10695983256,-92703.79307315267,-92699.38977949499,-92695.05354107065,-92690.80670962414,-92686.35871247754,-92677.95445656234,-92684.34705547657,-92700.14973880646,-92697.5345847052,-92693.10893930304,-92688.7727008787,-92684.45881419884,-92680.07787228559,-92675.78633735018,-92671.33834020357,-92663.55993313312,-92665.99627327875,-92684.28000024319,-92683.25181999824,-92678.84852634056,-92674.44523268286,-92670.04193902516,-92665.68334885637,-92661.3247586876,-92656.85440979654,-92648.42780213688,-92656.74265107425,-92670.46662216981,-92667.18091573489,-92662.79997382165,-92658.46373539731,-92654.12749697299,-92649.67949982638,-92645.38796489096,-92641.07407821108,-92636.76019153121,-92630.0099647057,-92627.43951409335,-92646.88553176947,-92648.47250562579,-92644.15861894592,-92639.77767703267,-92635.4190868639,-92631.03814495065,-92626.72425827078,-92622.32096461309,-92617.358877344,-92609.15578712891,-92622.63388903545,-92632.13338042896,-92628.17712166037,-92623.77382800268,-92619.4599413228,-92615.0566476651,-92610.74276098523,-92606.45122604982,-92601.17621435836,-92593.48721426574,-92609.53576678464,-92617.71650525529,-92613.58143253106,-92609.15578712891,-92604.73014172676,-92600.37155155797,-92596.21412708929,-92591.78848168714,-92587.40753977389,-92582.51250773818,-92574.33176926753,-92587.83222291854,-92597.39876954541,-92593.44251077682,-92589.08392060804,-92584.68062695034,-92580.27733329264,-92575.94109486832,-92570.68843492132,-92563.22295227325,-92578.73506292523,-92586.13349033994,-92581.90901063789,-92577.59512395802,-92573.28123727813,-92568.94499885381,-92564.54170519611,-92560.16076328287,-92555.86922834745,-92549.49898117769,-92545.5427224091,-92564.96638834076,-92567.82741163105,-92563.42411797335,-92558.9984725712,-92554.66223414686,-92550.23658874472,-92545.92270206484,-92541.56411189606,-92537.29492870509,-92532.10932399146,-92524.4873791322,-92540.67004211784,-92550.34834746699,-92546.32503346504,-92542.07820201853,-92537.60785312747,-92533.24926295868,-92528.93537627881,-92524.6438413434,-92520.26289943015,-92514.63025982742,-92508.66234405784,-92525.58261461051,-92528.93537627881,-92524.57678611002,-92520.26289943015,-92515.90430926137,-92511.56807083703,-92507.29888764607,-92502.89559398837,-92495.47481482921,-92496.57005030752,-92514.31733540504,-92513.24445167118,-92508.84115801349,-92504.50491958916,-92500.16868116483,-92495.89949797386,-92491.49620431616,-92487.1823176363,-92481.14734663337,-92475.827631453,-92495.25129738466,-92500.6827712873,-92496.36888460742,-92491.92088746082,-92487.5846490365,-92483.2260588677,-92478.86746869893,-92474.59828550796,-92470.21734359472,-92462.10366035745,-92467.19985809326,-92481.7731954781,-92478.91217218783,-92474.55358201904,-92470.10558487244,-92465.79169819257,-92461.45545976824,-92457.14157308836,-92452.8723898974,-92448.2679305396,-92439.64015717986,-92450.59251196295,-92463.89179991386,-92460.6284452234,-92456.18044807679,-92451.84420965245,-92447.53032297258,-92443.14938105934,-92438.79079089056,-92434.45455246622,-92427.74902912963,-92425.7150203842,-92443.77522990409,-92443.97639560419,-92439.59545369094,-92435.23686352216,-92431.01238382011,-92426.58673841796,-92422.25049999364,-92417.84720633594,-92409.44295042074,-92415.88025282386,-92431.5711774315,-92429.00072681913,-92424.6197849059,-92420.37295345939,-92416.12612201288,-92411.74518009964,-92407.27483120858,-92402.98329627316,-92397.35065667042,-92391.33803741194,-92408.34771494243,-92411.74518009964,-92407.38658993084,-92402.98329627316,-92398.62470610437,-92394.3108194245,-92389.97458100016,-92383.47022336368,-92380.83271751794,-92398.44589214872,-92398.60235435991,-92394.28846768005,-92389.99693274462,-92385.52658385356,-92381.14564194033,-92376.83175526044,-92372.47316509167,-92366.59465629992,-92361.2525893751,-92379.3575023839,-92382.84437451893,-92378.46343260568,-92374.1048424369,-92369.74625226812,-92365.41001384378,-92361.051423675,-92356.78224048404,-92351.95426368169,-92343.63941474432,-92356.2457986171,-92367.24285688912,-92363.46541207617,-92359.12917365185,-92354.81528697196,-92350.5014002921,-92346.20986535668,-92341.91833042125,-92337.40327804128,-92329.06607735946,-92336.79978094099,-92349.60733051389,-92346.18751361223,-92341.85127518789,-92337.47033327464,-92333.13409485032,-92328.82020817045,-92324.41691451275,-92319.83480689941,-92311.47525447313,-92322.56171972296,-92333.44701927269,-92329.6919262042,-92325.40039126878,-92321.01944935555,-92316.72791442013,-92312.3916759958,-92308.12249280483,-92303.00394332457,-92295.42670195422,-92310.84940562838,-92318.35959176536,-92314.20216729668,-92309.8882806168,-92305.64144917029,-92301.32756249042,-92296.99132406608,-92292.67743738621,-92288.36355070634,-92280.92041980273,-92282.01565528104,-92299.71823688963,-92298.64535315578,-92294.30911473146,-92290.0399315405,-92285.56958264942,-92281.30039945846,-92276.98651277859,-92272.40440516525,-92264.00014925006,-92274.23724821059,-92285.92721056071,-92282.23917272559,-92277.85823081234,-92273.56669587693,-92269.16340221923,-92264.93892251718,-92260.64738758176,-92254.99239623456,-92248.5774455759,-92266.23532369558,-92271.64444585377,-92267.30820742944,-92262.94961726066,-92258.63573058078,-92254.3218439009,-92250.05266070995,-92245.78347751898,-92241.35783211683,-92234.16057040222,-92234.11586691331,-92252.73487004457,-92252.46664911111,-92248.1751141757,-92243.79417226245,-92239.48028558258,-92235.16639890271,-92230.87486396728,-92226.58332903187,-92221.91181444071,-92213.32874456988,-92224.23639586406,-92238.38505010428,-92235.16639890271,-92230.83016047838,-92226.4715703096,-92222.24709060755,-92217.95555567212,-92213.6193172478,-92209.30543056793,-92202.66696246469,-92200.67765720817,-92218.82727370587,-92218.98373591706,-92214.62514574829,-92210.2665555795,-92206.01972413299,-92201.77289268648,-92197.45900600661,-92193.14511932673,-92187.02074134597,-92182.81861338839,-92201.41526477519,-92203.60573573182,-92199.31420079639,-92195.02266586098,-92190.73113092556,-92186.43959599014,-92182.03630233245,-92177.74476739703,-92172.96149408359,-92164.82545910186,-92178.9070581087,-92189.4123780027,-92185.54552621192,-92181.14223255424,-92176.87304936326,-92172.55916268339,-92168.17822077015,-92163.88668583473,-92159.66220613268,-92152.97903454055,-92150.74386009501,-92169.80989811539,-92170.9051335937,-92166.61359865828,-92162.25500848949,-92157.94112180962,-92153.67193861866,-92149.4027554277,-92145.11122049228,-92140.57381636785,-92132.08015347483,-92140.26089194548,-92155.504781664,-92152.73316535154,-92148.44163041611,-92144.10539199179,-92139.76915356745,-92135.47761863204,-92131.18608369662,-92126.96160399457,-92122.17833068113,-92113.7964265104,-92126.35810689427,-92137.60103435529,-92133.82358954234,-92129.42029588466,-92125.15111269368,-92120.83722601381,-92116.50098758949,-92112.20945265406,-92107.9402694631,-92102.01705718244,-92097.61376352474,-92115.15988292216,-92116.83626375631,-92112.47767358753,-92108.25319388548,-92103.96165895005,-92099.64777227018,-92095.24447861248,-92087.15314711966,-92093.16576637814,-92106.39799909569,-92103.17934789413,-92098.86546121424,-92094.52922278992,-92090.2376878545,-92086.0355598969,-92081.8334319393,-92077.45249002606,-92069.49526899998,-92073.60798997975,-92088.69541748708,-92086.21437385255,-92081.96754240604,-92077.5866004928,-92073.29506555738,-92068.93647538859,-92064.68964394208,-92060.21929505102,-92051.77033564691,-92058.49821072796,-92076.49136501449,-92074.74792894696,-92070.36698703373,-92066.07545209832,-92061.85097239626,-92057.58178920529,-92053.29025426987,-92048.99871933446,-92044.34955648775,-92035.90059708364,-92046.13769604417,-92058.58761770578,-92055.03369033738,-92050.60804493524,-92046.31650999982,-92042.09203029776,-92037.8675505957,-92033.55366391584,-92029.21742549152,-92024.56826264481,-92016.05224800733,-92027.76456210192,-92040.3262424858,-92036.9734808175,-92032.65959413763,-92028.30100396884,-92023.94241380006,-92019.6732306091,-92015.40404741812,-92011.09016073825,-92005.50222462443,-91998.88610826565,-92017.03572476337,-92024.63531787817,-92020.41083817612,-92016.09695149625,-92011.716009583,-92007.42447464759,-92003.04353273434,-91998.84140477674,-91994.52751809687,-91989.74424478343,-91981.6082098017,-91994.95220124153,-92003.89289902365,-91999.84723327724,-91995.55569834182,-91991.21945991748,-91986.92792498207,-91982.6140383022,-91978.34485511122,-91972.64516027513,-91966.96781718348,-91984.42452960307,-91987.88904999365,-91983.61986680268,-91979.23892488945,-91974.90268646511,-91970.63350327415,-91966.34196833873,-91962.11748863668,-91956.77542171186,-91949.91343616408,-91966.29726484983,-91971.68403526355,-91967.41485207259,-91963.0562619038,-91958.74237522393,-91954.45084028851,-91950.13695360863,-91945.84541867321,-91939.20695056999,-91937.10588659119,-91955.61313100018,-91956.21662810048,-91951.92509316506,-91947.56650299627,-91943.20791282749,-91938.89402614761,-91934.69189819001,-91930.35565976569,-91923.53837770682,-91922.42079048406,-91939.74339243691,-91939.11754359216,-91934.78130516784,-91930.46741848797,-91926.17588355254,-91921.79494163931,-91917.5481101928,-91913.1001130462,-91904.65115364209,-91912.07193280125,-91927.22641554194,-91924.43244748503,-91920.18561603852,-91915.93878459201,-91911.55784267877,-91907.22160425445,-91902.93006931903,-91898.57147915024,-91891.50832790237,-91890.14487149059,-91910.90964208957,-91913.3012787463,-91909.07679904424,-91904.65115364209,-91900.24785998439,-91895.97867679343,-91891.73184534692,-91887.37325517813,-91883.05936849826,-91878.70077832947,-91870.49768811437,-91875.92916201701,-91892.20123198048,-91890.05546451277,-91885.67452259953,-91881.22652545292,-91876.9349905175,-91872.75521430436,-91868.4860311134,-91864.14979268907,-91859.79120252028,-91851.45400183846,-91857.91365598603,-91873.64928408257,-91871.12353695912,-91866.80965027925,-91862.49576359938,-91858.20422866395,-91853.86799023963,-91849.71056577093,-91845.41903083552,-91839.13819064357,-91835.13722838608,-91854.87381874012,-91858.36069087514,-91854.02445245082,-91849.66586228203,-91845.3296238577,-91841.14984764456,-91836.83596096469,-91832.43266730699,-91828.14113237157,-91822.46378927992,-91816.71939095491,-91834.60078651915,-91838.64645226556,-91834.4219725635,-91830.10808588364,-91825.81655094822,-91821.50266426834,-91817.30053631074,-91813.00900137532,-91806.30347803874,-91804.18006231548,-91822.77671370229,-91823.46961778041,-91819.11102761162,-91814.81949267621,-91810.52795774078,-91806.25877454982,-91801.94488786995,-91797.63100119008,-91790.8137191312,-91789.53966969725,-91808.04691410625,-91808.20337631743,-91803.93419312646,-91799.6203064466,-91795.28406802227,-91790.99253308684,-91786.70099815143,-91782.45416670492,-91778.14028002505,-91770.09365202114,-91775.0110358013,-91790.3666842421,-91787.79623362974,-91783.43764346096,-91779.10140503662,-91774.83222184566,-91770.54068691024,-91766.2044484859,-91762.04702401723,-91755.11798323608,-91753.68747159094,-91774.27342823427,-91776.41919570198,-91772.15001251102,-91767.8584775756,-91763.54459089573,-91759.29775944923,-91754.98387276934,-91750.60293085611,-91746.44550638742,-91740.29877666221,-91735.8507795156,-91754.78270706924,-91757.68843384844,-91753.26278844629,-91748.79243955523,-91744.54560810872,-91740.32112840666,-91736.07429696016,-91731.8498172581,-91727.49122708933,-91719.86928223007,-91721.47860783084,-91740.09761096211,-91739.51646560627,-91735.11317194859,-91730.7545817798,-91726.46304684438,-91722.26091888678,-91718.08114267363,-91713.76725599376,-91709.36396233607,-91702.81490121066,-91699.90917443146,-91718.59523279611,-91719.71282001887,-91715.39893333899,-91711.10739840358,-91706.81586346816,-91702.52432853275,-91698.16573836395,-91693.78479645071,-91686.20755508037,-91688.12980510353,-91705.51946228975,-91704.15600587797,-91699.88682268701,-91695.50588077378,-91691.2366975828,-91686.94516264739,-91682.65362771197,-91677.24450555378,-91670.24840953927,-91686.87810741403,-91692.93543016141,-91688.75565394828,-91684.44176726839,-91680.19493582188,-91675.92575263092,-91671.54481071769,-91667.23092403781,-91662.91703735794,-91655.87623785452,-91655.25038900977,-91673.60117120757,-91673.35530201856,-91669.01906359424,-91664.70517691436,-91660.2795315122,-91655.96564483234,-91651.69646164138,-91647.42727845041,-91640.72175511382,-91638.3301184571,-91657.44085996639,-91658.55844718915,-91654.26691225373,-91649.95302557386,-91645.54973191617,-91641.2805487252,-91637.0337172787,-91632.65277536545,-91628.20477821885,-91619.88992928147,-91628.51770264121,-91640.69940336936,-91637.2795864677,-91632.87629281,-91628.54005438568,-91624.18146421689,-91619.86757753702,-91615.48663562378,-91609.56342334312,-91604.84720526305,-91623.13093222749,-91626.01430726223,-91621.78982756018,-91617.38653390248,-91613.05029547814,-91608.75876054273,-91604.53428084067,-91600.2203941608,-91595.23595514726,-91587.30108586563,-91601.44974010585,-91609.71988555431,-91605.60716457453,-91601.24857440575,-91597.00174295924,-91592.68785627936,-91588.32926611058,-91583.99302768624,-91578.74036773926,-91571.43134730236,-91587.52460331019,-91594.29718188015,-91590.09505392255,-91585.75881549822,-91581.48963230726,-91577.10869039402,-91572.88421069196,-91568.59267575655,-91563.83175418756,-91555.606312228,-91568.30210307862,-91577.86864970549,-91573.89003919245,-91569.48674553476,-91565.15050711042,-91560.94837915283,-91556.63449247295,-91552.27590230417,-91547.91731213538,-91539.46835273127,-91547.87260864647,-91562.37889079796,-91559.42846052986,-91555.04751861663,-91550.7559836812,-91546.39739351242,-91542.03880334363,-91537.72491666376,-91533.50043696171,-91528.53834969264,-91520.62583215545,-91534.68507941785,-91542.82111439957,-91538.68604167533,-91534.41685848437,-91530.12532354896,-91525.78908512463,-91521.58695716703,-91517.34012572053,-91510.43343668383,-91509.33820120552,-91526.66080315839,-91526.01260256919,-91521.6540124004,-91517.40718095389,-91513.09329427402,-91508.73470410523,-91504.48787265872,-91500.1963377233,-91492.21676495275,-91497.22355571075,-91511.84159658452,-91509.11468376097,-91504.66668661436,-91500.33044819003,-91496.08361674352,-91491.85913704147,-91487.52289861714,-91483.05254972608,-91474.60359032197,-91482.9407910038,-91497.58118362202,-91494.60840160947,-91490.24981144069,-91485.93592476082,-91481.6443898254,-91477.35285488998,-91473.03896821011,-91468.81448850805,-91463.83004949451,-91456.00693893516,-91470.82614550903,-91478.31397990156,-91474.13420368842,-91469.75326177517,-91465.48407858421,-91461.25959888216,-91456.9904156912,-91451.84951446648,-91444.16051437384,-91459.7843837481,-91468.12158442993,-91464.00886345016,-91459.69497677029,-91455.42579357933,-91451.08955515499,-91446.79802021958,-91442.46178179524,-91438.17024685982,-91432.3811450459,-91427.19554033226,-91444.96517717424,-91447.73679348669,-91443.35585157346,-91439.19842710477,-91434.95159565826,-91430.61535723392,-91426.2344153207,-91421.36173502944,-91413.38216225889,-91427.5308164991,-91436.35975555895,-91432.29173806807,-91427.95549964375,-91423.64161296388,-91419.35007802845,-91415.03619134858,-91410.69995292425,-91406.43076973328,-91399.00999057412,-91400.41815047481,-91417.53958672758,-91416.08672333798,-91411.83989189148,-91407.52600521159,-91403.16741504282,-91398.94293534076,-91394.60669691642,-91390.04694104755,-91381.6203333879,-91391.65626664834,-91404.82144413251,-91401.55808944203,-91397.31125799552,-91393.04207480456,-91388.66113289131,-91384.34724621144,-91380.12276650939,-91375.87593506288,-91371.33853093846,-91362.88957153435,-91370.84679256043,-91386.96240031271,-91384.45900493373,-91380.12276650939,-91375.87593506288,-91371.60675187192,-91367.24816170313,-91363.06838549,-91358.8662575324,-91351.89251326234,-91352.1160307069,-91368.05282450352,-91366.28703669156,-91361.97315001168,-91357.63691158735,-91353.30067316303,-91349.03148997205,-91344.89641724783,-91339.59905381192,-91332.44649558622,-91349.09854520543,-91355.89347551984,-91351.73605105115,-91347.42216437128,-91343.06357420249,-91338.81674275598,-91334.61461479838,-91330.36778335187,-91326.14330364982,-91320.555367536,-91314.2968790885,-91332.1112194194,-91337.63210029986,-91333.36291710888,-91329.1607891513,-91324.89160596032,-91320.71182974719,-91316.3979430673,-91312.17346336525,-91307.43489354073,-91298.96358239217,-91310.87706218685,-91322.83524547044,-91319.2589663576,-91314.92272793326,-91310.67589648675,-91306.42906504024,-91302.13753010482,-91297.93540214722,-91293.62151546736,-91285.44077699671,-91291.00636136609,-91307.36783830737,-91305.15501560629,-91300.95288764869,-91296.68370445773,-91292.3474660334,-91288.1006345869,-91283.8985066293,-91279.6963786717,-91274.13079430233,-91268.11817504386,-91285.44077699671,-91289.50879448757,-91285.30666652998,-91281.03748333901,-91276.7459484036,-91272.45441346818,-91268.20758202167,-91264.02780580852,-91258.46222143916,-91252.27078822504,-91269.77220413354,-91274.62253268034,-91270.39805297829,-91266.12886978732,-91261.88203834082,-91257.61285514986,-91253.3883754478,-91249.29800621248,-91245.00647127705,-91236.75867757306,-91243.33009044292,-91258.46222143916,-91255.78001210451,-91251.4884771691,-91247.24164572259,-91243.0842212539,-91238.79268631848,-91234.59055836088,-91230.25431993656,-91221.9841744881,-91228.51088386905,-91244.29121545449,-91241.69841309768,-91237.40687816226,-91233.20475020466,-91229.00262224706,-91224.75579080055,-91220.57601458741,-91215.63627906279,-91208.01433420353,-91222.81118903295,-91230.25431993656,-91226.20865419015,-91221.9841744881,-91217.80439827495,-91213.49051159508,-91209.28838363748,-91205.04155219097,-91200.63825853328,-91192.36811308481,-91201.86760447832,-91212.64114530578,-91208.95310747065,-91204.68392427969,-91200.526499811,-91196.36907534231,-91192.03283691798,-91187.83070896039,-91182.8686216913,-91175.15726985423,-91190.91524969522,-91200.05711317743,-91196.01144743102,-91191.76461598452,-91187.45072930465,-91183.2262496026,-91178.95706641163,-91174.75493845403,-91170.59751398534,-91165.63542671627,-91157.85701964582,-91172.69857796414,-91180.85696469033,-91176.9230576662,-91172.69857796414,-91168.42939477318,-91164.18256332667,-91159.98043536907,-91155.35362426682,-91147.2175892851,-91159.8686766468,-91168.71996745109,-91164.74135693806,-91160.44982200263,-91156.20299055612,-91152.02321434299,-91147.75403115201,-91143.57425493888,-91139.28272000345,-91132.46543794459,-91130.78905711044,-91150.27977827546,-91151.55382770942,-91147.262292774,-91142.92605434968,-91138.6121676698,-91134.45474320112,-91130.23026349906,-91126.02813554146,-91121.82600758386,-91116.93097554815,-91108.97375452206,-91123.07770527336,-91131.34785072182,-91127.36924020878,-91123.10005701781,-91118.83087382685,-91114.58404238035,-91110.35956267829,-91106.02332425397,-91099.38485615073,-91097.73082706104,-91114.74050459154,-91114.22641446906,-91110.04663825591,-91105.66569634268,-91101.28475442943,-91097.08262647183,-91092.94755374761,-91087.69489380061,-91080.67644604165,-91097.37319914976,-91103.58698410833,-91099.31780091737,-91095.02626598196,-91090.73473104653,-91086.53260308894,-91082.21871640906,-91077.92718147364,-91073.52388781594,-91065.16433538967,-91074.3956058497,-91088.32074264536,-91085.23620191052,-91080.9446669751,-91076.65313203969,-91072.38394884873,-91068.13711740222,-91063.95734118907,-91059.71050974257,-91052.98263466152,-91050.47923928252,-91070.03701568092,-91071.80280349289,-91067.4442133241,-91063.24208536651,-91059.03995740891,-91054.72607072903,-91050.43453579361,-91046.21005609156,-91041.96322464505,-91035.21299781954,-91033.62602396322,-91052.66971023915,-91053.42966955062,-91049.0934311263,-91044.86895142424,-91040.55506474437,-91036.21882632004,-91031.92729138462,-91027.79221866038,-91022.91953836913,-91014.71644815404,-91028.84275064978,-91039.37042228824,-91035.70473619757,-91031.41320126214,-91026.98755585999,-91022.76307615795,-91018.5832999448,-91014.3364684983,-91010.00023007396,-91005.44047420508,-90997.03621828988,-91007.29566899488,-91019.81264588985,-91016.32577375481,-91012.0342388194,-91007.6756486506,-91003.4288172041,-90999.20433750204,-90994.89045082217,-90990.39775018666,-90981.90408729365,-90991.09065426477,-91005.82045386083,-91002.75826487044,-90998.39967470166,-90994.08578802178,-90989.81660483082,-90985.50271815095,-90981.18883147107,-90976.94200002456,-90970.83997378826,-90966.92841850859,-90984.56394488382,-90985.79329082886,-90981.41234891562,-90977.18786921357,-90972.9186860226,-90968.62715108719,-90964.2685609184,-90957.5183340929,-90956.55720908132,-90973.85745928973,-90973.16455521161,-90968.94007550957,-90964.60383708523,-90960.31230214982,-90955.99841546993,-90951.84099100126,-90947.63886304366,-90941.7603542519,-90936.6641565161,-90954.50084859143,-90957.45127885953,-90953.13739217966,-90948.8235054998,-90944.64372928665,-90940.32984260678,-90936.08301116026,-90931.88088320267,-90926.42705755557,-90919.58742375225,-90937.02178442739,-90943.95082520854,-90939.79340073984,-90935.50186580443,-90931.25503435792,-90926.94114767804,-90922.62726099817,-90918.49218827393,-90913.75361844941,-90905.63993521214,-90919.00627839641,-90927.11996163368,-90923.07429588727,-90918.69335397403,-90914.42417078307,-90910.28909805884,-90905.9528596345,-90901.77308342137,-90897.54860371932,-90892.51946121687,-90884.6069436797,-90899.42615025355,-90908.47860675796,-90904.61175496719,-90900.32022003178,-90895.96162986298,-90891.73715016093,-90887.46796696997,-90883.19878377901,-90878.37080697666,-90869.96655106146,-90882.5505831898,-90896.02868509635,-90892.78768215033,-90888.42909198155,-90884.11520530167,-90879.89072559962,-90875.64389415311,-90871.3523592177,-90867.12787951564,-90862.90339981359,-90856.91313229957,-90851.77223107485,-90871.10649002869,-90875.86741159766,-90871.44176619551,-90867.17258300455,-90863.01515853587,-90858.70127185599,-90854.52149564285,-90850.31936768525,-90845.98312926092,-90839.5905303467,-90836.1930651895,-90855.97435903244,-90858.85773406718,-90854.61090262067,-90850.31936768525,-90845.98312926092,-90841.71394606995,-90837.40005939009,-90833.17557968803,-90828.88404475262,-90821.53032082682,-90822.84907374968,-90839.90345476908,-90838.51764661285,-90834.22611167743,-90829.934576742,-90825.62069006213,-90821.35150687117,-90817.0376201913,-90812.81314048925,-90806.3311345972,-90803.53716654029,-90822.22322490493,-90823.43021910552,-90819.07162893673,-90814.7353905124,-90810.57796604371,-90806.3311345972,-90802.03959966179,-90797.681009493,-90790.01436114483,-90793.2777158353,-90808.99099218739,-90806.6887625085,-90802.39722757308,-90798.0833408932,-90793.81415770223,-90789.58967800018,-90785.25343957586,-90780.96190464043,-90775.79865167126,-90768.28846553428,-90785.29814306476,-90795.177614114,-90791.24370708987,-90786.99687564337,-90782.66063721903,-90778.36910228361,-90774.14462258156,-90769.9201428795,-90765.65095968854,-90761.38177649758,-90753.75983163832,-90755.74913689484,-90773.20584931444,-90771.82004115821,-90767.55085796725,-90763.23697128738,-90758.96778809642,-90754.72095664991,-90750.47412520339,-90745.08735478966,-90738.49359017535,-90755.50326770583,-90760.91238986402,-90756.73261365088,-90752.46343045992,-90748.21659901341,-90743.925064078,-90739.63352914256,-90735.38669769606,-90730.7151831049,-90722.46738940089,-90735.02906978478,-90744.70737513392,-90740.75111636534,-90736.32547096319,-90732.10099126113,-90727.89886330353,-90723.58497662366,-90719.38284866606,-90713.4149328965,-90708.98928749435,-90726.46835165839,-90728.27884295928,-90724.07671500168,-90719.74047657734,-90715.49364513083,-90711.29151717325,-90707.08938921565,-90702.79785428022,-90698.03693271124,-90689.96795296288,-90703.3566478916,-90712.163235207,-90708.2069764384,-90703.89308975854,-90699.62390656756,-90695.26531639879,-90691.01848495228,-90686.79400525022,-90681.11666215857,-90675.41696732247,-90693.29836288672,-90697.34402863313,-90693.18660416444,-90688.91742097348,-90684.58118254914,-90680.31199935818,-90676.02046442276,-90671.79598472071,-90667.59385676311,-90660.01661539277,-90661.82710669364,-90679.90966795798,-90678.9038394575,-90674.657008011,-90670.41017656449,-90666.0962898846,-90661.80475494919,-90657.60262699159,-90653.35579554508,-90645.5997402191,-90648.147839087,-90666.56567651816,-90665.55984801768,-90661.26831308226,-90656.97677814684,-90652.72994670033,-90648.43841176492,-90644.28098729622,-90639.96710061636,-90635.6979174254,-90630.33349875611,-90623.58327193062,-90640.9952808613,-90647.81256292017,-90643.61043496257,-90639.31890002715,-90635.00501334728,-90630.82523713414,-90626.62310917654,-90622.39862947448,-90617.97298407233,-90609.54637641268,-90618.01768756124,-90630.98169934533,-90627.65128942148,-90623.44916146388,-90619.15762652847,-90614.8884433375,-90610.52985316871,-90606.2830217222,-90601.16447224194,-90594.01191401624,-90609.72519036832,-90615.02255380423,-90610.82042584663,-90606.4841874223,-90602.25970772025,-90598.0352280182,-90593.78839657169,-90589.51921338073,-90582.52311736622,-90581.87491677701,-90600.1809954859,-90599.9798297858,-90595.68829485039,-90591.44146340388,-90587.17228021292,-90582.83604178859,-90578.63391383098,-90574.45413761785,-90568.70973929284,-90562.65241654545,-90581.02555048771,-90586.59113485708,-90582.32195166612,-90578.09747196407,-90573.76123353973,-90569.51440209322,-90565.26757064671,-90561.0207392002,-90556.79625949815,-90550.51541930622,-90547.09560240456,-90565.40168111345,-90566.60867531404,-90562.2724368897,-90558.0256054432,-90553.8234774856,-90549.59899778354,-90545.37451808149,-90540.1218581345,-90533.23752084226,-90549.59899778354,-90555.119878664,-90550.82834372859,-90546.55916053762,-90542.31232909112,-90537.99844241125,-90533.86336968701,-90529.59418649605,-90524.69915446034,-90516.7642851787,-90530.89058767445,-90539.11602963401,-90535.00330865424,-90530.73412546326,-90526.53199750568,-90522.19575908134,-90517.94892763483,-90513.65739269942,-90506.34837226252,-90507.73418041876,-90524.18506433786,-90522.53103524818,-90518.26185205721,-90514.03737235516,-90509.79054090865,-90505.47665422877,-90501.20747103781,-90497.07239831358,-90490.63509591045,-90487.46114819779,-90506.862462385,-90509.1646920639,-90504.94021236185,-90500.62632568197,-90496.33479074655,-90492.02090406668,-90487.77407262017,-90483.59429640703,-90479.32511321607,-90474.4077294359,-90466.42815666535,-90481.35912196149,-90491.84209011104,-90488.109348787,-90483.88486908494,-90479.66038938289,-90475.32415095856,-90471.03261602315,-90466.87519155446,-90462.6507118524,-90455.65461583789,-90455.0958222265,-90473.49130791322,-90473.24543872422,-90468.93155204435,-90464.7070723423,-90460.48259264024,-90456.19105770483,-90451.92187451385,-90447.67504306734,-90442.46708660926,-90435.35923187247,-90452.03363323613,-90458.82856355055,-90454.76054605968,-90450.42430763535,-90446.24453142221,-90442.04240346461,-90437.7508685292,-90433.50403708269,-90428.25137713569,-90421.52350205464,-90437.63910980691,-90442.42238312036,-90438.22025516276,-90434.08518243852,-90429.81599924756,-90425.45740907878,-90421.23292937673,-90417.09785665249,-90412.73926648371,-90404.51382452415,-90410.81701646054,-90427.31260386856,-90425.05507767858,-90420.80824623207,-90416.60611827447,-90412.38163857242,-90408.13480712591,-90403.86562393495,-90399.46233027725,-90391.05807436205,-90399.66349597735,-90412.73926648371,-90409.58767051551,-90405.36319081346,-90401.04930413357,-90396.7354174537,-90392.55564124056,-90388.35351328296,-90384.1290335809,-90377.17764105531,-90376.64119918838,-90394.29907730807,-90393.7402836967,-90389.5381557391,-90385.40308301485,-90381.04449284608,-90376.84236488848,-90372.59553344197,-90368.34870199546,-90360.99497806966,-90361.91139959234,-90380.44099574578,-90379.8822021344,-90375.50126022116,-90371.2320770302,-90366.96289383923,-90362.71606239272,-90358.5809896685,-90354.40121345535,-90349.03679478608,-90342.37597493839,-90359.38565246889,-90364.8841816049,-90360.63735015839,-90356.39051871188,-90352.09898377645,-90347.80744884103,-90343.67237611681,-90339.47024815921,-90334.6199196124,-90326.68505033077,-90339.93963479277,-90348.14272500787,-90344.11941100592,-90339.85022781494,-90335.6257481129,-90331.49067538866,-90327.19914045325,-90322.97466075119,-90318.2137391822,-90310.16711117829,-90323.6675648293,-90332.60826261142,-90328.78611430957,-90324.4722276297,-90320.22539618319,-90315.91150950332,-90311.70938154572,-90307.46255009921,-90299.68414302876,-90303.88627098636,-90319.17486419379,-90316.69382055925,-90312.40228562383,-90308.11075068841,-90303.8639192419,-90299.6170877954,-90295.37025634889,-90291.14577664684,-90285.37902657736,-90280.08166314145,-90298.27598312807,-90301.87461398538,-90297.5160238166,-90293.26919237009,-90289.06706441249,-90284.77552947708,-90280.61810500838,-90276.37127356188,-90268.54816300252,-90272.70558747121,-90287.88242195635,-90285.37902657736,-90281.13219513085,-90276.93006717326,-90272.59382874893,-90268.32464555796,-90264.18957283373,-90259.89803789831,-90253.79601166201,-90249.5044767266,-90268.83873568043,-90272.34795955992,-90268.12347985787,-90263.87664841136,-90259.6521687093,-90255.36063377389,-90251.18085756074,-90246.91167436978,-90242.75424990109,-90235.93696784222,-90234.1488282858,-90254.13128782884,-90255.89707564081,-90251.58318896094,-90247.31400576998,-90243.11187781238,-90238.88739811032,-90234.68527015272,-90230.50549393958,-90226.19160725971,-90218.1896827447,-90222.97295605815,-90238.99915683261,-90236.71927889816,-90232.53950268502,-90228.29267123851,-90224.045839792,-90219.75430485659,-90215.5968803879,-90211.3947524303,-90204.39865641578,-90203.81751105994,-90222.23534849111,-90222.05653453548,-90217.72029611115,-90213.45111292019,-90209.15957798477,-90204.91274653826,-90200.73297032512,-90196.35202841187,-90187.9924759856,-90195.36855165585,-90209.78542682952,-90206.85734830587,-90202.61051685936,-90198.36368541286,-90194.07215047743,-90189.84767077539,-90185.66789456224,-90181.3316561379,-90173.28502813399,-90179.029426459,-90194.51918536655,-90192.01578998755,-90187.76895854104,-90183.49977535008,-90179.2305921591,-90174.9837607126,-90170.75928101054,-90166.57950479741,-90159.09167040487,-90161.61741752832,-90176.99541771358,-90174.7825950125,-90170.58046705491,-90166.35598735286,-90162.04210067297,-90157.8846762043,-90153.70489999115,-90149.41336505573,-90142.64078648578,-90141.16557135172,-90160.25396111656,-90160.99156868357,-90156.76708898152,-90152.56496102393,-90148.34048132188,-90144.07129813092,-90139.91387366223,-90135.73409744908,-90130.41438226872,-90123.7759141655,-90140.65148122924,-90146.03825164298,-90141.88082717429,-90137.74575445006,-90133.56597823692,-90129.31914679041,-90125.00526011054,-90120.8254838974,-90115.90810011723,-90108.35321049133,-90122.85949264282,-90128.8721119013,-90124.75939092152,-90120.49020773056,-90116.24337628405,-90112.04124832645,-90107.86147211332,-90103.54758543344,-90096.59619290783,-90095.5680126629,-90115.50576871703,-90116.75746640653,-90112.44357972665,-90108.19674828014,-90103.99462032254,-90099.72543713158,-90095.50095742953,-90091.27647772747,-90086.73907360305,-90078.40187292123,-90088.08017827036,-90098.89842258673,-90095.23273649607,-90091.05296028292,-90086.7614253475,-90082.44753866763,-90078.24541071003,-90073.41743390769,-90065.81784079288,-90079.65357061071,-90085.57678289137,-90081.41935842269,-90077.21723046509,-90072.92569552967,-90068.67886408317,-90064.54379135893,-90060.38636689025,-90053.41262262019,-90052.94323598662,-90070.7575763175,-90070.15407921722,-90065.92959951516,-90061.68276806865,-90057.39123313322,-90053.18910517564,-90048.96462547359,-90044.74014577153,-90037.02879393444,-90039.84511373582,-90056.89949475521,-90055.29016915442,-90051.04333770792,-90046.79650626141,-90042.63908179273,-90038.43695383513,-90034.19012238862,-90029.98799443102,-90022.81308446087,-90022.79073271641,-90041.36503235878,-90041.16386665868,-90036.98409044553,-90032.69255551012,-90028.44572406361,-90024.24359610601,-90020.04146814841,-90015.86169193526,-90011.52545351094,-90004.23878481852,-90004.81993017434,-90024.35535482828,-90024.57887227285,-90020.3990960597,-90016.15226461319,-90011.97248840005,-90007.72565695354,-90003.41177027367,-89999.12023533824,-89994.91810738065,-89988.74902591098,-89985.39626424269,-90003.54588074039,-90004.75287494098,-90000.50604349448,-89996.34861902578,-89992.03473234591,-89987.69849392158,-89983.51871770844,-89979.31658975084,-89972.6334181587,-89971.18055476912,-89990.20188930057,-89990.9394968676,-89986.64796193219,-89982.40113048567,-89978.15429903916,-89973.86276410375,-89969.72769137952,-89965.50321167747,-89958.70828136305,-89957.97067379602,-89974.80153737088,-89973.86276410375,-89969.63828440169,-89965.32439772182,-89961.09991801977,-89956.87543831771,-89952.67331036011,-89947.06302250184,-89941.31862417683,-89959.11061276325,-89963.17863025411,-89958.97650229651,-89954.79672608337,-89950.4828394035,-89946.25835970145,-89942.1232869772,-89937.8764555307,-89933.62962408419,-89925.89592050266,-89928.57812983729,-89946.97361552401,-89946.0795457458,-89941.85506604375,-89937.58588285279,-89933.27199617292,-89929.04751647086,-89924.7783332799,-89920.48679834447,-89915.21178665302,-89908.79683599435,-89925.56064433583,-89930.29921416036,-89926.11943794721,-89921.89495824516,-89917.69283028756,-89913.44599884105,-89909.221519139,-89905.04174292585,-89899.58791727877,-89893.28472534237,-89910.80849299533,-89915.61411805321,-89911.3225831178,-89907.07575167129,-89902.87362371369,-89898.73855098947,-89894.49171954296,-89890.24488809645,-89885.66278048311,-89877.19146933455,-89888.18852760656,-89900.75020799044,-89897.28568759987,-89892.94944917553,-89888.85907994022,-89884.65695198262,-89880.3654170472,-89876.11858560069,-89870.08361459775,-89866.462631996,-89883.7181787155,-89884.38873104916,-89880.09719611374,-89875.89506815614,-89871.67058845409,-89867.44610875203,-89863.15457381662,-89858.84068713673,-89853.09628881172,-89848.02244282037,-89865.90383838462,-89868.92132388608,-89864.67449243958,-89860.38295750416,-89856.06907082428,-89851.84459112222,-89847.64246316462,-89843.48503869594,-89837.07008803728,-89834.29847172482,-89852.98453008945,-89854.14682080112,-89849.94469284352,-89845.74256488594,-89841.51808518388,-89837.31595722628,-89833.13618101313,-89828.91170131108,-89824.77662858686,-89817.98169827244,-89815.83593080472,-89836.1536665146,-89838.43354444904,-89834.2537682359,-89829.96223330048,-89825.80480883179,-89821.62503261866,-89817.31114593877,-89813.08666623672,-89808.70572432349,-89800.48028236393,-89806.76112255588,-89823.3014134528,-89821.13329424063,-89816.88646279412,-89812.63963134761,-89808.41515164556,-89804.12361671015,-89799.943840497,-89795.71936079494,-89791.00314271488,-89782.8894594776,-89796.27815440633,-89805.93410801103,-89802.0896079647,-89797.82042477374,-89793.61829681616,-89789.3938171141,-89785.16933741205,-89780.92250596554,-89775.55808729626,-89768.9866744264,-89786.15281416808,-89791.65134330408,-89787.38216011312,-89783.18003215552,-89778.8884972201,-89774.57461054024,-89770.37248258264,-89766.14800288058,-89761.94587492298,-89754.07806087472,-89758.10137487667,-89773.97111343994,-89771.78064248331,-89767.5338110368,-89763.17522086803,-89759.04014814379,-89754.86037193066,-89750.61354048415,-89746.07613635971,-89737.76128742234,-89747.30548230476,-89758.88368593261,-89755.32975856421,-89751.01587188433,-89746.81374392674,-89742.61161596914,-89738.29772928926,-89734.11795307613,-89728.75353440685,-89722.78561863728,-89739.81764791223,-89743.32687179171,-89739.05768860075,-89734.78850540979,-89730.65343268555,-89726.33954600568,-89722.09271455917,-89717.91293834602,-89713.15201677705,-89704.90422307304,-89719.05287731325,-89729.60290069615,-89725.87015937212,-89721.55627269224,-89717.26473775682,-89713.10731328814,-89708.94988881945,-89704.68070562849,-89700.43387418198,-89693.28131595628,-89693.77305433429,-89711.31917373171,-89710.35804872014,-89706.08886552916,-89701.90908931603,-89697.63990612507,-89693.34837118964,-89689.10153974313,-89684.94411527445,-89676.9645425039,-89681.3678361616,-89698.95865904793,-89697.34933344714,-89693.10250200063,-89688.87802229858,-89684.60883910762,-89680.42906289447,-89676.18223144797,-89672.04715872374,-89667.4650511104,-89659.17255391748,-89671.15308894553,-89682.2172024509,-89678.52916461577,-89674.34938840264,-89670.12490870059,-89665.90042899853,-89661.72065278539,-89657.58558006115,-89652.82465849217,-89644.7109752549,-89658.09967018363,-89667.77797553278,-89663.95582723092,-89659.64194055104,-89655.46216433789,-89651.32709161367,-89647.19201888943,-89642.94518744292,-89638.74305948534,-89631.2999285817,-89633.22217860488,-89650.76829800228,-89649.51660031278,-89645.24741712182,-89641.00058567531,-89636.79845771771,-89632.57397801566,-89628.32714656915,-89624.21442558938,-89616.68188770793,-89618.73824819783,-89636.21731236188,-89634.89855943901,-89630.62937624805,-89626.56135875719,-89622.29217556622,-89618.24650981982,-89613.97732662885,-89609.5516812267,-89601.25918403378,-89610.87043414956,-89621.73338195484,-89618.02299237526,-89613.82086441766,-89609.59638471561,-89605.43896024692,-89601.23683228933,-89596.99000084282,-89592.81022462968,-89586.43997745992,-89583.98128556983,-89601.5944602006,-89601.88503287853,-89597.63820143203,-89593.39136998552,-89589.18924202792,-89584.98711407032,-89580.85204134608,-89576.56050641066,-89568.26800921775,-89575.68878837691,-89590.84327111761,-89588.07165480514,-89583.84717510309,-89579.66739888996,-89575.42056744345,-89571.26314297476,-89567.0386632727,-89562.81418357065,-89557.15919222347,-89552.06299448764,-89569.83263132961,-89572.71600636435,-89568.46917491785,-89564.31175044915,-89560.10962249155,-89555.88514278951,-89551.61595959854,-89547.34677640758,-89539.6354245705,-89543.50227636127,-89560.04256725819,-89558.16502072394,-89553.89583753298,-89549.60430259757,-89545.35747115106,-89541.11063970455,-89536.8861600025,-89532.77343902271,-89528.14662792048,-89519.83177898309,-89532.46051460035,-89545.04454672868,-89541.60237808256,-89537.44495361387,-89533.17577042291,-89528.95129072086,-89524.70445927435,-89520.45762782784,-89516.21079638133,-89511.06989515662,-89503.98439216429,-89520.83760748358,-89527.69959303136,-89523.69863077387,-89519.4294475829,-89515.20496788085,-89510.95813643433,-89506.80071196565,-89502.62093575251,-89498.06117988363,-89489.61222047952,-89501.25747934074,-89514.69087775837,-89511.4275230679,-89507.15833987694,-89502.93386017489,-89498.73173221729,-89494.50725251524,-89490.28277281318,-89486.08064485558,-89481.45383375333,-89473.18368830487,-89485.05246461064,-89496.9212409164,-89493.34496180355,-89489.09813035704,-89484.89600239944,-89480.69387444186,-89476.60350520653,-89472.44608073785,-89468.2663045247,-89461.98546433276,-89458.78916487565,-89476.53644997317,-89477.29640928465,-89473.09428132705,-89468.869801625,-89464.60061843404,-89460.3090834986,-89456.17401077438,-89451.07781303857,-89444.14877225742,-89459.59382767604,-89464.44415622285,-89460.37613873198,-89456.03990030765,-89451.72601362778,-89447.613292648,-89443.38881294595,-89438.91846405488,-89430.69302209534,-89440.30427221111,-89451.92717932787,-89448.32854847057,-89444.08171702406,-89439.87958906646,-89435.67746110886,-89431.45298140681,-89427.29555693813,-89422.84755979152,-89414.44330387632,-89422.84755979152,-89437.42089717637,-89434.47046690827,-89430.29069069514,-89426.04385924863,-89421.88643477994,-89417.70665856679,-89413.54923409811,-89409.3024026516,-89402.86510024847,-89399.91466998037,-89419.13717021194,-89420.92530976837,-89416.67847832186,-89412.47635036426,-89408.34127764002,-89404.18385317134,-89399.91466998037,-89395.6454867894,-89390.63869603143,-89383.10615814998,-89398.61826880196,-89406.28491715013,-89402.32865838155,-89398.01477170167,-89393.81264374408,-89389.5434605531,-89385.31898085107,-89381.18390812683,-89376.75826272467,-89368.4434137873,-89378.7475679812,-89391.24219313171,-89387.86707971897,-89383.62024827246,-89379.41812031486,-89375.21599235726,-89371.01386439966,-89366.78938469761,-89361.7378904507,-89354.47357350274,-89370.58918125501,-89377.45116680278,-89373.33844582301,-89369.0916143765,-89364.8894864189,-89360.6873584613,-89356.52993399263,-89352.37250952394,-89348.21508505524,-89343.87884663092,-89335.47459071572,-89342.40363149687,-89359.837992172,-89357.91574214885,-89353.60185546898,-89349.2879687891,-89345.08584083151,-89340.99547159618,-89336.81569538305,-89332.591215681,-89328.34438423449,-89320.09659053048,-89326.48918944469,-89342.24716928568,-89339.90023611787,-89335.65340467136,-89331.42892496931,-89327.15974177835,-89322.86820684293,-89318.66607888533,-89314.48630267219,-89307.60196537996,-89306.99846827966,-89325.37160222193,-89325.19278826629,-89320.99066030869,-89316.67677362882,-89312.40759043784,-89308.31722120252,-89304.15979673383,-89299.82355830951,-89291.55341286105,-89299.26476469812,-89312.18407299329,-89309.01012528063,-89304.80799732305,-89300.583517621,-89296.3813896634,-89292.11220647243,-89287.88772677038,-89283.59619183495,-89275.48250859768,-89282.09862495644,-89297.11899723041,-89294.50384312915,-89290.21230819373,-89285.8760697694,-89281.69629355625,-89277.60592432093,-89273.44849985225,-89269.20166840573,-89264.19487764775,-89256.8188019775,-89272.24150565166,-89279.14819468834,-89274.99077021967,-89270.7215870287,-89266.54181081556,-89262.40673809132,-89258.15990664481,-89254.00248217613,-89246.62640650588,-89247.69929023973,-89266.25123813764,-89265.51363057061,-89261.28915086856,-89257.04231942205,-89252.88489495336,-89248.74982222913,-89244.54769427153,-89240.43497329176,-89236.14343835633,-89228.45443826371,-89231.47192376517,-89248.54865652903,-89246.84992395043,-89242.67014773728,-89238.49037152415,-89234.28824356655,-89230.1084673534,-89225.83928416244,-89221.57010097148,-89213.6575834343,-89218.39615325883,-89234.62351973337,-89232.43304877676,-89228.18621733025,-89224.05114460601,-89219.82666490396,-89215.557481713,-89211.40005724432,-89207.17557754226,-89200.22418501666,-89200.24653676111,-89216.78682765804,-89215.49042647964,-89211.31065026649,-89207.04146707553,-89202.79463562902,-89198.57015592697,-89194.41273145829,-89190.18825175623,-89183.28156271954,-89182.67806561924,-89200.98414432815,-89200.78297862805,-89196.6032024149,-89192.4010744573,-89188.1989464997,-89183.92976330874,-89179.7499870956,-89175.30198994899,-89166.94243752271,-89176.33017019393,-89189.56240291148,-89186.34375170991,-89182.11927200787,-89177.87244056135,-89173.71501609267,-89169.42348115725,-89165.26605668856,-89161.15333570879,-89155.7889170395,-89149.06104195846,-89166.4506991447,-89173.37973992583,-89169.28937069052,-89165.08724273292,-89160.90746651977,-89156.68298681772,-89152.50321060458,-89148.27873090253,-89144.14365817829,-89136.90169297477,-89137.88516973081,-89156.3924141398,-89155.87832401734,-89151.5867890819,-89147.3399576354,-89143.27194014454,-89139.00275695357,-89134.82298074043,-89130.57614929392,-89123.0883149014,-89125.14467539129,-89142.64609129979,-89141.41674535474,-89137.10285867487,-89132.85602722836,-89128.63154752631,-89124.40706782426,-89120.27199510003,-89116.11457063134,-89110.34782056187,-89104.75988444804,-89123.71416374615,-89129.27974811551,-89125.07762015791,-89120.8307887114,-89116.60630900935,-89112.40418105175,-89108.17970134971,-89104.02227688102,-89099.84250066787,-89095.05922735445,-89087.14670981726,-89101.45182626866,-89110.50428277306,-89106.50332051556,-89102.27884081351,-89098.05436111146,-89093.80752966495,-89089.60540170735,-89085.4256254942,-89078.22836377959,-89078.6753986687,-89096.26622155502,-89095.37215177681,-89091.25943079704,-89087.01259935054,-89082.65400918174,-89078.45188122414,-89074.38386373328,-89070.15938403123,-89063.36445371681,-89062.24686649405,-89080.32942775839,-89080.24002078058,-89075.97083758962,-89071.7240061431,-89067.49952644105,-89063.36445371681,-89059.09527052585,-89054.89314256825,-89049.43931692115,-89043.40434591823,-89060.61518914881,-89064.83966885087,-89060.70459612663,-89056.54717165795,-89052.30034021144,-89048.09821225384,-89043.9631395296,-89039.7163080831,-89033.10019172433,-89031.20029344562,-89049.4169651767,-89049.72988959908,-89045.48305815257,-89041.23622670607,-89036.96704351509,-89032.85432253532,-89028.69689806663,-89024.53947359795,-89020.00206947351,-89011.59781355833,-89021.72315379659,-89034.91068302521,-89031.78143880147,-89027.60166258832,-89023.3101276529,-89019.21975841759,-89015.01763045999,-89010.79315075793,-89005.51813906648,-88999.14789189672,-89015.77758977146,-89019.93501424015,-89015.755238027,-89011.55311006942,-89007.3062786229,-89003.19355764313,-88999.03613317444,-88994.83400521685,-88988.79903421391,-88984.84277544532,-89003.10415066531,-89004.89229022173,-89000.62310703077,-88996.39862732872,-88992.1070923933,-88987.9049644357,-88983.65813298919,-88978.07019687536,-88972.14698459471,-88990.31895283687,-88995.19163312812,-88991.01185691499,-88986.76502546848,-88982.60760099979,-88978.40547304219,-88974.18099334014,-88969.97886538254,-88965.7990891694,-88960.88170538923,-88953.25976052997,-88968.92833339314,-88977.42199628615,-88973.26457181748,-88969.06244385988,-88964.90501939118,-88960.59113271131,-88956.47841173154,-88952.25393202949,-88948.02945232744,-88942.1956470246,-88936.98769056652,-88956.61252219827,-88962.75925192347,-88958.6018274548,-88954.46675473056,-88950.2422750285,-88946.0401470709,-88941.8380191133,-88937.68059464463,-88933.50081843148,-88929.32104221833,-88924.18014099362,-88916.66995485664,-88933.03143179792,-88942.93325459163,-88939.15580977868,-88934.95368182108,-88930.81860909684,-88926.68353637261,-88922.52611190392,-88918.30163220187,-88914.05480075536,-88909.80796930885,-88901.89545177168,-88906.45520764055,-88923.26371947095,-88921.29676595889,-88917.11698974574,-88912.87015829924,-88908.64567859718,-88904.44355063958,-88900.21907093753,-88896.15105344667,-88889.22201266552,-88888.6855707986,-88907.10340822977,-88906.96929776303,-88902.67776282762,-88898.54269010338,-88894.3852656347,-88890.25019291046,-88886.00336146395,-88881.73417827299,-88874.15693690264,-88877.26382938193,-88893.60295457876,-88891.65835281115,-88887.52328008691,-88883.36585561823,-88879.16372766063,-88874.98395144749,-88870.80417523434,-88866.15501238764,-88857.88486693917,-88869.79834673385,-88880.10250092775,-88876.34740785926,-88872.21233513503,-88868.03255892188,-88863.76337573092,-88859.60595126223,-88855.4261750491,-88850.95582615804,-88842.6186254762,-88851.80519244734,-88866.53499204338,-88863.71867224202,-88859.44948905105,-88855.20265760455,-88850.95582615804,-88846.86545692271,-88842.73038419848,-88838.50590449643,-88833.72263118299,-88825.38543050116,-88838.72942194098,-88851.6263784917,-88848.22891333449,-88844.02678537689,-88839.73525044147,-88835.53312248387,-88831.33099452627,-88827.15121831313,-88822.94909035553,-88818.74696239794,-88811.97438382798,-88810.11918903819,-88830.16870381459,-88831.97919511548,-88827.71001192452,-88823.48553222246,-88819.2610525204,-88815.08127630726,-88810.87914834966,-88806.69937213653,-88802.54194766784,-88797.28928772084,-88790.27083996187,-88807.10170353673,-88813.9636890845,-88809.94037508254,-88805.73824712494,-88801.51376742289,-88797.44574993203,-88793.24362197443,-88788.99679052792,-88781.39719741311,-88784.83936605924,-88799.77033135538,-88797.31163946529,-88793.13186325216,-88788.95208703901,-88784.81701431477,-88780.68194159055,-88776.52451712186,-88771.4506711305,-88763.96283673798,-88779.38554041214,-88786.85102306021,-88782.78300556935,-88778.64793284511,-88774.46815663198,-88770.26602867438,-88766.08625246123,-88762.04058671482,-88757.81610701277,-88751.53526682082,-88747.75782200789,-88767.15913619509,-88770.1542699521,-88765.92979025004,-88761.66060705908,-88757.45847910148,-88753.25635114388,-88749.0989266752,-88744.91915046205,-88740.4935050599,-88732.37982182263,-88742.66162427206,-88752.71990927696,-88749.03187144184,-88744.87444697315,-88740.60526378218,-88736.40313582458,-88732.26806310035,-88728.11063863167,-88722.92503391803,-88716.06304837026,-88732.4915805449,-88737.9901096809,-88733.85503695668,-88729.63055725463,-88725.45078104148,-88721.24865308388,-88717.02417338183,-88712.77734193532,-88704.70836218695,-88711.77151343484,-88724.44495254099,-88721.24865308388,-88716.95711814846,-88712.77734193532,-88708.6422692111,-88704.39543776459,-88700.17095806253,-88694.42655973752,-88689.15154804607,-88707.61408896615,-88711.70445820146,-88707.56938547724,-88703.3896092641,-88699.1874813065,-88694.91829811553,-88690.80557713576,-88686.69285615598,-88682.42367296501,-88674.7346728724,-88677.39453046257,-88695.87942312712,-88694.89594637108,-88690.62676318012,-88686.42463522252,-88682.22250726492,-88678.06508279624,-88673.79589960526,-88669.61612339213,-88665.45869892344,-88657.88145755309,-88660.94364654347,-88677.34982697366,-88675.47228043941,-88671.29250422628,-88667.11272801313,-88662.93295179999,-88658.66376860903,-88654.48399239588,-88650.23716094937,-88642.1234777121,-88647.91257952602,-88663.6258558781,-88661.25657096584,-88657.0767947527,-88652.78525981728,-88648.6725388375,-88644.4704108799,-88640.24593117785,-88635.88734100907,-88627.6171955606,-88636.20026543144,-88650.01364350482,-88646.95145451445,-88642.7716783013,-88638.61425383261,-88634.3227188972,-88630.07588745069,-88625.918462982,-88621.78339025777,-88615.99428844385,-88610.78633198576,-88628.84654150564,-88632.48987585185,-88628.19834091644,-88624.0185647033,-88619.83878849016,-88615.59195704365,-88611.5686430417,-88607.3665150841,-88602.1138551371,-88595.05070388922,-88611.94862269744,-88619.52586406778,-88615.48019832137,-88611.34512559714,-88607.14299763954,-88602.89616619304,-88598.7610934688,-88594.58131725567,-88590.37918929807,-88585.4618055179,-88577.43752925844,-88592.34614281013,-88603.72318073788,-88600.0127911583,-88595.72125622288,-88591.60853524311,-88587.47346251887,-88583.24898281682,-88579.06920660367,-88574.80002341271,-88566.73104366435,-88573.77184316776,-88587.24994507432,-88584.18775608395,-88579.94092463743,-88575.8058519132,-88571.62607570006,-88567.44629948692,-88563.26652327378,-88559.08674706063,-88552.33652023513,-88550.90600858998,-88570.03910184374,-88570.7543576663,-88566.52987796425,-88562.28304651774,-88558.19267728242,-88554.03525281373,-88549.81077311168,-88545.58629340962,-88540.71361311837,-88533.15872349248,-88547.91087483297,-88554.70580514739,-88550.48132544533,-88546.34625272111,-88542.0994212746,-88537.91964506145,-88533.73986884831,-88529.53774089072,-88524.70976408837,-88516.79724655118,-88531.10236300259,-88540.87007532956,-88537.0479270277,-88532.8457990701,-88528.66602285695,-88524.44154315491,-88520.26176694177,-88516.08199072862,-88511.72340055984,-88503.40855162246,-88511.5892900931,-88527.01199376727,-88524.26272919927,-88520.03824949721,-88515.90317677298,-88511.70104881538,-88507.52127260224,-88503.3414963891,-88499.22877540933,-88494.95959221835,-88487.13648165899,-88490.62335379403,-88508.68356331391,-88507.40951387996,-88503.1850341779,-88498.9829062203,-88494.82548175163,-88490.66805728294,-88486.55533630316,-88482.2861531122,-88475.15594663096,-88475.35711233105,-88494.0878741846,-88493.99846720678,-88489.79633924918,-88485.57185954713,-88481.36973158953,-88477.2346588653,-88473.14428962997,-88468.96451341684,-88464.8294406926,-88458.23567607829,-88455.73228069929,-88475.71474024234,-88478.0393216657,-88473.81484196364,-88469.54565877267,-88465.2764755817,-88461.16375460193,-88457.00633013324,-88452.89360915347,-88448.62442596251,-88440.24252179176,-88447.64094920647,-88462.88483892499,-88460.1802778459,-88455.95579814384,-88451.77602193071,-88447.57389397311,-88443.34941427106,-88439.28139678019,-88435.1686758004,-88429.84896062005,-88423.65752740593,-88439.99665260276,-88443.55057997115,-88439.34845201355,-88435.21337928931,-88431.05595482064,-88426.87617860749,-88422.67405064989,-88418.53897792567,-88411.9675650558,-88409.6653353769,-88429.20076003084,-88430.89949260945,-88426.76441988522,-88422.62934716098,-88418.38251571447,-88414.24744299024,-88410.0229632882,-88405.8208353306,-88400.05408526112,-88394.75672182521,-88413.15220751193,-88417.39903895844,-88413.19691100085,-88408.95007955433,-88404.8150068301,-88400.70228585033,-88396.45545440383,-88392.32038167959,-88387.71592232179,-88379.5128321067,-88391.53807062365,-88402.69159110685,-88399.04825676064,-88394.86848054749,-88390.73340782325,-88386.48657637674,-88382.30680016361,-88378.21643092828,-88374.03665471515,-88366.7052825338,-88368.98516046825,-88385.72661706527,-88384.18434669786,-88380.02692222917,-88375.86949776048,-88371.68972154734,-88367.5546488231,-88363.37487260996,-88358.99393069673,-88350.72378524826,-88358.41278534089,-88372.85201225901,-88369.94628547982,-88365.8112127556,-88361.63143654245,-88357.4516603293,-88353.31658760508,-88349.20386662529,-88345.09114564552,-88340.9560729213,-88334.20584609579,-88332.93179666184,-88351.61785502647,-88351.93077944884,-88347.72865149126,-88343.48182004473,-88339.39145080942,-88335.18932285182,-88331.07660187205,-88326.53919774762,-88318.38081102143,-88330.33899430501,-88340.73255547674,-88337.02216589716,-88332.86474142846,-88328.70731695979,-88324.50518900219,-88320.30306104459,-88316.19034006482,-88311.65293594038,-88303.33808700301,-88314.33514527502,-88326.91917740335,-88323.52171224615,-88319.38663952192,-88315.22921505323,-88310.98238360672,-88306.86966262695,-88302.75694164717,-88298.53246194511,-88290.75405487468,-88294.6879618988,-88311.40706675137,-88309.44011323931,-88305.28268877062,-88301.1476160464,-88296.9454880888,-88292.76571187565,-88288.63063915142,-88284.16029026036,-88276.09131051198,-88286.46251993925,-88295.85025261049,-88292.09515954199,-88287.91538332884,-88283.71325537124,-88279.57818264702,-88275.44310992278,-88271.30803719856,-88265.25071445116,-88261.09328998248,-88279.60053439147,-88282.05922628156,-88277.90180181287,-88273.72202559972,-88269.49754589767,-88265.3848249179,-88261.16034521585,-88256.91351376934,-88249.1798101878,-88253.11371721193,-88269.07286275302,-88266.8823917964,-88262.59085686099,-88258.45578413675,-88254.32071141253,-88250.18563868829,-88246.05056596406,-88241.93784498428,-88235.54524607006,-88232.59481580196,-88251.81731603353,-88253.58310384549,-88249.29156891008,-88245.11179269693,-88241.02142346161,-88236.9310542263,-88232.75127801315,-88228.5267983111,-88224.41407733133,-88219.00495517314,-88212.61235625892,-88230.56080705654,-88236.81929550401,-88232.70657452424,-88228.5267983111,-88224.3693738424,-88220.18959762927,-88216.03217316058,-88211.91945218081,-88207.58321375647,-88199.24601307465,-88208.34317306796,-88223.09532440845,-88220.23430111818,-88216.00982141613,-88211.91945218081,-88207.80673120102,-88203.64930673235,-88199.51423400811,-88195.37916128388,-88188.45012050273,-88188.00308561363,-88206.48797827816,-88206.37621955588,-88202.24114683166,-88198.08372236296,-88193.85924266091,-88189.74652168114,-88185.6114489569,-88181.47637623268,-88176.89426861933,-88168.73588189315,-88181.40932099932,-88192.58519322696,-88189.0089141141,-88184.85148964543,-88180.69406517674,-88176.46958547468,-88172.312161006,-88168.2664952596,-88164.13142253536,-88157.02356779856,-88157.7611753656,-88174.65909417381,-88173.42974822877,-88169.18291678226,-88165.02549231357,-88160.9574748227,-88156.7553468651,-88152.68732937424,-88147.94875954972,-88140.28211120154,-88154.22959974165,-88161.73978587864,-88157.7611753656,-88153.6037508969,-88149.40162293932,-88145.26655021508,-88141.10912574638,-88136.97405302216,-88132.52605587555,-88124.18885519373,-88134.51536113207,-88147.76994559407,-88144.59599788142,-88140.43857341273,-88136.21409371067,-88132.12372447536,-88127.98865175112,-88123.80887553799,-88118.86914001335,-88111.60482306538,-88127.09458197291,-88133.9565675207,-88129.88855002982,-88125.61936683886,-88121.46194237018,-88117.30451790149,-88113.1470934328,-88109.03437245302,-88103.42408459475,-88097.76909324755,-88115.65048881179,-88119.91967200275,-88115.87400625634,-88111.60482306538,-88107.33563987442,-88103.20056715018,-88098.9984391926,-88094.81866297945,-88089.05191290998,-88084.51450878555,-88102.57471830545,-88105.03341019552,-88100.78657874902,-88096.51739555805,-88092.33761934491,-88088.26960185404,-88084.0898256409,-88079.84299419439,-88075.61851449234,-88067.39307253278,-88074.41152029176,-88091.75647398907,-88089.83422396591,-88085.63209600832,-88081.60878200637,-88077.42900579322,-88073.27158132453,-88069.1365086003,-88065.11319459835,-88060.8887148963,-88055.14431657128,-88050.00341534655,-88067.79540393298,-88070.74583420108,-88066.52135449903,-88062.31922654144,-88058.22885730611,-88054.09378458188,-88049.89165662428,-88044.99662458857,-88037.5311419405,-88052.35034851436,-88059.2346858066,-88055.09961308236,-88050.94218861368,-88046.85181937837,-88042.69439490967,-88038.62637741881,-88034.42424946121,-88030.24447324807,-88022.9801563001,-88024.34361271186,-88041.66621466473,-88040.43686871968,-88036.279444251,-88032.05496454895,-88027.8751883358,-88023.78481910049,-88019.60504288734,-88015.51467365203,-88007.84802530384,-88011.69252535017,-88028.36692671382,-88026.44467669066,-88022.33195571089,-88018.1745312422,-88014.01710677352,-88009.85968230483,-88005.70225783614,-88001.54483336746,-87995.6216210868,-87991.28538266246,-88010.61964161631,-88014.26297596253,-88010.10555149383,-88005.88107179178,-88001.7236473231,-87997.54387110996,-87993.43115013017,-87989.20667042812,-87985.09394944835,-87978.41077785622,-87976.84615574434,-87995.88984202026,-87996.51569086501,-87992.35826639632,-87988.267897161,-87984.08812094785,-87979.95304822363,-87975.84032724384,-87971.61584754179,-87966.60905678381,-87959.38944332475,-87975.52740282148,-87982.47879534708,-87978.3660743673,-87974.20864989862,-87970.07357717438,-87965.84909747232,-87961.64696951472,-87957.48954504605,-87951.96866416559,-87946.42543154067,-87963.97155093808,-87967.50312656202,-87963.3680538378,-87959.1659258802,-87955.03085315596,-87950.85107694281,-87946.71600421859,-87942.60328323882,-87935.27191105747,-87935.98716688003,-87955.05320490041,-87954.91909443369,-87950.69461473163,-87946.49248677403,-87942.31271056089,-87938.17763783666,-87934.08726860133,-87929.86278889928,-87925.7053644306,-87919.67039342766,-87915.8035416369,-87933.99786162352,-87935.80835292439,-87931.58387322235,-87927.33704177583,-87923.24667254051,-87919.17865504965,-87915.11063755878,-87910.997916579,-87905.56644267637,-87899.41971295116,-87916.94348060411,-87921.86086438429,-87917.7034399156,-87913.52366370245,-87909.34388748932,-87905.20881476508,-87901.09609378531,-87896.98337280552,-87891.7977680919,-87885.20400347759,-87901.47607344104,-87906.30405024339,-87902.19132926362,-87898.03390479492,-87893.85412858178,-87889.71905585755,-87885.4945761555,-87881.38185517573,-87874.5422213724,-87873.84931729428,-87893.2953349704,-87894.07764602633,-87889.96492504656,-87885.80750057787,-87881.71713134255,-87877.4926516405,-87873.40228240518,-87869.33426491432,-87865.24389567898,-87858.1360409422,-87857.8901717532,-87878.25261095198,-87879.54901213039,-87875.34688417279,-87871.21181144856,-87867.14379395769,-87862.96401774455,-87858.82894502032,-87854.69387229609,-87850.49174433849,-87842.75804075695,-87846.62489254773,-87863.29929391138,-87861.44409912158,-87857.26432290845,-87853.0398432064,-87848.92712222661,-87844.70264252456,-87840.54521805588,-87836.27603486492,-87828.11764813872,-87835.80664823134,-87849.44121234909,-87846.40137510316,-87842.17689540112,-87837.99711918797,-87833.90674995266,-87829.79402897287,-87825.61425275973,-87821.4344765466,-87815.89124392167,-87810.30330780784,-87827.82707546081,-87831.40335457366,-87827.24593010497,-87823.04380214737,-87818.79697070086,-87814.70660146554,-87810.54917699685,-87806.39175252817,-87801.54142398137,-87793.78536865537,-87808.73868569598,-87817.79114220037,-87813.85723517624,-87809.69981070755,-87805.56473798332,-87801.40731351463,-87797.22753730149,-87793.07011283281,-87788.53270870837,-87780.4190254711,-87792.46661573251,-87802.86017690423,-87799.12743558019,-87794.99236285596,-87790.87964187618,-87786.74456915195,-87782.5647929388,-87778.40736847013,-87772.10417653373,-87769.08669103227,-87786.9680865965,-87787.83980463026,-87783.5706214393,-87779.3684934817,-87775.27812424638,-87771.14305152214,-87766.96327530901,-87762.87290607368,-87756.86028681521,-87752.63580711315,-87772.0147695559,-87775.5686969243,-87771.3665689667,-87767.14208926464,-87763.02936828487,-87758.89429556063,-87754.69216760305,-87750.57944662326,-87746.48907738795,-87739.06829822878,-87740.90114127412,-87759.00605428292,-87758.0672810158,-87753.95456003601,-87749.79713556734,-87745.6620628431,-87741.4599348855,-87737.30251041682,-87733.10038245922,-87728.45121961251,-87720.47164684196,-87734.66500457108,-87745.2597314429,-87741.59404535223,-87737.48132437245,-87733.30154815932,-87729.05471671281,-87724.89729224412,-87720.73986777542,-87716.64949854011,-87712.49207407142,-87704.6466117676,-87708.17818739155,-87726.26074865588,-87724.96434747748,-87720.82927475325,-87716.64949854011,-87712.46972232696,-87708.33464960274,-87704.22192862295,-87699.84098670972,-87691.43673079452,-87700.89151869912,-87713.27438512736,-87710.01103043689,-87705.8983094571,-87701.62912626614,-87697.40464656409,-87693.42603605105,-87689.15685286008,-87684.75355920239,-87676.55046898729,-87686.13936735861,-87697.02466690834,-87693.38133256213,-87689.22390809345,-87685.02178013585,-87680.75259694489,-87676.6398759651,-87672.52715498534,-87667.43095724953,-87660.16664030156,-87676.192841076,-87683.07717836824,-87678.942105644,-87674.71762594195,-87670.62725670663,-87666.42512874903,-87662.29005602481,-87658.15498330057,-87653.79639313178,-87645.50389593886,-87654.01991057635,-87667.83328864972,-87664.79345140379,-87660.61367519066,-87656.43389897751,-87652.27647450882,-87648.16375352905,-87644.02868080481,-87639.7818493583,-87632.24931147687,-87633.90334056657,-87652.65645416456,-87652.16471578655,-87648.05199480677,-87643.84986684918,-87639.60303540266,-87635.42325918953,-87631.22113123193,-87627.04135501878,-87622.90628229456,-87615.44079964647,-87617.09482873617,-87636.47379117893,-87636.33968071219,-87632.1822562435,-87627.95777654146,-87623.84505556167,-87619.70998283745,-87615.57491011321,-87611.3280786667,-87607.28241292029,-87601.13568319508,-87597.35823838213,-87616.80425605825,-87619.75468632636,-87615.50785487985,-87611.37278215561,-87607.17065419801,-87603.05793321824,-87598.96756398292,-87594.74308428087,-87590.49625283436,-87582.33786610817,-87588.9763342114,-87604.06376171873,-87601.33684889518,-87597.13472093758,-87592.95494472444,-87588.7751685113,-87584.7295027649,-87580.70618876294,-87576.45935731642,-87568.59154326815,-87573.39716832605,-87589.49042433387,-87587.36700861061,-87583.2766393753,-87579.02980792879,-87574.89473520455,-87570.80436596923,-87566.73634847837,-87562.64597924304,-87557.46037452942,-87551.0677756152,-87568.12215663459,-87573.77714798179,-87569.57502002419,-87565.43994729995,-87561.32722632018,-87557.30391231822,-87553.21354308291,-87549.07847035867,-87542.55176097772,-87540.7636214213,-87558.98029315237,-87559.31556931921,-87555.18049659497,-87550.97836863737,-87546.79859242422,-87542.6635197,-87538.52844697576,-87534.43807774044,-87528.42545848197,-87524.33508924664,-87542.84233365564,-87545.27867380127,-87541.14360107704,-87537.05323184171,-87532.91815911749,-87528.78308639325,-87524.64801366902,-87520.51294094478,-87513.71801063037,-87512.28749898524,-87531.5099992168,-87532.22525503938,-87528.06783057068,-87523.86570261308,-87519.68592639995,-87515.48379844235,-87511.34872571811,-87507.21365299389,-87503.0562285252,-87495.47898715484,-87498.49647265632,-87514.94735657542,-87513.09216178562,-87508.91238557249,-87504.71025761489,-87500.57518489065,-87496.48481565533,-87492.26033595328,-87488.10291148459,-87480.61507709206,-87482.2467544373,-87501.13397850204,-87500.64224012403,-87496.48481565533,-87492.26033595328,-87487.96880101787,-87483.94548701591,-87479.78806254722,-87475.63063807854,-87469.7968327757,-87465.34883562909,-87483.52080387126,-87485.82303355016,-87481.68796082592,-87477.57523984615,-87473.395463633,-87469.28274265323,-87465.14766992899,-87461.01259720477,-87455.82699249113,-87449.00971043226,-87465.43824260692,-87470.91441999846,-87466.91345774096,-87462.75603327228,-87458.6433122925,-87454.46353607936,-87450.35081509958,-87446.30514935317,-87441.52187603974,-87433.65406199146,-87447.82506797613,-87456.92222796944,-87453.10007966758,-87448.89795170998,-87444.76287898576,-87440.71721323935,-87436.64919574848,-87432.40236430198,-87428.11082936655,-87419.885387407,-87428.26729157774,-87442.90768419596,-87440.18077137241,-87436.04569864819,-87431.84357069059,-87427.77555319972,-87423.75223919777,-87419.59481472908,-87415.41503851593,-87407.32370702311,-87412.91164313695,-87429.31782356714,-87427.26146307724,-87423.08168686411,-87418.87955890651,-87414.85624490456,-87410.76587566923,-87406.65315468945,-87402.54043370968,-87396.68427666239,-87391.99041032678,-87410.47530299131,-87413.55984372615,-87409.3353640241,-87405.15558781095,-87400.99816334226,-87396.95249759585,-87392.83977661608,-87388.70470389184,-87384.50257593425,-87376.97003805281,-87379.96517180982,-87397.08660806259,-87395.52198595072,-87391.31985799312,-87387.20713701333,-87383.04971254466,-87378.84758458706,-87374.71251186282,-87370.51038390522,-87362.57551462359,-87368.56578213761,-87382.55797416663,-87379.78635785417,-87375.6736368744,-87371.53856415016,-87367.35878793703,-87363.2684187017,-87359.13334597748,-87354.88651453097,-87346.77283129368,-87353.67952033038,-87368.0740437596,-87365.25772395823,-87361.05559600063,-87356.80876455412,-87352.69604357434,-87348.58332259457,-87344.5153051037,-87340.38023237947,-87333.22767415378,-87333.92057823189,-87353.52305811919,-87353.81363079711,-87349.65620632842,-87345.5211336042,-87341.3637091355,-87337.27333990019,-87333.27237764269,-87329.20436015182,-87324.84576998303,-87316.64267976793,-87324.44343858284,-87338.18976142285,-87335.19462766584,-87331.17131366389,-87327.0138891952,-87322.90116821542,-87318.78844723564,-87314.72042974478,-87310.47359829827,-87302.22580459426,-87310.67476399837,-87324.53284556065,-87321.51536005919,-87317.44734256832,-87313.37932507746,-87309.17719711986,-87305.06447614009,-87300.9517551603,-87296.14613010242,-87288.45713000979,-87303.2539848392,-87312.37349657697,-87308.52899653066,-87304.43862729534,-87300.37060980446,-87296.3025923136,-87292.16751958938,-87288.07715035405,-87283.83031890754,-87275.89544962591,-87281.97512411776,-87296.21318533579,-87293.32981030105,-87289.17238583237,-87285.05966485258,-87281.03635085063,-87276.99068510422,-87272.87796412445,-87268.63113267794,-87260.40569071838,-87268.2958565111,-87285.21612706377,-87283.15976657388,-87279.06939733856,-87274.84491763651,-87270.70984491227,-87266.73123439924,-87262.77497563064,-87258.5951994175,-87254.43777494882,-87247.03934753411,-87248.87219057944,-87267.15591754389,-87266.28419951013,-87262.1491267859,-87257.90229533939,-87253.78957435962,-87249.63214989092,-87245.51942891115,-87241.47376316473,-87236.53402764011,-87229.11324848095,-87245.38531844442,-87253.83427784852,-87249.85566733548,-87245.56413240006,-87241.4961149092,-87237.27163520714,-87233.091858994,-87228.84502754749,-87224.70995482325,-87220.17255069883,-87211.81299827254,-87224.46408563424,-87236.42226891784,-87232.86834154945,-87228.62151010294,-87224.37467865643,-87220.21725418774,-87215.92571925232,-87211.65653606136,-87207.49911159267,-87202.40291385686,-87195.1833003978,-87212.0365157171,-87220.30666116557,-87216.30569890807,-87212.01416397264,-87207.72262903722,-87203.47579759071,-87199.29602137757,-87195.20565214225,-87191.00352418465,-87185.10266364845,-87179.87235544591,-87197.99962019916,-87201.46414058974,-87197.21730914323,-87193.05988467454,-87188.94716369477,-87184.78973922608,-87180.56525952402,-87176.47489028871,-87171.3786925529,-87164.11437560491,-87180.20763161273,-87187.04726541607,-87182.93454443628,-87178.75476822314,-87174.64204724337,-87170.48462277467,-87166.34955005045,-87162.1697738373,-87157.5206109906,-87149.25046554214,-87162.61680872641,-87174.68675073227,-87171.26693383062,-87167.08715761747,-87162.88502965988,-87158.66054995783,-87154.43607025578,-87150.32334927599,-87146.14357306286,-87141.24854102713,-87133.64894791234,-87148.35639576393,-87155.8665819009,-87151.91032313232,-87147.75289866363,-87143.52841896158,-87139.32629100398,-87135.14651479085,-87131.03379381106,-87126.65285189783,-87118.27094772708,-87129.33506123246,-87141.15913404932,-87137.76166889211,-87133.62659616787,-87129.44681995474,-87125.19998850823,-87121.1096192729,-87117.01925003759,-87112.50419765762,-87104.12229348687,-87114.33704070294,-87126.85401759793,-87123.59066290745,-87119.4108866943,-87115.23111048117,-87111.11838950138,-87106.89390979933,-87102.69178184173,-87098.53435737305,-87093.5052148706,-87086.3526566449,-87102.28945044155,-87108.45853191121,-87104.34581093142,-87100.27779344056,-87096.18742420524,-87091.98529624764,-87087.8502235234,-87083.78220603254,-87078.68600829673,-87071.3546361154,-87087.44789212322,-87095.11454047139,-87091.09122646943,-87086.88909851183,-87082.68697055423,-87078.52954608554,-87074.43917685022,-87070.304104126,-87065.31966511246,-87057.9435894422,-87074.23801115013,-87082.50815659859,-87078.61895306337,-87074.43917685022,-87070.23704889262,-87066.01256919057,-87061.96690344416,-87057.83183071994,-87053.71910974015,-87049.00289166009,-87041.15742935627,-87055.44019406321,-87064.58205754544,-87060.67050226576,-87056.49072605261,-87052.31094983948,-87048.06411839297,-87043.92904566873,-87039.7939729445,-87035.61419673136,-87027.9922518721,-87030.71916469565,-87048.57820851544,-87047.28180733703,-87043.14673461279,-87038.92225491075,-87034.76483044206,-87030.67446120674,-87026.5393884825,-87022.40431575828,-87015.9893650996,-87013.37421099833,-87031.7473449406,-87032.55200774097,-87028.28282455001,-87024.14775182579,-87019.94562386819,-87015.76584765504,-87011.67547841973,-87007.54040569549,-86999.56083292495,-87004.25469926056,-87021.2867285355,-87019.40918200125,-87015.20705404367,-87011.00492608607,-87006.89220510628,-87002.80183587097,-86998.64441140227,-86994.57639391141,-86988.34025720839,-86985.05455077345,-87003.27122250453,-87004.54527193848,-87000.3878474698,-86996.27512649001,-86992.11770202134,-86987.9826292971,-86983.89226006178,-86979.80189082646,-86974.90685879074,-86967.10609997585,-86981.99236178308,-86990.35191420936,-86986.37330369632,-86982.28293446099,-86978.12550999231,-86974.01278901253,-86969.90006803276,-86965.76499530852,-86961.04877722845,-86952.8680387578,-86966.23438194208,-86979.04193151498,-86975.66681810223,-86971.50939363353,-86967.37432090931,-86963.28395167399,-86959.14887894975,-86955.03615796998,-86950.9234369902,-86946.7213090326,-86938.60762579532,-86946.18486716568,-86959.86413477232,-86956.86900101531,-86952.68922480218,-86948.46474510012,-86944.37437586479,-86940.37341360729,-86936.26069262752,-86932.01386118101,-86926.38122157827,-86920.72623023108,-86939.83697174037,-86946.09546018785,-86941.98273920808,-86937.84766648384,-86933.6678902707,-86929.57752103537,-86925.4648000556,-86921.262672098,-86917.03819239595,-86909.08097136987,-86915.07123888389,-86929.2198931241,-86926.42592506719,-86922.20144536514,-86918.15577961873,-86914.02070689449,-86909.88563417026,-86905.83996842384,-86900.98963987705,-86893.39004676224,-86908.20925333611,-86915.74179121754,-86911.7631807045,-86907.62810798027,-86903.42598002267,-86899.33561078736,-86895.17818631866,-86891.08781708335,-86886.03632283644,-86878.95081984412,-86894.64174445174,-86900.14027358775,-86896.07225609687,-86891.93718337265,-86887.80211064841,-86883.71174141309,-86879.57666868885,-86875.39689247572,-86867.64083714972,-86871.55239242941,-86888.27149728198,-86886.43865423664,-86882.2588780235,-86878.12380529927,-86874.01108431949,