24729 
24745 
24773 
24799 
24817 
24849 
24882 
24903 
24925 
24956 
25005 
25029 
25063 
25104 
25135 
25167 
25200 
25222 
25253 
25275 
25301 
25345 
25383 
25393 
25413 
25435 
25450 
25463 
25463 
25472 
25487 
25504 
25519 
25557 
25598 
25609 
25625 
25633 
25644 
25656 
25665 
25667 
25668 
25684 
25701 
25716 
25741 
25771 
25770 
25777 
25795 
25817 
25834 
25850 
25856 
25877 
25900 
25918 
25945 
25985 
25994 
26005 
26029 
26046 
26048 
26047 
26064 
26079 
26095 
26104 
26118 
26131 
26156 
26192 
26199 
26206 
26213 
26224 
26243 
26260 
26262 
26258 
26256 
26241 
26240 
26232 
26214 
26229 
26246 
26246 
26246 
26244 
26258 
26266 
26259 
26249 
26237 
26217 
26206 
26202 
26216 
26228 
26249 
26265 
26262 
26258 
26255 
26245 
26229 
26226 
26224 
26216 
26200 
26190 
26192 
26182 
26181 
26203 
26218 
26206 
26199 
26202 
26182 
26155 
26149 
26150 
26144 
26125 
26116 
26119 
26106 
26098 
26116 
26138 
26121 
26116 
26116 
26115 
26104 
26099 
26097 
26087 
26060 
26045 
26029 
26015 
26009 
26005 
25995 
25995 
26005 
26009 
25994 
25978 
25967 
25959 
25952 
25940 
25945 
25946 
25930 
25903 
25879 
25872 
25877 
25895 
25920 
25918 
25911 
25898 
25887 
25882 
25867 
25842 
25811 
25776 
25717 
25652 
25579 
25506 
25424 
25333 
25240 
25144 
25055 
24961 
24860 
24781 
24705 
24612 
24521 
24441 
24380 
24320 
24258 
24199 
24154 
24130 
24119 
24115 
24130 
24128 
24135 
24149 
24166 
24189 
24200 
24211 
24231 
24250 
24275 
24311 
24355 
24391 
24405 
24426 
24455 
24474 
24498 
24526 
24558 
24577 
24600 
24629 
24643 
24684 
24728 
24757 
24798 
24819 
24842 
24881 
24909 
24939 
24972 
25008 
25041 
25082 
25135 
25165 
25181 
25200 
25235 
25281 
25327 
25363 
25397 
25411 
25423 
25473 
25515 
25527 
25542 
25575 
25589 
25591 
25604 
25613 
25615 
25635 
25648 
25688 
25716 
25716 
25723 
25730 
25746 
25755 
25756 
25755 
25763 
25775 
25799 
25829 
25856 
25894 
25913 
25919 
25932 
25957 
25984 
26000 
26021 
26037 
26048 
26065 
26081 
26103 
26124 
26155 
26175 
26174 
26182 
26194 
26208 
26218 
26229 
26240 
26250 
26258 
26274 
26289 
26312 
26335 
26318 
26314 
26323 
26318 
26317 
26315 
26307 
26313 
26327 
26327 
26320 
26306 
26299 
26325 
26329 
26323 
26321 
26325 
26327 
26341 
26354 
26354 
26347 
26334 
26324 
26315 
26293 
26272 
26266 
26287 
26305 
26286 
26281 
26277 
26274 
26271 
26273 
26266 
26254 
26241 
26236 
26228 
26234 
26239 
26256 
26242 
26216 
26195 
26184 
26179 
26175 
26174 
26169 
26156 
26140 
26147 
26151 
26120 
26109 
26110 
26104 
26119 
26119 
26107 
26098 
26087 
26072 
26068 
26069 
26070 
26071 
26070 
26063 
26063 
26074 
26090 
26085 
26074 
26068 
26067 
26064 
26065 
26062 
26049 
26042 
26033 
26013 
26000 
25991 
25974 
25957 
25966 
25959 
25916 
25885 
25852 
25800 
25737 
25673 
25611 
25548 
25470 
25383 
25288 
25193 
25098 
24998 
24908 
24817 
24743 
24675 
24590 
24517 
24450 
24394 
24352 
24319 
24280 
24248 
24233 
24232 
24234 
24230 
24232 
24251 
24290 
24308 
24317 
24328 
24356 
24392 
24413 
24441 
24477 
24516 
24569 
24608 
24632 
24660 
24700 
24737 
24759 
24790 
24820 
24840 
24867 
24908 
24961 
24990 
25019 
25049 
25079 
25108 
25132 
25170 
25214 
25244 
25275 
25312 
25363 
25394 
25418 
25437 
25458 
25464 
25479 
25505 
25525 
25545 
25560 
25581 
25600 
25627 
25635 
25644 
25660 
25667 
25682 
25687 
25697 
25711 
25720 
25727 
25730 
25769 
25785 
25779 
25775 
25785 
25807 
25821 
25824 
25831 
25848 
25867 
25877 
25889 
25903 
25916 
25947 
25993 
26001 
26008 
26015 
26021 
26033 
26046 
26063 
26076 
26086 
26100 
26124 
26139 
26167 
26185 
26191 
26204 
26213 
26213 
26205 
26195 
26185 
26184 
26184 
26190 
26194 
26198 
26219 
26234 
26235 
26226 
26203 
26186 
26182 
26171 
26161 
26179 
26189 
26203 
26203 
26185 
26163 
26152 
26161 
26169 
26168 
26171 
26169 
26169 
26169 
26172 
26178 
26178 
26183 
26179 
26165 
26159 
26166 
26176 
26166 
26152 
26139 
26132 
26134 
26142 
26145 
26134 
26121 
26104 
26094 
26098 
26108 
26119 
26114 
26090 
26069 
26061 
26051 
26039 
26038 
26032 
26034 
26036 
26030 
26018 
26002 
25998 
26017 
26019 
26013 
26016 
26021 
26017 
26004 
25989 
25981 
25981 
25986 
25980 
25972 
25968 
25968 
25962 
25958 
25951 
25951 
25958 
25955 
25953 
25950 
25933 
25912 
25891 
25885 
25872 
25860 
25857 
25841 
25796 
25739 
25675 
25610 
25528 
25444 
25361 
25273 
25179 
25092 
25005 
24921 
24836 
24754 
24669 
24591 
24497 
24437 
24391 
24334 
24276 
24231 
24199 
24170 
24160 
24164 
24166 
24164 
24157 
24159 
24212 
24252 
24281 
24314 
24349 
24386 
24415 
24439 
24471 
24499 
24523 
24563 
24613 
24667 
24704 
24728 
24757 
24785 
24807 
24838 
24880 
24904 
24925 
24960 
24998 
25052 
25092 
25137 
25178 
25209 
25243 
25267 
25295 
25319 
25347 
25385 
25427 
25465 
25475 
25484 
25507 
25513 
25520 
25540 
25559 
25568 
25578 
25614 
25628 
25631 
25629 
25623 
25618 
25618 
25617 
25617 
25617 
25615 
25609 
25604 
25607 
25604 
25628 
25650 
25659 
25669 
25686 
25711 
25725 
25731 
25736 
25752 
25771 
25783 
25812 
25854 
25868 
25869 
25885 
25914 
25930 
25935 
25941 
25952 
25960 
25958 
25957 
25975 
26008 
26021 
26048 
26062 
26061 
26066 
26072 
26079 
26096 
26096 
26099 
26113 
26123 
26145 
26186 
26174 
26165 
26170 
26180 
26199 
26217 
26218 
26209 
26211 
26213 
26207 
26212 
26214 
26213 
26226 
26247 
26234 
26235 
26238 
26239 
26239 
26241 
26249 
26243 
26235 
26231 
26226 
26207 
26201 
26222 
26219 
26206 
26206 
26201 
26188 
26171 
26163 
26159 
26147 
26142 
26130 
26117 
26118 
26118 
26110 
26085 
26083 
26088 
26087 
26089 
26080 
26061 
26052 
26040 
26031 
26019 
26007 
26002 
25994 
25972 
25955 
25941 
25942 
25930 
25920 
25906 
25886 
25874 
25856 
25845 
25838 
25835 
25834 
25825 
25811 
25796 
25799 
25822 
25826 
25793 
25776 
25770 
25766 
25776 
25769 
25749 
25738 
25727 
25723 
25719 
25711 
25695 
25660 
25621 
25591 
25563 
25509 
25461 
25404 
25333 
25248 
25171 
25090 
25010 
24937 
24863 
24788 
24716 
24651 
24594 
24539 
24479 
24428 
24393 
24369 
24350 
24323 
24307 
24300 
24305 
24311 
24335 
24362 
24379 
24381 
24392 
24418 
24440 
24454 
24479 
24499 
24523 
24551 
24576 
24600 
24642 
24675 
24700 
24731 
24758 
24786 
24806 
24839 
24876 
24911 
24943 
24993 
25063 
25084 
25112 
25155 
25184 
25210 
25239 
25258 
25285 
25300 
25322 
25346 
25372 
25411 
25437 
25455 
25473 
25498 
25523 
25541 
25555 
25567 
25579 
25596 
25630 
25632 
25653 
25669 
25700 
25729 
25748 
25778 
25789 
25800 
25812 
25825 
25847 
25891 
25920 
25941 
25958 
25967 
25985 
25995 
26005 
26009 
26017 
26028 
26054 
26096 
26110 
26119 
26127 
26120 
26126 
26150 
26163 
26166 
26175 
26185 
26189 
26196 
26218 
26243 
26256 
26250 
26244 
26238 
26233 
26237 
26236 
26238 
26237 
26232 
26236 
26225 
26216 
26213 
26210 
26198 
26183 
26160 
26115 
26092 
26069 
26039 
26016 
25981 
25946 
25936 
25916 
25883 
25856 
25831 
25798 
25765 
25744 
25738 
25715 
25677 
25668 
25657 
25644 
25621 
25588 
25562 
25545 
25529 
25515 
25500 
25485 
25472 
25462 
25455 
25447 
25437 
25445 
25450 
25457 
25464 
25464 
25464 
25456 
25454 
25451 
25444 
25446 
25454 
25460 
25478 
25489 
25492 
25493 
25492 
25499 
25494 
25491 
25507 
25517 
25513 
25525 
25545 
25550 
25563 
25586 
25597 
25616 
25628 
25625 
25639 
25636 
25635 
25639 
25639 
25637 
25654 
25668 
25677 
25692 
25693 
25692 
25686 
25677 
25686 
25688 
25679 
25666 
25658 
25630 
25614 
25596 
25579 
25569 
25571 
25556 
25526 
25493 
25474 
25462 
25432 
25403 
25384 
25342 
25292 
25245 
25213 
25185 
25153 
25113 
25081 
25045 
25028 
25024 
24996 
24970 
24939 
24911 
24894 
24875 
24851 
24826 
24801 
24788 
24787 
24781 
24781 
24791 
24803 
24816 
24831 
24848 
24862 
24867 
24862 
24867 
24878 
24894 
24911 
24938 
24950 
24958 
24974 
24996 
25020 
25061 
25073 
25104 
25135 
25143 
25172 
25186 
25193 
25209 
25232 
25261 
25285 
25309 
25346 
25396 
25412 
25425 
25451 
25470 
25488 
25514 
25533 
25556 
25577 
25597 
25616 
25628 
25653 
25669 
25692 
25706 
25716 
25739 
25761 
25776 
25799 
25815 
25845 
25867 
25903 
25932 
25948 
25951 
25956 
25963 
25983 
26018 
26043 
26068 
26084 
26080 
26076 
26081 
26115 
26154 
26166 
26173 
26185 
26192 
26199 
26203 
26207 
26205 
26193 
26188 
26196 
26201 
26221 
26234 
26237 
26243 
26265 
26264 
26273 
26287 
26303 
26301 
26291 
26286 
26278 
26300 
26312 
26307 
26295 
26297 
26300 
26298 
26307 
26314 
26331 
26345 
26367 
26390 
26399 
26401 
26385 
26379 
26390 
26396 
26403 
26399 
26388 
26389 
26411 
26421 
26418 
26429 
26430 
26416 
26409 
26420 
26426 
26419 
26419 
26412 
26405 
26415 
26424 
26421 
26445 
26473 
26464 
26461 
26473 
26467 
26444 
26429 
26414 
26407 
26420 
26430 
26430 
26424 
26426 
26436 
26443 
26425 
26412 
26404 
26410 
26406 
26391 
26383 
26375 
26363 
26344 
26322 
26317 
26314 
26319 
26341 
26328 
26311 
26304 
26300 
26302 
26302 
26310 
26308 
26301 
26300 
26287 
26274 
26248 
26251 
26277 
26277 
26277 
26256 
26252 
26252 
26244 
26247 
26240 
26236 
26222 
26210 
26194 
26189 
26190 
26193 
26201 
26204 
26195 
26183 
26188 
26185 
26173 
26164 
26165 
26170 
26170 
26162 
26162 
26150 
26131 
26124 
26136 
26127 
26119 
26118 
26109 
26105 
26107 
26109 
26115 
26117 
26113 
26107 
26107 
26116 
26111 
26121 
26121 
26118 
26108 
26096 
26084 
26072 
26060 
26062 
26063 
26057 
26055 
26035 
26024 
26021 
26002 
26007 
26010 
26005 
25997 
25976 
25973 
25979 
25970 
25948 
25931 
25932 
25937 
25922 
25919 
25918 
25921 
25937 
25944 
25935 
25923 
25920 
25908 
25894 
25877 
25863 
25855 
25862 
25863 
25854 
25831 
25823 
25818 
25812 
25828 
25818 
25804 
25782 
25778 
25788 
25785 
25784 
25768 
25754 
25747 
25747 
25746 
25752 
25753 
25744 
25745 
25755 
25742 
25736 
25724 
25716 
25704 
25679 
25657 
25654 
25652 
25658 
25659 
25659 
25655 
25637 
25644 
25666 
25670 
25672 
25675 
25680 
25679 
25688 
25692 
25672 
25651 
25655 
25653 
25649 
25656 
25676 
25698 
25696 
25686 
25678 
25685 
25685 
25679 
25670 
25662 
25666 
25663 
25648 
25643 
25635 
25636 
25636 
25636 
25654 
25660 
25671 
25660 
25654 
25650 
25643 
25646 
25645 
25626 
25610 
25603 
25607 
25606 
25596 
25609 
25639 
25644 
25653 
25635 
25625 
25620 
25601 
25594 
25609 
25620 
25617 
25616 
25603 
25596 
25595 
25592 
25604 
25615 
25615 
25605 
25595 
25594 
25595 
25588 
25584 
25584 
25578 
25575 
25576 
25590 
25610 
25602 
25602 
25601 
25592 
25585 
25581 
25604 
25604 
25599 
25603 
25624 
25646 
25658 
25663 
25682 
25684 
25684 
25669 
25652 
25650 
25645 
25646 
25639 
25641 
25640 
25633 
25624 
25622 
25634 
25658 
25686 
25679 
25686 
25685 
25673 
25667 
25674 
25671 
25661 
25661 
25661 
25661 
25652 
25639 
25634 
25654 
25684 
25689 
25690 
25682 
25677 
25679 
25675 
25658 
25641 
25637 
25633 
25625 
25624 
25622 
25622 
25642 
25644 
25649 
25646 
25648 
25646 
25641 
25643 
25647 
25643 
25641 
25631 
25624 
25625 
25641 
25671 
25667 
25659 
25653 
25650 
25653 
25642 
25625 
25617 
25624 
25635 
25637 
25618 
25603 
25595 
25603 
25633 
25666 
25661 
25652 
25635 
25630 
25637 
25636 
25632 
25621 
25617 
25616 
25603 
25597 
25588 
25578 
25593 
25611 
25596 
25598 
25608 
25614 
25603 
25597 
25593 
25599 
25596 
25585 
25589 
25592 
25592 
25609 
25616 
25628 
25620 
25602 
25594 
25603 
25593 
25583 
25578 
25590 
25590 
25584 
25587 
25615 
25620 
25613 
25617 
25618 
25604 
25597 
25607 
25612 
25598 
25593 
25595 
25597 
25591 
25582 
25581 
25600 
25602 
25612 
25621 
25623 
25613 
25610 
25611 
25604 
25589 
25583 
25583 
25581 
25580 
25588 
25616 
25608 
25595 
25590 
25580 
25577 
25575 
25583 
25582 
25574 
25568 
25572 
25570 
25575 
25579 
25592 
25603 
25587 
25585 
25578 
25565 
25554 
25562 
25571 
25574 
25573 
25574 
25563 
25555 
25548 
25546 
25547 
25544 
25537 
25552 
25560 
25565 
25577 
25584 
25583 
25583 
25576 
25571 
25578 
25577 
25567 
25569 
25569 
25567 
25585 
25591 
25597 
25589 
25587 
25591 
25589 
25581 
25565 
25567 
25568 
25559 
25559 
25561 
25568 
25577 
25569 
25559 
25550 
25546 
25548 
25560 
25557 
25565 
25569 
25564 
25556 
25550 
25561 
25584 
25597 
25578 
25569 
25565 
25561 
25559 
25565 
25573 
25571 
25579 
25578 
25570 
25561 
25551 
25556 
25572 
25552 
25535 
25538 
25542 
25539 
25528 
25525 
25513 
25508 
25497 
25489 
25489 
25481 
25473 
25504 
25523 
25517 
25508 
25486 
25466 
25472 
25480 
25484 
25477 
25461 
25455 
25457 
25443 
25433 
25430 
25426 
25430 
25447 
25477 
25473 
25475 
25486 
25487 
25481 
25485 
25486 
25486 
25484 
25477 
25475 
25474 
25459 
25461 
25486 
25493 
25492 
25495 
25490 
25490 
25500 
25501 
25503 
25508 
25505 
25499 
25487 
25479 
25488 
25489 
25484 
25475 
25469 
25464 
25461 
25478 
25485 
25494 
25504 
25514 
25509 
25512 
25527 
25529 
25549 
25566 
25574 
25580 
25580 
25585 
25586 
25580 
25561 
25545 
25534 
25538 
25563 
25577 
25573 
25577 
25580 
25576 
25575 
25574 
25577 
25582 
25583 
25581 
25588 
25583 
25578 
25600 
25612 
25584 
25576 
25595 
25597 
25593 
25590 
25592 
25586 
25580 
25565 
25564 
25571 
25571 
25573 
25597 
25594 
25593 
25593 
25588 
25590 
25591 
25583 
25577 
25575 
25566 
25563 
25567 
25567 
25564 
25571 
25568 
25573 
25590 
25590 
25588 
25582 
25572 
25585 
25621 
25631 
25633 
25624 
25605 
25593 
25584 
25581 
25584 
25580 
25580 
25584 
25586 
25582 
25582 
25569 
25565 
25589 
25611 
25597 
25591 
25586 
25587 
25583 
25579 
25581 
25591 
25586 
25565 
25540 
25521 
25512 
25529 
25517 
25497 
25484 
25466 
25452 
25434 
25407 
25384 
25357 
25337 
25323 
25297 
25267 
25237 
25198 
25167 
25157 
25140 
25104 
25069 
25054 
25044 
25027 
25010 
24992 
24972 
24964 
24948 
24934 
24917 
24896 
24886 
24875 
24860 
24875 
24886 
24890 
24879 
24875 
24874 
24870 
24873 
24883 
24884 
24888 
24906 
24912 
24912 
24925 
24953 
24953 
24950 
24959 
24965 
24959 
24956 
24960 
24984 
25002 
25010 
25021 
25039 
25050 
25059 
25074 
25110 
25121 
25130 
25135 
25155 
25173 
25185 
25199 
25216 
25232 
25251 
25267 
25313 
25339 
25343 
25342 
25350 
25371 
25386 
25398 
25402 
25410 
25415 
25421 
25426 
25439 
25457 
25485 
25512 
25533 
25545 
25557 
25570 
25575 
25577 
25590 
25617 
25633 
25626 
25625 
25654 
25672 
25668 
25675 
25687 
25683 
25668 
25669 
25680 
25686 
25702 
25714 
25720 
25732 
25746 
25760 
25757 
25751 
25746 
25743 
25748 
25756 
25766 
25770 
25774 
25777 
25795 
25817 
25815 
25819 
25820 
25822 
25830 
25829 
25823 
25824 
25830 
25823 
25816 
25810 
25820 
25845 
25847 
25836 
25813 
25809 
25814 
25815 
25811 
25816 
25805 
25794 
25792 
25800 
25810 
25836 
25860 
25859 
25854 
25843 
25836 
25836 
25838 
25837 
25838 
25832 
25824 
25828 
25826 
25824 
25833 
25841 
25843 
25818 
25822 
25835 
25833 
25836 
25838 
25828 
25819 
25814 
25809 
25814 
25846 
25856 
25855 
25844 
25831 
25818 
25824 
25820 
25814 
25809 
25801 
25790 
25785 
25789 
25791 
25803 
25825 
25809 
25804 
25794 
25772 
25763 
25755 
25738 
25714 
25680 
25648 
25613 
25596 
25559 
25527 
25495 
25463 
25448 
25423 
25398 
25366 
25340 
25316 
25293 
25271 
25251 
25238 
25219 
25211 
25201 
25185 
25173 
25166 
25156 
25142 
25129 
25145 
25143 
25144 
25149 
25148 
25144 
25148 
25143 
25124 
25126 
25140 
25145 
25149 
25154 
25177 
25206 
25213 
25208 
25214 
25225 
25216 
25221 
25230 
25240 
25246 
25260 
25280 
25312 
25324 
25333 
25332 
25344 
25357 
25373 
25377 
25387 
25398 
25407 
25412 
25416 
25438 
25476 
25487 
25503 
25529 
25536 
25543 
25545 
25552 
25556 
25562 
25568 
25565 
25563 
25574 
25599 
25609 
25602 
25606 
25618 
25623 
25643 
25653 
25654 
25647 
25653 
25647 
25644 
25654 
25653 
25667 
25690 
25705 
25726 
25712 
25698 
25709 
25712 
25721 
25715 
25704 
25700 
25704 
25706 
25705 
25731 
25742 
25740 
25735 
25729 
25732 
25744 
25746 
25749 
25756 
25769 
25776 
25785 
25789 
25791 
25818 
25824 
25815 
25799 
25800 
25797 
25792 
25798 
25796 
25788 
25798 
25799 
25802 
25803 
25820 
25853 
25839 
25827 
25821 
25806 
25793 
25800 
25824 
25829 
25819 
25822 
25818 
25803 
25807 
25839 
25840 
25823 
25824 
25840 
25850 
25849 
25858 
25853 
25849 
25836 
25832 
25821 
25814 
25820 
25852 
25868 
25871 
25862 
25853 
25849 
25850 
25861 
25867 
25855 
25834 
25818 
25798 
25771 
25746 
25727 
25707 
25661 
25604 
25571 
25573 
25546 
25498 
25457 
25420 
25383 
25348 
25310 
25277 
25242 
25200 
25164 
25125 
25082 
25053 
25033 
25010 
24980 
24946 
24917 
24890 
24872 
24892 
24912 
24924 
24923 
24907 
24898 
24900 
24896 
24896 
24891 
24899 
24914 
24919 
24927 
24943 
24972 
25034 
25077 
25105 
25140 
25168 
25197 
25219 
25246 
25283 
25332 
25370 
25388 
25418 
25437 
25461 
25494 
25518 
25544 
25574 
25585 
25601 
25652 
25684 
25703 
25729 
25746 
25765 
25796 
25821 
25834 
25856 
25881 
25913 
25937 
25974 
25996 
26000 
26003 
26013 
26026 
26045 
26058 
26068 
26081 
26088 
26099 
26118 
26153 
26175 
26181 
26178 
26166 
26160 
26154 
26161 
26169 
26178 
26194 
26198 
26197 
26194 
26200 
26222 
26237 
26246 
26239 
26221 
26218 
26219 
26211 
26203 
26197 
26189 
26172 
26155 
26144 
26136 
26155 
26172 
26167 
26173 
26173 
26169 
26165 
26162 
26152 
26145 
26133 
26122 
26121 
26129 
26149 
26171 
26163 
26148 
26137 
26138 
26141 
26130 
26136 
26157 
26156 
26148 
26144 
26138 
26129 
26118 
26126 
26148 
26132 
26124 
26114 
26111 
26100 
26092 
26088 
26091 
26099 
26109 
26115 
26122 
26141 
26137 
26127 
26119 
26101 
26086 
26084 
26079 
26073 
26070 
26062 
26063 
26064 
26055 
26047 
26055 
26043 
26035 
26030 
26028 
26018 
26004 
25991 
25991 
25994 
25988 
25978 
25976 
25973 
25965 
25971 
25991 
25994 
25998 
26002 
25988 
25973 
25965 
25956 
25959 
25951 
25941 
25933 
25928 
25922 
25929 
25929 
25910 
25897 
25896 
25887 
25882 
25884 
25870 
25839 
25800 
25761 
25706 
25647 
25585 
25528 
25478 
25426 
25373 
25325 
25271 
25219 
25156 
25108 
25084 
25039 
24997 
24969 
24926 
24876 
24839 
24808 
24783 
24757 
24730 
24706 
24683 
24645 
24608 
24590 
24579 
24585 
24601 
24607 
24621 
24624 
24632 
24647 
24665 
24699 
24731 
24755 
24781 
24819 
24878 
24921 
24947 
24989 
25033 
25071 
25100 
25147 
25212 
25264 
25283 
25324 
25359 
25394 
25437 
25473 
25508 
25538 
25565 
25599 
25625 
25641 
25658 
25699 
25728 
25738 
25753 
25772 
25789 
25801 
25807 
25826 
25844 
25843 
25839 
25848 
25850 
25860 
25894 
25923 
25926 
25943 
25970 
25978 
25989 
25997 
26003 
26009 
26028 
26045 
26057 
26082 
26117 
26132 
26157 
26165 
26162 
26171 
26186 
26193 
26196 
26210 
26238 
26253 
26274 
26285 
26282 
26294 
26297 
26302 
26311 
26306 
26300 
26289 
26297 
26301 
26301 
26301 
26308 
26332 
26327 
26323 
26320 
26331 
26347 
26349 
26341 
26332 
26312 
26308 
26317 
26315 
26315 
26338 
26359 
26340 
26323 
26311 
26302 
26288 
26272 
26272 
26271 
26268 
26260 
26240 
26222 
26221 
26225 
26209 
26194 
26184 
26191 
26213 
26221 
26234 
26238 
26235 
26218 
26205 
26212 
26221 
26229 
26234 
26244 
26263 
26311 
26350 
26396 
26427 
26443 
26475 
26517 
26552 
26586 
26622 
26654 
26687 
26739 
26773 
26788 
26810 
26834 
26869 
26905 
26915 
26933 
26946 
26923 
26878 
26815 
26777 
26744 
26727 
26700 
26656 
26612 
26562 
26509 
26460 
26396 
26329 
26275 
26216 
26156 
26116 
26083 
26048 
26018 
26001 
25977 
25936 
25908 
25880 
25862 
25860 
25837 
25818 
25792 
25774 
25761 
25736 
25712 
25680 
25641 
25603 
25577 
25543 
25501 
25453 
25414 
25376 
25337 
25298 
25255 
25210 
25151 
25094 
25060 
25031 
24990 
24949 
24940 
24916 
24896 
24869 
24848 
24818 
24787 
24750 
24710 
24681 
24662 
24643 
24626 
24599 
24585 
24575 
24561 
24550 
24540 
24545 
24574 
24594 
24611 
24618 
24614 
24616 
24635 
24659 
24690 
24694 
24713 
24752 
24793 
24842 
24883 
24918 
24960 
24994 
25032 
25071 
25106 
25128 
25145 
25166 
25199 
25228 
25249 
25278 
25306 
25334 
25361 
25372 
25395 
25423 
25445 
25461 
25489 
25509 
25545 
25584 
25600 
25608 
25608 
25610 
25617 
25626 
25630 
25645 
25658 
25664 
25681 
25698 
25723 
25777 
25787 
25779 
25781 
25801 
25815 
25822 
25821 
25816 
25815 
25829 
25829 
25828 
25829 
25834 
25837 
25873 
25915 
25927 
25919 
25912 
25917 
25928 
25935 
25947 
25954 
25960 
25961 
25965 
25983 
26007 
26038 
26047 
26042 
26025 
26028 
26028 
26033 
26051 
26056 
26054 
26047 
26048 
26060 
26068 
26112 
26122 
26118 
26106 
26088 
26092 
26104 
26114 
26097 
26080 
26075 
26073 
26072 
26088 
26095 
26076 
26067 
26066 
26062 
26053 
26051 
26056 
26056 
26056 
26055 
26055 
26048 
26039 
26051 
26067 
26057 
26043 
26031 
26022 
26012 
25993 
25990 
25998 
25997 
25993 
25987 
25976 
25979 
25987 
25990 
26013 
26011 
26000 
25985 
25980 
25967 
25948 
25939 
25938 
25927 
25910 
25881 
25849 
25805 
25762 
25733 
25716 
25703 
25658 
25606 
25557 
25505 
25438 
25375 
25330 
25290 
25251 
25215 
25186 
25155 
25121 
25092 
25059 
25036 
24999 
24977 
24957 
24919 
24904 
24915 
24941 
24928 
24918 
24919 
24925 
24929 
24928 
24933 
24946 
24958 
24968 
24985 
25019 
25056 
25116 
25145 
25162 
25182 
25205 
25239 
25270 
25316 
25361 
25395 
25428 
25456 
25523 
25564 
25593 
25626 
25644 
25674 
25711 
25730 
25752 
25763 
25778 
25798 
25837 
25848 
25874 
25898 
25918 
25927 
25935 
25953 
25958 
25967 
25975 
25987 
26013 
26028 
26051 
26072 
26077 
26079 
26086 
26092 
26083 
26081 
26082 
26079 
26089 
26097 
26092 
26107 
26098 
26094 
26105 
26118 
26137 
26138 
26133 
26146 
26158 
26155 
26149 
26149 
26171 
26187 
26185 
26179 
26185 
26186 
26182 
26174 
26169 
26164 
26153 
26128 
26108 
26102 
26100 
26096 
26137 
26176 
26183 
26172 
26169 
26161 
26153 
26147 
26143 
26138 
26135 
26133 
26128 
26125 
26128 
26126 
26125 
26121 
26112 
26102 
26102 
26100 
26089 
26077 
26079 
26084 
26082 
26070 
26063 
26053 
26041 
26056 
26061 
26051 
26060 
26053 
26046 
26031 
26018 
26017 
26017 
26017 
25997 
25985 
25983 
25981 
25960 
25934 
25947 
25957 
25948 
25942 
25934 
25925 
25914 
25906 
25908 
25915 
25908 
25889 
25869 
25855 
25872 
25883 
25879 
25873 
25875 
25874 
25878 
25889 
25882 
25867 
25849 
25833 
25829 
25816 
25806 
25820 
25833 
25817 
25810 
25809 
25813 
25802 
25775 
25743 
25710 
25681 
25651 
25632 
25608 
25570 
25520 
25457 
25402 
25356 
25300 
25249 
25185 
25156 
25146 
25111 
25076 
25025 
24976 
24954 
24938 
24912 
24886 
24880 
24877 
24866 
24845 
24827 
24817 
24809 
24804 
24808 
24831 
24833 
24843 
24850 
24865 
24873 
24867 
24868 
24891 
24919 
24940 
24962 
24983 
25023 
25065 
25094 
25131 
25170 
25199 
25227 
25260 
25292 
25322 
25365 
25425 
25458 
25499 
25523 
25554 
25592 
25627 
25651 
25670 
25703 
25746 
25769 
25781 
25801 
25835 
25848 
25861 
25876 
25880 
25888 
25899 
25929 
25965 
25981 
25995 
26005 
26012 
26019 
26020 
26019 
26029 
26054 
26068 
26073 
26087 
26102 
26092 
26103 
26109 
26113 
26115 
26106 
26103 
26128 
26144 
26151 
26159 
26194 
26188 
26175 
26165 
26162 
26159 
26160 
26164 
26176 
26184 
26188 
26189 
26171 
26161 
26155 
26164 
26181 
26196 
26211 
26213 
26202 
26185 
26183 
26178 
26171 
26161 
26162 
26165 
26167 
26149 
26148 
26181 
26182 
26174 
26175 
26164 
26160 
26164 
26155 
26137 
26117 
26103 
26096 
26081 
26069 
26061 
26063 
26074 
26056 
26060 
26059 
26052 
26045 
26021 
26000 
25993 
25990 
25990 
25984 
25980 
26007 
26026 
26014 
25997 
25978 
25972 
25979 
25975 
25967 
25946 
25937 
25931 
25918 
25901 
25900 
25894 
25885 
25906 
25902 
25909 
25915 
25909 
25885 
25888 
25882 
25872 
25859 
25855 
25856 
25859 
25863 
25855 
25860 
25866 
25856 
25849 
25854 
25852 
25852 
25866 
25864 
25854 
25830 
25817 
25818 
25822 
25805 
25794 
25800 
25825 
25821 
25811 
25807 
25795 
25772 
25769 
25761 
25747 
25740 
25722 
25701 
25684 
25663 
25625 
25573 
25522 
25478 
25421 
25389 
25397 
25369 
25331 
25304 
25267 
25233 
25191 
25157 
25129 
25103 
25071 
25040 
25027 
25001 
24971 
24961 
24963 
24962 
24952 
24940 
24945 
24973 
24969 
24957 
24954 
24948 
24949 
24964 
24966 
24971 
24986 
24994 
25022 
25054 
25090 
25131 
25151 
25163 
25183 
25212 
25238 
25253 
25265 
25293 
25330 
25367 
25395 
25451 
25471 
25477 
25487 
25507 
25523 
25545 
25565 
25575 
25600 
25621 
25648 
25690 
25738 
25758 
25766 
25779 
25791 
25813 
25842 
25853 
25858 
25854 
25854 
25854 
25868 
25898 
25909 
25907 
25904 
25911 
25921 
25944 
25961 
25968 
25969 
25972 
25987 
26023 
26031 
26031 
26035 
26030 
26015 
26011 
26007 
26010 
26017 
26025 
26033 
26045 
26051 
26080 
26082 
26060 
26051 
26052 
26056 
26061 
26055 
26047 
26053 
26052 
26053 
26052 
26033 
26017 
26006 
25993 
25999 
25995 
25993 
26005 
26013 
26018 
26005 
25996 
25986 
25985 
25982 
25974 
25977 
25989 
26008 
26024 
26017 
26017 
26005 
26002 
26003 
26014 
26000 
25989 
25986 
25962 
25945 
25933 
25920 
25943 
25961 
25955 
25947 
25936 
25939 
25953 
25948 
25933 
25918 
25911 
25902 
25900 
25910 
25916 
25893 
25889 
25903 
25887 
25876 
25877 
25873 
25859 
25851 
25850 
25846 
25841 
25846 
25848 
25846 
25854 
25878 
25867 
25846 
25832 
25829 
25825 
25810 
25799 
25790 
25781 
25778 
25758 
25722 
25678 
25633 
25591 
25540 
25493 
25472 
25433 
25369 
25299 
25245 
25190 
25137 
25078 
25019 
24949 
24887 
24838 
24796 
24751 
24709 
24675 
24638 
24593 
24560 
24550 
24540 
24524 
24507 
24502 
24507 
24534 
24561 
24571 
24585 
24609 
24632 
24662 
24692 
24724 
24768 
24801 
24844 
24893 
24926 
24957 
24987 
25030 
25086 
25141 
25190 
25241 
25310 
25355 
25381 
25416 
25453 
25499 
25541 
25565 
25578 
25603 
25626 
25638 
25663 
25708 
25723 
25728 
25743 
25768 
25783 
25796 
25814 
25829 
25843 
25854 
25866 
25906 
25924 
25927 
25928 
25935 
25940 
25950 
25948 
25957 
25969 
25976 
25977 
25995 
26007 
26037 
26056 
26065 
26071 
26082 
26103 
26112 
26119 
26118 
26126 
26143 
26153 
26155 
26180 
26208 
26202 
26214 
26232 
26249 
26276 
26281 
26274 
26278 
26290 
26290 
26291 
26295 
26288 
26290 
26319 
26324 
26322 
26316 
26304 
26299 
26303 
26300 
26309 
26323 
26326 
26316 
26319 
26309 
26296 
26291 
26322 
26320 
26309 
26297 
26300 
26297 
26291 
26281 
26271 
26251 
26233 
26233 
26233 
26237 
26234 
26244 
26256 
26247 
26244 
26234 
26223 
26228 
26221 
26207 
26199 
26180 
26166 
26159 
26152 
26148 
26150 
26152 
26165 
26164 
26149 
26137 
26122 
26108 
26089 
26079 
26075 
26069 
26055 
26080 
26091 
26078 
26070 
26077 
26077 
26071 
26065 
26045 
26020 
26008 
25997 
25978 
25955 
25943 
25949 
25951 
25916 
25879 
25828 
25784 
25743 
25700 
25644 
25556 
25465 
25385 
25319 
25245 
25181 
25119 
25069 
25013 
24958 
24915 
24863 
24820 
24776 
24743 
24718 
24699 
24664 
24631 
24617 
24621 
24631 
24628 
24628 
24647 
24664 
24680 
24694 
24714 
24746 
24768 
24795 
24848 
24875 
24896 
24925 
24959 
24989 
25029 
25074 
25115 
25160 
25184 
25245 
25295 
25315 
25363 
25419 
25469 
25506 
25546 
25594 
25620 
25643 
25674 
25714 
25740 
25782 
25804 
25821 
25855 
25887 
25902 
25909 
25915 
25923 
25953 
25982 
25991 
25994 
25980 
25992 
26006 
26003 
26005 
26019 
26033 
26045 
26048 
26038 
26039 
26058 
26069 
26058 
26054 
26054 
26069 
26079 
26088 
26092 
26093 
26096 
26090 
26068 
26060 
26068 
26096 
26110 
26120 
26133 
26137 
26138 
26129 
26116 
26127 
26145 
26158 
26161 
26147 
26147 
26166 
26181 
26162 
26161 
26178 
26188 
26188 
26187 
26185 
26176 
26171 
26179 
26189 
26197 
26224 
26240 
26234 
26221 
26196 
26192 
26194 
26174 
26159 
26144 
26144 
26143 
26146 
26151 
26169 
26164 
26154 
26141 
26128 
26121 
26117 
26117 
26121 
26121 
26122 
26110 
26099 
26113 
26124 
26114 
26110 
26100 
26095 
26090 
26088 
26088 
26073 
26070 
26070 
26071 
26071 
26069 
26061 
26073 
26081 
26066 
26050 
26045 
26043 
26039 
26031 
26025 
26019 
26017 
26002 
25994 
26000 
25997 
25998 
26003 
26023 
26019 
26010 
25997 
25982 
25968 
25949 
25936 
25925 
25910 
25900 
25898 
25900 
25893 
25889 
25887 
25862 
25813 
25742 
25668 
25592 
25512 
25437 
25362 
25298 
25233 
25168 
25096 
25022 
24966 
24906 
24848 
24796 
24740 
24701 
24670 
24640 
24619 
24589 
24566 
24541 
24522 
24515 
24547 
24580 
24593 
24608 
24625 
24646 
24666 
24688 
24709 
24729 
24753 
24786 
24837 
24859 
24892 
24932 
24965 
24999 
25029 
25055 
25092 
25136 
25168 
25202 
25255 
25299 
25338 
25376 
25416 
25448 
25481 
25506 
25539 
25570 
25587 
25607 
25649 
25682 
25696 
25720 
25749 
25755 
25757 
25777 
25799 
25820 
25837 
25850 
25874 
25894 
25905 
25913 
25923 
25925 
25929 
25927 
25933 
25934 
25925 
25922 
25930 
25940 
25964 
25961 
25967 
25976 
25984 
25988 
26000 
26005 
26008 
25998 
26000 
26011 
26014 
26017 
26023 
26059 
26062 
26057 
26072 
26085 
26084 
26083 
26094 
26102 
26107 
26108 
26103 
26104 
26109 
26127 
26130 
26136 
26129 
26120 
26110 
26102 
26096 
26110 
26138 
26154 
26151 
26159 
26185 
26173 
26164 
26151 
26137 
26133 
26140 
26129 
26125 
26118 
26118 
26123 
26121 
26106 
26088 
26089 
26106 
26105 
26094 
26077 
26072 
26087 
26075 
26058 
26054 
26049 
26039 
26020 
26010 
25994 
25972 
25992 
25998 
25980 
25972 
25965 
25944 
25938 
25928 
25913 
25917 
25925 
25929 
25930 
25917 
25907 
25926 
25918 
25916 
25909 
25897 
25895 
25894 
25889 
25874 
25872 
25854 
25837 
25817 
25784 
25737 
25693 
25645 
25581 
25507 
25437 
25381 
25339 
25260 
25175 
25097 
25014 
24944 
24878 
24816 
24756 
24697 
24654 
24616 
24574 
24531 
24508 
24501 
24509 
24497 
24478 
24462 
24462 
24474 
24492 
24509 
24535 
24562 
24572 
24586 
24604 
24628 
24658 
24686 
24705 
24739 
24772 
24799 
24828 
24887 
24958 
24985 
25018 
25047 
25074 
25101 
25130 
25171 
25203 
25233 
25261 
25307 
25370 
25411 
25441 
25459 
25488 
25509 
25533 
25560 
25600 
25630 
25642 
25664 
25688 
25712 
25714 
25726 
25734 
25740 
25759 
25776 
25792 
25798 
25801 
25814 
25819 
25830 
25843 
25843 
25849 
25851 
25853 
25859 
25870 
25883 
25900 
25921 
25943 
25951 
25960 
25977 
25979 
25973 
25977 
25990 
26013 
26024 
26039 
26049 
26059 
26070 
26059 
26058 
26085 
26119 
26126 
26145 
26161 
26184 
26191 
26209 
26219 
26225 
26234 
26230 
26251 
26274 
26290 
26296 
26312 
26329 
26326 
26321 
26320 
26330 
26339 
26338 
26330 
26337 
26360 
26385 
26384 
26396 
26413 
26425 
26421 
26424 
26429 
26420 
26416 
26413 
26411 
26417 
26436 
26439 
26443 
26442 
26447 
26442 
26424 
26423 
26418 
26415 
26412 
26399 
26388 
26383 
26395 
26410 
26401 
26396 
26391 
26380 
26363 
26354 
26338 
26328 
26312 
26283 
26257 
26234 
26205 
26171 
26119 
26055 
26006 
25938 
25842 
25748 
25654 
25560 
25477 
25396 
25312 
25235 
25153 
25064 
24986 
24921 
24870 
24819 
24770 
24725 
24685 
24663 
24642 
24618 
24601 
24576 
24554 
24528 
24526 
24537 
24539 
24537 
24561 
24612 
24639 
24662 
24681 
24695 
24714 
24725 
24735 
24773 
24813 
24846 
24887 
24923 
24974 
25002 
25028 
25048 
25068 
25107 
25140 
25168 
25207 
25250 
25283 
25331 
25365 
25390 
25424 
25462 
25491 
25513 
25543 
25563 
25593 
25620 
25656 
25675 
25686 
25703 
25714 
25718 
25723 
25735 
25742 
25754 
25749 
25747 
25759 
25793 
25826 
25832 
25823 
25822 
25818 
25814 
25825 
25845 
25856 
25859 
25870 
25892 
25925 
25959 
25970 
25981 
25991 
25986 
25981 
25984 
25990 
25985 
25990 
25997 
26008 
26016 
26022 
26050 
26072 
26089 
26102 
26104 
26103 
26103 
26107 
26107 
26111 
26132 
26153 
26149 
26154 
26180 
26206 
26193 
26183 
26166 
26164 
26169 
26176 
26179 
26184 
26183 
26179 
26176 
26173 
26170 
26160 
26148 
26156 
26184 
26191 
26188 
26181 
26174 
26161 
26154 
26152 
26141 
26139 
26140 
26129 
26116 
26105 
26103 
26112 
26115 
26120 
26116 
26107 
26102 
26102 
26105 
26109 
26097 
26086 
26075 
26067 
26067 
26088 
26090 
26067 
26069 
26067 
26059 
26048 
26036 
26034 
26038 
26029 
26012 
26000 
26002 
26004 
25988 
25974 
25950 
25903 
25854 
25797 
25732 
25670 
25594 
25512 
25434 
25363 
25289 
25213 
25135 
25046 
24955 
24885 
24815 
24747 
24677 
24603 
24544 
24503 
24480 
24469 
24441 
24407 
24405 
24402 
24391 
24387 
24410 
24425 
24429 
24429 
24436 
24452 
24466 
24481 
24496 
24513 
24523 
24553 
24605 
24621 
24642 
24670 
24704 
24724 
24741 
24765 
24778 
24792 
24815 
24853 
24900 
24924 
24956 
24986 
25012 
25049 
25083 
25112 
25142 
25171 
25215 
25272 
25313 
25346 
25367 
25374 
25392 
25419 
25427 
25436 
25455 
25486 
25503 
25504 
25532 
25568 
25576 
25579 
25595 
25606 
25603 
25616 
25621 
25622 
25622 
25618 
25621 
25628 
25650 
25675 
25684 
25692 
25690 
25700 
25717 
25734 
25748 
25767 
25788 
25805 
25828 
25840 
25847 
25849 
25862 
25878 
25886 
25889 
25907 
25920 
25925 
25931 
25939 
25949 
25974 
25993 
25999 
26017 
26038 
26046 
26049 
26055 
26062 
26062 
26059 
26059 
26084 
26092 
26083 
26073 
26067 
26053 
26047 
26038 
26029 
26029 
26022 
26014 
26008 
25989 
25976 
25968 
25966 
26000 
25995 
25987 
25980 
25964 
25949 
25940 
25930 
25923 
25924 
25922 
25912 
25900 
25886 
25899 
25906 
25903 
25901 
25907 
25904 
25893 
25884 
25866 
25866 
25873 
25879 
25875 
25865 
25858 
25860 
25873 
25879 
25874 
25875 
25867 
25855 
25845 
25846 
25840 
25831 
25823 
25828 
25829 
25836 
25850 
25865 
25868 
25863 
25846 
25832 
25812 
25804 
25793 
25777 
25742 
25691 
25637 
25577 
25516 
25456 
25382 
25306 
25224 
25140 
25053 
24972 
24890 
24809 
24732 
24656 
24592 
24555 
24549 
24515 
24486 
24451 
24431 
24405 
24385 
24369 
24352 
24334 
24325 
24332 
24343 
24358 
24376 
24414 
24461 
24481 
24503 
24519 
24539 
24566 
24580 
24603 
24625 
24638 
24659 
24693 
24731 
24759 
24790 
24814 
24851 
24895 
24923 
24959 
24987 
24997 
25017 
25054 
25114 
25155 
25200 
25245 
25288 
25328 
25364 
25403 
25434 
25462 
25529 
25571 
25585 
25597 
25605 
25622 
25639 
25659 
25674 
25684 
25702 
25722 
25741 
25771 
25782 
25789 
25803 
25821 
25814 
25808 
25814 
25834 
25862 
25876 
25888 
25895 
25917 
25947 
25955 
25960 
25984 
26003 
26024 
26033 
26037 
26054 
26075 
26097 
26130 
26159 
26158 
26156 
26174 
26192 
26193 
26209 
26220 
26226 
26237 
26249 
26266 
26288 
26318 
26329 
26335 
26348 
26360 
26357 
26348 
26352 
26363 
26365 
26379 
26389 
26391 
26390 
26405 
26409 
26416 
26415 
26392 
26399 
26407 
26415 
26417 
26424 
26438 
26434 
26421 
26405 
26411 
26425 
26422 
26415 
26417 
26416 
26421 
26405 
26388 
26378 
26357 
26341 
26329 
26321 
26325 
26327 
26321 
26326 
26314 
26308 
26294 
26283 
26263 
26245 
26234 
26235 
26231 
26211 
26192 
26182 
26172 
26176 
26170 
26140 
26135 
26124 
26106 
26110 
26095 
26086 
26088 
26064 
26037 
26027 
26018 
26031 
26033 
26021 
26015 
26008 
25984 
25969 
25977 
25977 
25974 
25956 
25921 
25890 
25854 
25807 
25747 
25693 
25641 
25580 
25498 
25404 
25318 
25230 
25142 
25072 
25014 
24936 
24861 
24788 
24717 
24650 
24589 
24528 
24467 
24414 
24359 
24322 
24294 
24259 
24240 
24239 
24251 
24269 
24272 
24272 
24279 
24294 
24334 
24366 
24380 
24377 
24392 
24431 
24463 
24486 
24519 
24553 
24592 
24636 
24675 
24729 
24753 
24767 
24794 
24844 
24879 
24907 
24948 
24984 
25017 
25042 
25079 
25113 
25153 
25200 
25242 
25284 
25331 
25350 
25372 
25391 
25426 
25494 
25549 
25567 
25589 
25600 
25624 
25643 
25653 
25662 
25671 
25696 
25703 
25705 
25740 
25751 
25750 
25740 
25744 
25753 
25765 
25773 
25781 
25794 
25800 
25815 
25825 
25825 
25835 
25873 
25892 
25897 
25908 
25918 
25936 
25966 
25984 
25992 
26003 
26015 
26024 
26029 
26048 
26082 
26083 
26086 
26082 
26095 
26115 
26118 
26116 
26121 
26129 
26132 
26136 
26153 
26181 
26190 
26197 
26210 
26214 
26209 
26201 
26189 
26165 
26157 
26157 
26172 
26176 
26169 
26191 
26202 
26188 
26162 
26134 
26116 
26108 
26101 
26096 
26092 
26092 
26089 
26088 
26095 
26084 
26064 
26064 
26078 
26067 
26060 
26055 
26043 
26039 
26046 
26042 
26032 
26020 
26019 
26010 
26001 
25995 
25991 
26005 
26023 
26022 
26035 
26030 
26014 
26013 
26009 
25998 
25999 
25994 
25981 
25981 
25984 
25977 
25968 
25986 
25992 
26001 
25990 
25979 
25959 
25960 
25955 
25936 
25917 
25897 
25870 
25843 
25786 
25726 
25670 
25613 
25549 
25487 
25421 
25325 
25227 
25154 
25076 
24991 
24926 
24867 
24797 
24725 
24661 
24598 
24538 
24506 
24497 
24482 
24457 
24450 
24449 
24443 
24438 
24447 
24451 
24460 
24472 
24496 
24524 
24574 
24615 
24632 
24656 
24675 
24698 
24734 
24747 
24768 
24793 
24820 
24863 
24914 
24938 
24968 
25007 
25042 
25086 
25129 
25165 
25187 
25223 
25270 
25327 
25386 
25429 
25461 
25500 
25533 
25565 
25592 
25609 
25628 
25661 
25684 
25675 
25700 
25746 
25756 
25758 
25753 
25761 
25754 
25747 
25758 
25767 
25767 
25780 
25795 
25825 
25846 
25843 
25849 
25860 
25862 
25847 
25837 
25845 
25855 
25845 
25840 
25851 
25877 
25918 
25958 
25958 
25957 
25969 
25985 
26001 
26009 
26021 
26038 
26068 
26088 
26110 
26139 
26174 
26180 
26179 
26190 
26210 
26222 
26231 
26236 
26233 
26244 
26270 
26289 
26288 
26302 
26312 
26317 
26311 
26318 
26331 
26345 
26365 
26382 
26385 
26377 
26375 
26385 
26396 
26407 
26404 
26386 
26383 
26381 
26365 
26372 
26381 
26376 
26370 
26371 
26370 
26371 
26389 
26382 
26385 
26398 
26394 
26391 
26387 
26380 
26364 
26346 
26335 
26324 
26318 
26312 
26292 
26290 
26308 
26303 
26296 
26296 
26287 
26267 
26261 
26243 
26229 
26230 
26227 
26221 
26227 
26243 
26250 
26240 
26219 
26200 
26195 
26193 
26186 
26179 
26157 
26128 
26105 
26084 
26054 
26026 
25975 
25908 
25855 
25812 
25740 
25661 
25575 
25504 
25427 
25339 
25246 
25151 
25054 
24961 
24873 
24789 
24722 
24655 
24587 
24533 
24493 
24454 
24425 
24399 
24386 
24382 
24368 
24347 
24325 
24323 
24342 
24363 
24406 
24448 
24481 
24511 
24518 
24528 
24542 
24557 
24574 
24596 
24609 
24624 
24677 
24738 
24775 
24796 
24816 
24833 
24859 
24872 
24901 
24932 
24966 
24993 
25034 
25092 
25134 
25169 
25201 
25244 
25278 
25326 
25379 
25404 
25421 
25454 
25514 
25557 
25592 
25609 
25624 
25631 
25650 
25671 
25690 
25709 
25729 
25757 
25775 
25785 
25799 
25798 
25791 
25802 
25818 
25845 
25876 
25897 
25927 
25932 
25931 
25950 
25969 
25990 
26016 
26032 
26052 
26063 
26058 
26067 
26093 
26127 
26141 
26149 
26150 
26166 
26174 
26171 
26190 
26201 
26206 
26224 
26236 
26243 
26265 
26291 
26300 
26299 
26299 
26319 
26341 
26360 
26372 
26374 
26384 
26398 
26418 
26443 
26478 
26494 
26508 
26509 
26502 
26508 
26525 
26543 
26551 
26558 
26553 
26550 
26538 
26557 
26583 
26586 
26598 
26593 
26585 
26577 
26568 
26563 
26565 
26573 
26584 
26594 
26599 
26602 
26585 
26570 
26563 
26566 
26569 
26570 
26564 
26544 
26527 
26525 
26528 
26517 
26500 
26481 
26469 
26474 
26483 
26477 
26485 
26476 
26458 
26449 
26437 
26432 
26440 
26426 
26411 
26400 
26396 
26393 
26387 
26371 
26382 
26375 
26361 
26335 
26309 
26296 
26267 
26239 
26239 
26245 
26225 
26192 
26160 
26124 
26084 
26037 
25964 
25881 
25808 
25735 
25652 
25548 
25443 
25340 
25241 
25143 
25063 
24979 
24875 
24806 
24746 
24672 
24604 
24532 
24467 
24414 
24368 
24327 
24300 
24287 
24274 
24272 
24269 
24257 
24256 
24266 
24286 
24303 
24315 
24368 
24410 
24438 
24476 
24507 
24527 
24547 
24572 
24600 
24635 
24659 
24674 
24708 
24754 
24791 
24814 
24841 
24863 
24893 
24926 
24948 
24974 
25005 
25042 
25100 
25148 
25181 
25221 
25254 
25275 
25301 
25328 
25344 
25364 
25399 
25462 
25505 
25520 
25533 
25542 
25550 
25561 
25575 
25583 
25586 
25606 
25637 
25652 
25658 
25686 
25688 
25684 
25677 
25670 
25689 
25712 
25714 
25737 
25754 
25750 
25751 
25784 
25809 
25828 
25854 
25863 
25868 
25884 
25898 
25904 
25918 
25918 
25923 
25947 
25970 
26012 
26033 
26050 
26076 
26094 
26115 
26140 
26170 
26201 
26208 
26206 
26216 
26224 
26230 
26246 
26255 
26259 
26277 
26297 
26301 
26317 
26326 
26333 
26358 
26371 
26356 
26348 
26346 
26365 
26375 
26361 
26352 
26350 
26360 
26364 
26370 
26366 
26368 
26387 
26400 
26401 
26397 
26395 
26378 
26361 
26361 
26359 
26347 
26339 
26335 
26331 
26328 
26325 
26334 
26318 
26301 
26300 
26297 
26295 
26289 
26278 
26269 
26256 
26253 
26258 
26261 
26252 
26274 
26283 
26269 
26263 
26256 
26253 
26244 
26225 
26217 
26218 
26213 
26222 
26214 
26192 
26180 
26200 
26204 
26204 
26206 
26205 
26198 
26189 
26184 
26186 
26180 
26193 
26198 
26174 
26151 
26144 
26122 
26115 
26098 
26068 
26043 
26021 
25984 
25945 
25888 
25814 
25744 
25673 
25602 
25523 
25429 
25334 
25239 
25154 
25081 
24997 
24923 
24860 
24798 
24740 
24678 
24624 
24586 
24555 
24525 
24500 
24480 
24474 
24485 
24474 
24461 
24465 
24478 
24500 
24537 
24571 
24585 
24595 
24623 
24654 
24688 
24741 
24790 
24822 
24856 
24892 
24910 
24929 
24948 
24971 
24994 
25033 
25085 
25106 
25133 
25148 
25162 
25187 
25225 
25258 
25280 
25295 
25310 
25343 
25383 
25420 
25437 
25464 
25494 
25504 
25512 
25525 
25535 
25557 
25570 
25559 
25568 
25599 
25636 
25642 
25644 
25641 
25631 
25641 
25669 
25678 
25695 
25715 
25715 
25716 
25720 
25736 
25778 
25779 
25772 
25787 
25806 
25803 
25801 
25801 
25798 
25801 
25805 
25804 
25805 
25831 
25872 
25876 
25884 
25890 
25906 
25925 
25939 
25948 
25959 
25975 
25986 
26004 
26027 
26063 
26061 
26048 
26053 
26062 
26061 
26050 
26040 
26038 
26048 
26069 
26090 
26103 
26097 
26090 
26108 
26112 
26110 
26104 
26105 
26107 
26107 
26106 
26101 
26097 
26101 
26105 
26103 
26096 
26106 
26120 
26107 
26099 
26093 
26091 
26079 
26074 
26069 
26072 
26072 
26057 
26051 
26042 
26027 
26016 
26010 
26030 
26055 
26061 
26057 
26037 
26024 
26009 
26001 
25993 
25986 
25974 
25976 
25979 
26001 
26010 
26002 
26005 
25998 
25986 
25979 
25970 
25967 
25976 
25982 
25975 
25969 
25957 
25948 
25932 
25931 
25932 
25907 
25884 
25856 
25827 
25788 
25734 
25665 
25606 
25530 
25448 
25369 
25292 
25212 
25126 
25048 
24974 
24912 
24846 
24790 
24741 
24691 
24644 
24592 
24558 
24535 
24512 
24494 
24482 
24488 
24531 
24538 
24532 
24526 
24541 
24554 
24566 
24583 
24623 
24657 
24682 
24702 
24732 
24793 
24837 
24871 
24907 
24931 
24950 
24979 
25008 
25038 
25067 
25097 
25132 
25190 
25234 
25276 
25322 
25353 
25375 
25409 
25434 
25463 
25494 
25526 
25566 
25601 
25622 
25638 
25643 
25655 
25674 
25683 
25682 
25685 
25692 
25697 
25718 
25741 
25751 
25745 
25755 
25770 
25784 
25787 
25789 
25783 
25786 
25800 
25811 
25822 
25846 
25886 
25895 
25908 
25912 
25920 
25922 
25944 
25962 
25960 
25960 
25975 
25987 
25981 
25993 
26042 
26072 
26080 
26083 
26095 
26110 
26126 
26135 
26137 
26132 
26132 
26123 
26121 
26134 
26146 
26162 
26189 
26195 
26206 
26216 
26223 
26228 
26220 
26197 
26173 
26173 
26167 
26155 
26143 
26138 
26141 
26159 
26157 
26163 
26165 
26147 
26132 
26123 
26119 
26125 
26138 
26137 
26133 
26127 
26135 
26153 
26142 
26134 
26137 
26146 
26148 
26135 
26117 
26109 
26110 
26111 
26108 
26100 
26089 
26077 
26094 
26112 
26108 
26097 
26080 
26069 
26078 
26089 
26094 
26092 
26084 
26071 
26066 
26058 
26058 
26063 
26079 
26072 
26069 
26066 
26055 
26053 
26050 
26035 
26026 
26005 
25977 
25960 
25935 
25883 
25818 
25751 
25681 
25600 
25516 
25427 
25342 
25258 
25161 
25061 
24970 
24882 
24813 
24747 
24650 
24563 
24487 
24413 
24341 
24280 
24243 
24208 
24207 
24204 
24184 
24186 
24198 
24212 
24234 
24243 
24262 
24301 
24329 
24359 
24394 
24446 
24478 
24506 
24543 
24579 
24616 
24638 
24661 
24700 
24734 
24780 
24828 
24861 
24895 
24940 
24974 
24999 
25021 
25045 
25073 
25110 
25166 
25247 
25300 
25331 
25358 
25391 
25423 
25441 
25456 
25473 
25501 
25544 
25565 
25598 
25645 
25663 
25677 
25693 
25719 
25735 
25747 
25751 
25749 
25747 
25749 
25756 
25763 
25787 
25794 
25802 
25816 
25826 
25843 
25871 
25877 
25875 
25876 
25888 
25917 
25926 
25935 
25956 
25981 
25993 
25997 
26013 
26017 
26012 
26032 
26045 
26046 
26058 
26101 
26131 
26142 
26173 
26204 
26210 
26213 
26221 
26237 
26252 
26274 
26292 
26303 
26338 
26379 
26393 
26398 
26397 
26417 
26428 
26425 
26427 
26419 
26415 
26420 
26432 
26453 
26476 
26480 
26478 
26469 
26464 
26455 
26455 
26455 
26455 
26445 
26430 
26424 
26427 
26427 
26420 
26412 
26410 
26391 
26381 
26380 
26373 
26358 
26349 
26343 
26335 
26323 
26313 
26313 
26297 
26291 
26298 
26282 
26271 
26255 
26250 
26248 
26238 
26222 
26217 
26218 
26205 
26188 
26170 
26155 
26138 
26120 
26107 
26115 
26118 
26104 
26100 
26094 
26086 
26081 
26083 
26066 
26039 
26015 
25992 
25974 
25952 
25947 
25956 
25923 
25893 
25861 
25830 
25805 
25769 
25729 
25681 
25608 
25525 
25452 
25371 
25286 
25215 
25147 
25060 
24970 
24900 
24832 
24754 
24675 
24601 
24552 
24526 
24498 
24465 
24430 
24397 
24385 
24370 
24383 
24393 
24387 
24392 
24387 
24379 
24384 
24394 
24410 
24443 
24481 
24499 
24508 
24536 
24593 
24638 
24662 
24680 
24698 
24727 
24777 
24827 
24872 
24897 
24926 
25003 
25043 
25057 
25082 
25117 
25134 
25147 
25168 
25210 
25252 
25297 
25369 
25424 
25460 
25489 
25499 
25511 
25529 
25553 
25589 
25614 
25634 
25661 
25709 
25738 
25750 
25760 
25777 
25786 
25796 
25815 
25830 
25844 
25865 
25874 
25905 
25939 
25942 
25938 
25944 
25962 
25979 
25989 
25993 
26003 
26016 
26031 
26035 
26050 
26089 
26105 
26111 
26117 
26115 
26109 
26111 
26112 
26110 
26113 
26111 
26112 
26116 
26115 
26106 
26096 
26091 
26069 
26049 
26046 
26054 
26043 
26009 
25972 
25959 
25934 
25906 
25898 
25887 
25857 
25836 
25794 
25744 
25714 
25713 
25696 
25667 
25645 
25614 
25587 
25558 
25526 
25488 
25463 
25448 
25414 
25389 
25380 
25369 
25367 
25348 
25331 
25322 
25316 
25309 
25292 
25287 
25286 
25287 
25293 
25289 
25296 
25301 
25316 
25341 
25337 
25347 
25370 
25365 
25365 
25369 
25382 
25409 
25406 
25418 
25430 
25447 
25480 
25531 
25548 
25569 
25591 
25609 
25624 
25631 
25641 
25656 
25659 
25672 
25685 
25700 
25724 
25769 
25790 
25808 
25819 
25821 
25834 
25861 
25878 
25882 
25888 
25900 
25912 
25941 
25951 
25962 
25980 
25994 
26014 
26024 
26033 
26042 
26051 
26045 
26046 
26054 
26077 
26104 
26108 
26109 
26116 
26133 
26150 
26164 
26174 
26176 
26186 
26194 
26206 
26247 
26264 
26265 
26253 
26233 
26227 
26227 
26232 
26237 
26266 
26288 
26289 
26296 
26304 
26308 
26316 
26310 
26294 
26301 
26317 
26327 
26323 
26338 
26340 
26342 
26351 
26350 
26332 
26328 
26328 
26347 
26363 
26350 
26356 
26360 
26353 
26358 
26365 
26373 
26372 
26359 
26345 
26339 
26336 
26329 
26335 
26371 
26389 
26386 
26382 
26375 
26384 
26375 
26359 
26338 
26329 
26334 
26329 
26311 
26315 
26365 
26371 
26382 
26392 
26392 
26386 
26371 
26361 
26364 
26364 
26359 
26338 
26317 
26318 
26317 
26326 
26328 
26319 
26308 
26292 
26301 
26307 
26311 
26304 
26289 
26282 
26268 
26246 
26222 
26218 
26216 
26239 
26251 
26244 
26238 
26226 
26221 
26202 
26186 
26186 
26175 
26166 
26165 
26176 
26174 
26165 
26184 
26171 
26156 
26147 
26135 
26119 
26107 
26105 
26108 
26090 
26064 
26055 
26057 
26055 
26050 
26056 
26073 
26067 
26044 
26035 
26040 
26023 
25996 
25975 
25981 
25977 
25966 
25961 
25962 
25971 
25961 
25941 
25956 
25971 
25963 
25950 
25939 
25945 
25935 
25920 
25910 
25899 
25902 
25902 
25891 
25883 
25878 
25875 
25902 
25918 
25904 
25904 
25896 
25881 
25869 
25860 
25850 
25859 
25860 
25851 
25843 
25835 
25833 
25824 
25817 
25837 
25826 
25817 
25820 
25816 
25812 
25811 
25818 
25820 
25829 
25826 
25810 
25799 
25810 
25822 
25808 
25802 
25801 
25792 
25774 
25770 
25757 
25752 
25757 
25758 
25753 
25750 
25766 
25769 
25764 
25763 
25750 
25741 
25736 
25736 
25738 
25739 
25729 
25721 
25721 
25721 
25723 
25721 
25701 
25699 
25714 
25714 
25710 
25710 
25712 
25710 
25715 
25715 
25707 
25705 
25697 
25677 
25673 
25695 
25709 
25703 
25702 
25706 
25696 
25695 
25696 
25687 
25677 
25682 
25680 
25684 
25686 
25676 
25686 
25699 
25695 
25694 
25700 
25699 
25690 
25700 
25701 
25694 
25688 
25685 
25675 
25672 
25683 
25684 
25681 
25684 
25683 
25673 
25681 
25679 
25676 
25676 
25668 
25658 
25659 
25664 
25648 
25645 
25661 
25661 
25654 
25644 
25636 
25649 
25652 
25652 
25643 
25632 
25638 
25637 
25629 
25614 
25612 
25614 
25618 
25627 
25624 
25617 
25628 
25644 
25646 
25647 
25656 
25650 
25645 
25643 
25647 
25662 
25673 
25697 
25699 
25681 
25671 
25677 
25677 
25679 
25675 
25667 
25665 
25669 
25671 
25676 
25675 
25688 
25683 
25681 
25687 
25692 
25697 
25693 
25690 
25694 
25699 
25699 
25694 
25689 
25677 
25671 
25696 
25696 
25692 
25700 
25712 
25702 
25694 
25693 
25679 
25669 
25662 
25658 
25669 
25671 
25675 
25695 
25691 
25686 
25686 
25685 
25677 
25675 
25687 
25689 
25689 
25686 
25679 
25656 
25653 
25673 
25666 
25669 
25683 
25692 
25690 
25662 
25638 
25634 
25631 
25614 
25600 
25611 
25621 
25615 
25624 
25652 
25655 
25646 
25639 
25644 
25643 
25640 
25648 
25650 
25642 
25645 
25643 
25628 
25628 
25659 
25680 
25665 
25650 
25646 
25648 
25650 
25663 
25664 
25660 
25660 
25654 
25652 
25654 
25674 
25705 
25705 
25713 
25717 
25723 
25725 
25719 
25712 
25702 
25690 
25678 
25663 
25657 
25662 
25663 
25669 
25677 
25661 
25657 
25660 
25661 
25659 
25650 
25649 
25649 
25645 
25637 
25639 
25642 
25651 
25680 
25676 
25671 
25673 
25670 
25668 
25662 
25650 
25655 
25653 
25624 
25610 
25606 
25611 
25614 
25624 
25641 
25643 
25643 
25628 
25610 
25608 
25615 
25613 
25613 
25611 
25609 
25612 
25618 
25639 
25648 
25655 
25660 
25656 
25647 
25632 
25620 
25619 
25628 
25619 
25615 
25609 
25602 
25632 
25642 
25633 
25629 
25627 
25614 
25615 
25622 
25628 
25618 
25610 
25607 
25610 
25613 
25621 
25639 
25651 
25648 
25639 
25633 
25635 
25629 
25616 
25605 
25594 
25593 
25591 
25594 
25606 
25613 
25595 
25584 
25594 
25603 
25601 
25596 
25579 
25572 
25578 
25571 
25565 
25564 
25556 
25579 
25602 
25618 
25635 
25626 
25622 
25627 
25612 
25606 
25601 
25592 
25599 
25596 
25599 
25596 
25583 
25575 
25591 
25614 
25611 
25606 
25607 
25591 
25591 
25603 
25610 
25604 
25603 
25596 
25580 
25564 
25564 
25597 
25606 
25592 
25584 
25578 
25572 
25573 
25572 
25567 
25556 
25556 
25555 
25536 
25532 
25532 
25539 
25551 
25589 
25605 
25589 
25574 
25583 
25584 
25581 
25580 
25580 
25574 
25580 
25577 
25569 
25547 
25535 
25560 
25576 
25586 
25588 
25576 
25561 
25547 
25537 
25525 
25522 
25520 
25513 
25497 
25492 
25498 
25521 
25514 
25517 
25517 
25505 
25498 
25496 
25488 
25482 
25482 
25477 
25469 
25460 
25451 
25444 
25455 
25453 
25453 
25456 
25461 
25453 
25459 
25467 
25467 
25467 
25472 
25479 
25477 
25457 
25437 
25457 
25470 
25483 
25483 
25484 
25480 
25475 
25472 
25481 
25489 
25491 
25500 
25523 
25517 
25510 
25510 
25511 
25510 
25505 
25494 
25492 
25487 
25474 
25475 
25484 
25488 
25493 
25522 
25550 
25549 
25547 
25549 
25541 
25521 
25514 
25513 
25519 
25517 
25517 
25515 
25519 
25514 
25516 
25522 
25557 
25565 
25568 
25574 
25567 
25552 
25540 
25546 
25552 
25545 
25540 
25540 
25531 
25543 
25577 
25610 
25608 
25602 
25596 
25592 
25591 
25595 
25597 
25594 
25586 
25591 
25587 
25587 
25592 
25600 
25633 
25637 
25638 
25634 
25630 
25633 
25633 
25628 
25617 
25613 
25614 
25622 
25630 
25617 
25612 
25647 
25650 
25650 
25647 
25635 
25644 
25643 
25632 
25632 
25637 
25635 
25620 
25604 
25609 
25631 
25640 
25638 
25637 
25636 
25636 
25634 
25638 
25635 
25629 
25624 
25632 
25636 
25663 
25675 
25667 
25650 
25644 
25641 
25635 
25628 
25629 
25631 
25616 
25617 
25606 
25602 
25592 
25589 
25606 
25621 
25617 
25611 
25609 
25603 
25599 
25601 
25600 
25611 
25620 
25603 
25597 
25599 
25601 
25626 
25633 
25605 
25590 
25588 
25588 
25581 
25581 
25574 
25554 
25545 
25537 
25529 
25524 
25510 
25510 
25522 
25509 
25510 
25508 
25493 
25488 
25481 
25472 
25459 
25453 
25458 
25457 
25455 
25469 
25493 
25505 
25487 
25480 
25478 
25474 
25460 
25454 
25450 
25447 
25443 
25452 
25451 
25435 
25427 
25418 
25440 
25456 
25448 
25440 
25438 
25439 
25435 
25441 
25453 
25452 
25453 
25455 
25444 
25431 
25434 
25455 
25467 
25474 
25482 
25492 
25497 
25494 
25493 
25507 
25511 
25501 
25498 
25492 
25499 
25525 
25530 
25541 
25546 
25546 
25541 
25538 
25522 
25514 
25511 
25514 
25516 
25509 
25518 
25556 
25570 
25577 
25573 
25564 
25561 
25559 
25561 
25553 
25542 
25540 
25555 
25553 
25550 
25583 
25611 
25607 
25603 
25606 
25605 
25583 
25584 
25591 
25591 
25591 
25598 
25604 
25607 
25623 
25639 
25635 
25630 
25623 
25621 
25623 
25612 
25603 
25611 
25621 
25623 
25632 
25638 
25630 
25642 
25658 
25654 
25642 
25628 
25615 
25598 
25597 
25605 
25598 
25593 
25594 
25598 
25593 
25613 
25638 
25624 
25619 
25627 
25628 
25631 
25636 
25635 
25633 
25635 
25631 
25626 
25617 
25596 
25595 
25633 
25643 
25635 
25633 
25629 
25631 
25637 
25634 
25628 
25634 
25634 
25627 
25630 
25620 
25608 
25616 
25654 
25667 
25664 
25657 
25641 
25631 
25628 
25625 
25633 
25640 
25639 
25641 
25631 
25626 
25613 
25612 
25640 
25657 
25660 
25649 
25633 
25624 
25626 
25624 
25604 
25581 
25567 
25555 
25543 
25528 
25520 
25507 
25503 
25523 
25520 
25515 
25501 
25484 
25479 
25473 
25459 
25447 
25442 
25438 
25426 
25405 
25385 
25379 
25397 
25415 
25406 
25406 
25419 
25408 
25402 
25392 
25384 
25384 
25377 
25375 
25377 
25372 
25372 
25381 
25401 
25420 
25428 
25410 
25386 
25378 
25376 
25369 
25375 
25379 
25375 
25378 
25384 
25391 
25417 
25435 
25432 
25429 
25426 
25424 
25423 
25430 
25443 
25444 
25435 
25427 
25424 
25434 
25427 
25449 
25482 
25490 
25497 
25487 
25485 
25491 
25494 
25499 
25506 
25509 
25510 
25514 
25505 
25495 
25504 
25552 
25565 
25565 
25569 
25571 
25576 
25577 
25575 
25573 
25580 
25586 
25588 
25590 
25606 
25614 
25610 
25608 
25607 
25615 
25609 
25599 
25602 
25609 
25621 
25622 
25610 
25615 
25633 
25630 
25638 
25645 
25648 
25642 
25638 
25639 
25650 
25644 
25639 
25647 
25653 
25682 
25700 
25690 
25677 
25679 
25688 
25684 
25685 
25680 
25664 
25658 
25666 
25665 
25665 
25667 
25663 
25678 
25716 
25708 
25697 
25692 
25688 
25685 
25695 
25691 
25681 
25671 
25674 
25679 
25683 
25681 
25682 
25690 
25711 
25714 
25718 
25721 
25718 
25711 
25692 
25673 
25669 
25671 
25666 
25658 
25658 
25652 
25646 
25642 
25649 
25677 
25667 
25662 
25669 
25665 
25663 
25665 
25658 
25647 
25633 
25634 
25637 
25638 
25634 
25640 
25652 
25643 
25630 
25619 
25621 
25625 
25627 
25610 
25602 
25606 
25600 
25594 
25582 
25569 
25563 
25564 
25572 
25580 
25560 
25553 
25555 
25542 
25527 
25506 
25504 
25504 
25495 
25476 
25463 
25444 
25435 
25428 
25408 
25393 
25411 
25442 
25422 
25411 
25399 
25383 
25378 
25380 
25386 
25385 
25376 
25364 
25364 
25371 
25368 
25366 
25371 
25379 
25377 
25377 
25389 
25406 
25402 
25381 
25374 
25384 
25390 
25379 
25381 
25390 
25408 
25432 
25427 
25426 
25445 
25454 
25453 
25443 
25440 
25440 
25430 
25437 
25452 
25459 
25481 
25506 
25518 
25515 
25516 
25526 
25526 
25522 
25517 
25522 
25518 
25514 
25515 
25518 
25546 
25564 
25565 
25562 
25556 
25559 
25556 
25562 
25563 
25561 
25572 
25582 
25586 
25586 
25586 
25600 
25609 
25601 
25600 
25607 
25616 
25627 
25630 
25626 
25629 
25634 
25647 
25649 
25660 
25664 
25654 
25651 
25674 
25686 
25683 
25660 
25646 
25636 
25638 
25656 
25665 
25656 
25658 
25671 
25676 
25678 
25675 
25673 
25679 
25679 
25669 
25667 
25667 
25661 
25658 
25666 
25666 
25656 
25650 
25662 
25688 
25707 
25697 
25688 
25687 
25682 
25679 
25692 
25699 
25695 
25684 
25659 
25638 
25642 
25650 
25667 
25698 
25721 
25707 
25696 
25696 
25698 
25699 
25691 
25676 
25671 
25664 
25670 
25674 
25683 
25692 
25706 
25707 
25707 
25708 
25719 
25723 
25720 
25716 
25709 
25703 
25695 
25694 
25697 
25703 
25722 
25722 
25731 
25738 
25735 
25731 
25718 
25707 
25701 
25703 
25698 
25703 
25707 
25706 
25706 
25716 
25719 
25713 
25702 
25688 
25687 
25670 
25649 
25633 
25612 
25585 
25561 
25540 
25509 
25492 
25467 
25437 
25431 
25422 
25399 
25380 
25358 
25338 
25329 
25312 
25289 
25272 
25251 
25234 
25216 
25195 
25182 
25165 
25166 
25169 
25164 
25155 
25144 
25123 
25108 
25100 
25101 
25090 
25081 
25076 
25078 
25078 
25077 
25078 
25095 
25120 
25123 
25112 
25119 
25134 
25142 
25135 
25133 
25126 
25131 
25145 
25144 
25140 
25160 
25185 
25188 
25193 
25194 
25203 
25219 
25224 
25223 
25229 
25236 
25242 
25245 
25258 
25268 
25286 
25322 
25322 
25323 
25340 
25366 
25382 
25379 
25375 
25377 
25374 
25379 
25395 
25415 
25432 
25438 
25452 
25474 
25474 
25480 
25484 
25486 
25489 
25501 
25514 
25526 
25537 
25535 
25531 
25539 
25548 
25557 
25564 
25567 
25574 
25579 
25591 
25597 
25598 
25593 
25589 
25597 
25605 
25635 
25654 
25667 
25672 
25670 
25674 
25674 
25670 
25678 
25694 
25709 
25718 
25735 
25758 
25755 
25764 
25771 
25777 
25772 
25762 
25761 
25772 
25772 
25764 
25754 
25745 
25759 
25806 
25822 
25815 
25814 
25812 
25813 
25837 
25856 
25853 
25831 
25810 
25811 
25831 
25849 
25855 
25852 
25859 
25861 
25852 
25847 
25839 
25828 
25818 
25810 
25818 
25832 
25843 
25844 
25868 
25877 
25871 
25866 
25860 
25852 
25859 
25865 
25861 
25869 
25871 
25867 
25870 
25873 
25891 
25906 
25911 
25916 
25906 
25904 
25913 
25905 
25889 
25864 
25842 
25829 
25800 
25769 
25739 
25716 
25686 
25652 
25635 
25612 
25571 
25539 
25504 
25464 
25428 
25398 
25350 
25297 
25266 
25221 
25194 
25172 
25143 
25127 
25117 
25105 
25103 
25086 
25071 
25070 
25066 
25052 
25036 
25022 
25017 
25019 
25028 
25027 
25034 
25031 
25040 
25054 
25046 
25037 
25060 
25089 
25092 
25085 
25084 
25109 
25144 
25152 
25155 
25166 
25179 
25183 
25199 
25232 
25252 
25269 
25287 
25323 
25337 
25336 
25342 
25360 
25358 
25350 
25376 
25432 
25453 
25443 
25444 
25450 
25456 
25466 
25485 
25499 
25501 
25503 
25504 
25512 
25524 
25540 
25566 
25578 
25597 
25614 
25621 
25613 
25609 
25619 
25630 
25634 
25651 
25653 
25665 
25697 
25709 
25728 
25741 
25759 
25770 
25766 
25770 
25779 
25792 
25805 
25819 
25825 
25830 
25859 
25858 
25849 
25863 
25879 
25889 
25886 
25890 
25906 
25915 
25911 
25885 
25869 
25884 
25915 
25917 
25916 
25916 
25916 
25920 
25920 
25912 
25925 
25929 
25927 
25920 
25936 
25967 
25961 
25958 
25961 
25964 
25959 
25949 
25941 
25942 
25948 
25961 
25973 
25970 
25965 
25965 
25992 
25995 
25972 
25949 
25947 
25938 
25933 
25940 
25945 
25942 
25953 
25960 
25954 
25959 
25968 
25960 
25970 
26017 
26020 
26016 
26020 
26022 
26030 
26029 
26022 
26024 
26014 
26018 
26026 
26021 
26002 
25991 
25998 
26004 
26004 
25990 
25977 
25986 
25979 
25976 
25990 
25990 
25981 
25974 
25968 
25949 
25938 
25905 
25869 
25817 
25770 
25730 
25680 
25630 
25583 
25561 
25516 
25469 
25436 
25410 
25368 
25324 
25291 
25253 
25227 
25188 
25150 
25129 
25123 
25097 
25079 
25064 
25047 
25048 
25037 
25018 
25004 
24998 
24990 
24986 
24973 
24973 
24978 
24989 
25020 
25047 
25066 
25084 
25104 
25125 
25149 
25170 
25197 
25225 
25251 
25283 
25307 
25328 
25391 
25442 
25471 
25494 
25515 
25534 
25558 
25577 
25599 
25616 
25629 
25670 
25726 
25783 
25808 
25844 
25880 
25912 
25931 
25938 
25946 
25954 
25961 
25985 
26001 
26028 
26050 
26054 
26054 
26059 
26070 
26072 
26091 
26130 
26157 
26159 
26166 
26184 
26205 
26221 
26229 
26224 
26213 
26215 
26221 
26227 
26227 
26230 
26234 
26243 
26247 
26250 
26272 
26284 
26284 
26294 
26293 
26277 
26268 
26282 
26288 
26263 
26242 
26249 
26263 
26265 
26275 
26312 
26312 
26307 
26307 
26301 
26305 
26312 
26310 
26315 
26314 
26306 
26309 
26318 
26323 
26327 
26354 
26360 
26378 
26378 
26368 
26366 
26367 
26360 
26337 
26316 
26315 
26323 
26340 
26342 
26358 
26362 
26357 
26347 
26337 
26315 
26290 
26285 
26296 
26302 
26302 
26293 
26276 
26285 
26282 
26283 
26307 
26291 
26266 
26278 
26282 
26273 
26274 
26268 
26255 
26252 
26239 
26235 
26240 
26241 
26236 
26232 
26227 
26219 
26207 
26201 
26193 
26181 
26162 
26157 
26175 
26174 
26143 
26127 
26144 
26174 
26170 
26153 
26135 
26122 
26118 
26111 
26095 
26087 
26074 
26060 
26033 
26032 
26041 
26027 
26012 
25986 
25968 
25964 
25923 
25877 
25824 
25758 
25698 
25638 
25580 
25520 
25469 
25415 
25364 
25299 
25250 
25206 
25147 
25086 
25045 
25006 
24981 
24965 
24936 
24906 
24878 
24843 
24825 
24825 
24842 
24850 
24838 
24840 
24853 
24866 
24865 
24860 
24862 
24884 
24901 
24923 
24947 
24960 
24987 
25046 
25094 
25146 
25190 
25225 
25257 
25292 
25328 
25348 
25381 
25413 
25443 
25489 
25536 
25573 
25603 
25637 
25676 
25696 
25719 
25752 
25806 
25831 
25852 
25889 
25923 
25951 
25979 
26006 
26014 
26007 
26026 
26061 
26093 
26119 
26142 
26175 
26219 
26236 
26235 
26218 
26200 
26196 
26205 
26209 
26240 
26258 
26262 
26281 
26295 
26284 
26285 
26285 
26291 
26289 
26288 
26296 
26313 
26319 
26338 
26370 
26374 
26386 
26404 
26416 
26424 
26414 
26404 
26417 
26413 
26415 
26430 
26432 
26432 
26459 
26479 
26478 
26467 
26453 
26456 
26456 
26453 
26446 
26442 
26447 
26455 
26464 
26468 
26483 
26490 
26474 
26467 
26470 
26458 
26449 
26437 
26422 
26426 
26429 
26434 
26431 
26423 
26406 
26396 
26383 
26372 
26363 
26378 
26372 
26354 
26348 
26336 
26329 
26328 
26322 
26306 
26302 
26306 
26298 
26275 
26276 
26268 
26265 
26257 
26261 
26262 
26263 
26260 
26243 
26222 
26206 
26200 
26193 
26194 
26201 
26194 
26183 
26179 
26162 
26150 
26129 
26124 
26143 
26151 
26156 
26134 
26127 
26132 
26137 
26136 
26133 
26114 
26111 
26113 
26111 
26110 
26107 
26120 
26108 
26102 
26104 
26098 
26080 
26061 
26056 
26070 
26086 
26087 
26082 
26074 
26087 
26081 
26066 
26031 
25994 
25948 
25896 
25849 
25780 
25703 
25620 
25553 
25503 
25443 
25376 
25303 
25229 
25159 
25092 
25034 
24976 
24918 
24870 
24826 
24785 
24763 
24769 
24759 
24773 
24790 
24772 
24757 
24761 
24765 
24750 
24757 
24777 
24766 
24773 
24795 
24800 
24825 
24846 
24888 
24943 
24968 
24990 
25030 
25061 
25091 
25127 
25160 
25192 
25239 
25285 
25343 
25406 
25458 
25505 
25549 
25583 
25616 
25640 
25679 
25735 
25770 
25837 
25882 
25907 
25940 
25961 
25970 
25998 
26030 
26056 
26062 
26052 
26057 
26068 
26094 
26137 
26148 
26142 
26149 
26154 
26166 
26183 
26191 
26189 
26196 
26209 
26226 
26235 
26265 
26277 
26274 
26278 
26268 
26265 
26261 
26269 
26291 
26297 
26300 
26322 
26334 
26355 
26383 
26383 
26382 
26395 
26394 
26390 
26406 
26419 
26417 
26416 
26421 
26417 
26412 
26429 
26459 
26452 
26450 
26450 
26449 
26451 
26467 
26466 
26469 
26457 
26448 
26449 
26446 
26436 
26441 
26442 
26455 
26463 
26462 
26443 
26433 
26437 
26432 
26435 
26440 
26453 
26464 
26477 
26471 
26464 
26482 
26493 
26472 
26452 
26439 
26424 
26411 
26410 
26402 
26404 
26400 
26387 
26368 
26356 
26367 
26378 
26369 
26357 
26345 
26340 
26331 
26330 
26340 
26335 
26325 
26308 
26289 
26281 
26284 
26284 
26303 
26307 
26284 
26268 
26249 
26226 
26209 
26194 
26200 
26206 
26199 
26183 
26168 
26160 
26155 
26159 
26181 
26173 
26164 
26169 
26163 
26153 
26134 
26129 
26127 
26116 
26095 
26105 
26129 
26135 
26122 
26106 
26078 
26060 
26043 
26044 
26037 
26007 
25970 
25920 
25855 
25788 
25714 
25632 
25542 
25455 
25366 
25293 
25212 
25124 
25027 
24951 
24892 
24835 
24762 
24690 
24653 
24612 
24569 
24534 
24539 
24519 
24485 
24447 
24435 
24417 
24420 
24441 
24456 
24474 
24487 
24499 
24512 
24537 
24586 
24627 
24664 
24706 
24724 
24737 
24772 
24807 
24853 
24919 
24991 
25046 
25077 
25125 
25196 
25241 
25280 
25331 
25397 
25452 
25516 
25579 
25617 
25651 
25688 
25717 
25762 
25808 
25836 
25853 
25882 
25945 
25986 
25995 
26027 
26052 
26064 
26070 
26083 
26095 
26110 
26107 
26119 
26130 
26157 
26185 
26201 
26214 
26218 
26221 
26233 
26245 
26236 
26238 
26238 
26223 
26221 
26241 
26259 
26293 
26299 
26309 
26320 
26335 
26332 
26320 
26312 
26310 
26325 
26337 
26344 
26357 
26403 
26417 
26415 
26417 
26412 
26419 
26435 
26441 
26457 
26467 
26463 
26465 
26467 
26473 
26488 
26485 
26486 
26499 
26499 
26492 
26493 
26481 
26470 
26474 
26480 
26480 
26471 
26458 
26469 
26483 
26508 
26499 
26488 
26489 
26493 
26471 
26458 
26458 
26464 
26455 
26436 
26415 
26399 
26399 
26392 
26368 
26366 
26406 
26420 
26423 
26418 
26407 
26398 
26386 
26381 
26362 
26350 
26339 
26333 
26323 
26324 
26317 
26312 
26329 
26315 
26298 
26286 
26278 
26275 
26271 
26255 
26236 
26234 
26222 
26206 
26187 
26183 
26184 
26202 
26235 
26232 
26214 
26205 
26204 
26200 
26201 
26201 
26184 
26161 
26142 
26139 
26147 
26146 
26135 
26155 
26159 
26158 
26152 
26138 
26153 
26168 
26159 
26152 
26131 
26129 
26106 
26080 
26051 
26006 
25963 
25942 
25887 
25805 
25722 
25629 
25523 
25425 
25326 
25238 
25157 
25087 
25000 
24920 
24848 
24789 
24735 
24678 
24616 
24559 
24513 
24475 
24429 
24393 
24362 
24352 
24348 
24340 
24344 
24355 
24359 
24363 
24382 
24429 
24458 
24481 
24533 
24579 
24600 
24615 
24637 
24674 
24725 
24771 
24847 
24933 
24968 
24998 
25043 
25111 
25176 
25225 
25279 
25330 
25387 
25415 
25456 
25512 
25569 
25601 
25643 
25694 
25741 
25778 
25812 
25830 
25860 
25885 
25908 
25925 
25937 
25945 
25960 
25975 
25978 
25967 
25983 
26028 
26060 
26085 
26090 
26086 
26077 
26082 
26083 
26094 
26108 
26122 
26110 
26112 
26130 
26176 
26170 
26176 
26187 
26194 
26211 
26229 
26226 
26215 
26230 
26248 
26259 
26285 
26328 
26335 
26335 
26338 
26355 
26368 
26364 
26354 
26374 
26383 
26391 
26413 
26456 
26459 
26467 
26473 
26480 
26499 
26523 
26521 
26519 
26536 
26541 
26537 
26519 
26513 
26544 
26562 
26555 
26567 
26582 
26574 
26564 
26551 
26540 
26538 
26548 
26560 
26556 
26558 
26574 
26551 
26559 
26565 
26573 
26589 
26577 
26561 
26555 
26545 
26538 
26540 
26550 
26553 
26542 
26545 
26550 
26539 
26517 
26493 
26479 
26476 
26476 
26464 
26460 
26461 
26442 
26430 
26435 
26447 
26468 
26456 
26443 
26425 
26409 
26391 
26377 
26372 
26360 
26364 
26360 
26347 
26335 
26326 
26303 
26279 
26280 
26310 
26315 
26308 
26290 
26290 
26294 
26280 
26264 
26265 
26261 
26248 
26247 
26243 
26240 
26257 
26262 
26248 
26223 
26196 
26192 
26167 
26139 
26098 
26038 
25974 
25888 
25800 
25717 
25628 
25527 
25431 
25332 
25226 
25127 
25025 
24933 
24849 
24765 
24689 
24616 
24536 
24470 
24412 
24360 
24310 
24294 
24288 
24277 
24250 
24227 
24228 
24258 
24264 
24264 
24283 
24317 
24371 
24406 
24420 
24447 
24475 
24507 
24542 
24577 
24624 
24657 
24676 
24711 
24761 
24810 
24874 
24928 
24985 
25052 
25131 
25215 
25258 
25304 
25352 
25394 
25440 
25478 
25509 
25547 
25592 
25629 
25692 
25733 
25758 
25769 
25788 
25822 
25844 
25863 
25879 
25900 
25911 
25914 
25943 
25963 
25985 
25996 
26014 
26029 
26027 
26023 
26024 
26031 
26034 
26033 
26057 
26081 
26094 
26100 
26111 
26123 
26149 
26158 
26159 
26173 
26178 
26185 
26188 
26212 
26249 
26266 
26291 
26301 
26305 
26303 
26317 
26329 
26328 
26319 
26323 
26346 
26349 
26354 
26381 
26396 
26413 
26416 
26429 
26445 
26438 
26429 
26424 
26431 
26440 
26448 
26446 
26447 
26471 
26498 
26492 
26500 
26505 
26484 
26485 
26494 
26499 
26505 
26510 
26506 
26495 
26483 
26479 
26474 
26473 
26492 
26512 
26524 
26517 
26506 
26482 
26485 
26481 
26484 
26486 
26487 
26489 
26470 
26456 
26447 
26456 
26442 
26441 
26443 
26439 
26440 
26440 
26434 
26421 
26408 
26399 
26393 
26386 
26369 
26353 
26350 
26378 
26375 
26366 
26364 
26365 
26352 
26356 
26356 
26353 
26344 
26341 
26335 
26325 
26325 
26342 
26344 
26318 
26305 
26296 
26293 
26295 
26300 
26315 
26325 
26327 
26310 
26290 
26274 
26256 
26248 
26231 
26201 
26158 
26106 
26059 
25996 
25904 
25798 
25699 
25593 
25486 
25386 
25295 
25202 
25082 
24989 
24900 
24799 
24700 
24603 
24529 
24477 
24440 
24399 
24362 
24341 
24315 
24290 
24290 
24301 
24309 
24337 
24395 
24432 
24428 
24452 
24487 
24508 
24535 
24568 
24582 
24595 
24633 
24662 
24708 
24778 
24854 
24890 
24921 
24963 
24991 
25035 
25099 
25155 
25194 
25259 
25324 
25379 
25424 
25470 
25525 
25564 
25599 
25624 
25667 
25736 
25777 
25813 
25832 
25858 
25873 
25882 
25885 
25904 
25935 
25950 
25965 
26010 
26031 
26022 
26031 
26043 
26047 
26048 
26050 
26075 
26081 
26087 
26095 
26122 
26163 
26176 
26187 
26204 
26197 
26201 
26206 
26229 
26243 
26259 
26270 
26282 
26291 
26330 
26356 
26363 
26370 
26397 
26411 
26415 
26429 
26451 
26468 
26481 
26500 
26516 
26531 
26546 
26536 
26549 
26566 
26580 
26591 
26602 
26621 
26638 
26641 
26625 
26619 
26629 
26671 
26687 
26694 
26688 
26695 
26709 
26702 
26697 
26694 
26685 
26685 
26687 
26683 
26675 
26680 
26714 
26718 
26707 
26707 
26713 
26727 
26719 
26710 
26697 
26683 
26676 
26670 
26652 
26653 
26646 
26636 
26659 
26670 
26657 
26635 
26617 
26615 
26604 
26597 
26594 
26579 
26583 
26573 
26561 
26552 
26535 
26533 
26550 
26558 
26551 
26549 
26534 
26530 
26529 
26536 
26535 
26520 
26511 
26503 
26471 
26447 
26431 
26445 
26455 
26446 
26446 
26440 
26431 
26420 
26407 
26393 
26388 
26389 
26381 
26379 
26378 
26371 
26364 
26382 
26372 
26364 
26353 
26347 
26330 
26299 
26255 
26199 
26158 
26108 
26038 
25956 
25862 
25759 
25649 
25541 
25446 
25337 
25225 
25120 
25002 
24900 
24818 
24718 
24628 
24550 
24474 
24394 
24340 
24282 
24245 
24240 
24237 
24239 
24238 
24251 
24288 
24314 
24328 
24347 
24372 
24403 
24432 
24466 
24504 
24543 
24571 
24623 
24679 
24715 
24755 
24800 
24850 
24881 
24918 
24971 
25028 
25078 
25159 
25211 
25243 
25299 
25348 
25402 
25465 
25510 
25549 
25602 
25663 
25721 
25755 
25799 
25838 
25864 
25891 
25915 
25943 
25963 
25977 
25990 
26009 
26059 
26097 
26101 
26117 
26130 
26129 
26133 
26143 
26147 
26156 
26169 
26160 
26183 
26204 
26208 
26211 
26213 
26208 
26190 
26187 
26211 
26228 
26239 
26237 
26239 
26246 
26258 
26303 
26323 
26317 
26322 
26329 
26356 
26389 
26395 
26390 
26406 
26425 
26452 
26465 
26466 
26489 
26509 
26524 
26528 
26525 
26533 
26552 
26563 
26575 
26575 
26571 
26576 
26616 
26658 
26655 
26651 
26655 
26646 
26645 
26651 
26656 
26661 
26651 
26643 
26626 
26624 
26610 
26603 
26631 
26624 
26622 
26628 
26643 
26651 
26643 
26629 
26613 
26597 
26596 
26597 
26592 
26593 
26611 
26643 
26630 
26619 
26608 
26598 
26597 
26600 
26599 
26582 
26561 
26545 
26532 
26533 
26529 
26529 
26558 
26560 
26551 
26527 
26507 
26491 
26476 
26476 
26489 
26485 
26467 
26460 
26443 
26429 
26423 
26439 
26450 
26439 
26427 
26426 
26434 
26422 
26403 
26404 
26391 
26382 
26368 
26366 
26369 
26367 
26368 
26396 
26384 
26350 
26309 
26265 
26221 
26165 
26101 
26027 
25953 
25871 
25768 
25675 
25574 
25438 
25326 
25228 
25120 
25012 
24903 
24808 
24713 
24628 
24558 
24485 
24420 
24369 
24340 
24305 
24289 
24270 
24262 
24250 
24261 
24281 
24304 
24354 
24386 
24406 
24442 
24479 
24509 
24549 
24593 
24639 
24682 
24726 
24783 
24844 
24885 
24935 
24980 
25024 
25069 
25102 
25151 
25203 
25263 
25330 
25359 
25378 
25412 
25457 
25510 
25551 
25582 
25610 
25645 
25699 
25772 
25809 
25846 
25885 
25928 
25954 
25965 
25996 
26007 
26012 
26009 
26016 
26033 
26061 
26088 
26091 
26079 
26075 
26082 
26098 
26106 
26116 
26107 
26125 
26148 
26151 
26182 
26212 
26207 
26200 
26200 
26217 
26226 
26247 
26267 
26287 
26296 
26326 
26360 
26391 
26395 
26403 
26427 
26453 
26487 
26511 
26530 
26550 
26564 
26567 
26569 
26591 
26632 
26623 
26623 
26637 
26648 
26666 
26693 
26694 
26687 
26666 
26651 
26644 
26650 
26663 
26682 
26708 
26700 
26721 
26737 
26733 
26732 
26736 
26745 
26746 
26734 
26733 
26741 
26726 
26729 
26755 
26768 
26752 
26748 
26761 
26747 
26731 
26717 
26713 
26713 
26701 
26691 
26679 
26677 
26666 
26643 
26624 
26603 
26579 
26592 
26598 
26602 
26596 
26596 
26601 
26611 
26604 
26578 
26564 
26555 
26536 
26542 
26559 
26552 
26549 
26560 
26573 
26576 
26554 
26519 
26502 
26499 
26510 
26509 
26494 
26485 
26491 
26507 
26510 
26479 
26456 
26435 
26444 
26441 
26431 
26421 
26410 
26402 
26368 
26335 
26289 
26244 
26189 
26111 
26014 
25925 
25833 
25726 
25633 
25540 
25430 
25318 
25188 
25059 
24945 
24843 
24754 
24674 
24589 
24518 
24468 
24428 
24378 
24333 
24310 
24294 
24275 
24273 
24283 
24283 
24313 
24331 
24355 
24378 
24426 
24490 
24537 
24576 
24597 
24628 
24660 
24708 
24768 
24801 
24847 
24875 
24902 
24947 
24981 
25001 
25027 
25044 
25107 
25194 
25252 
25298 
25339 
25370 
25417 
25464 
25501 
25536 
25576 
25616 
25670 
25713 
25731 
25792 
25858 
25901 
25926 
25942 
25948 
25968 
25987 
26006 
26041 
26047 
26053 
26057 
26055 
26072 
26085 
26085 
26083 
26090 
26095 
26096 
26121 
26151 
26173 
26216 
26237 
26247 
26266 
26269 
26268 
26286 
26312 
26335 
26342 
26330 
26346 
26370 
26421 
26467 
26492 
26526 
26539 
26559 
26580 
26614 
26634 
26643 
26684 
26736 
26741 
26747 
26759 
26762 
26758 
26771 
26786 
26791 
26803 
26802 
26806 
26824 
26861 
26875 
26873 
26871 
26856 
26851 
26847 
26865 
26886 
26884 
26870 
26868 
26870 
26878 
26884 
26909 
26896 
26891 
26876 
26877 
26859 
26839 
26835 
26816 
26785 
26767 
26754 
26760 
26770 
26764 
26777 
26787 
26795 
26799 
26785 
26770 
26769 
26776 
26778 
26767 
26746 
26740 
26735 
26730 
26735 
26744 
26742 
26733 
26737 
26716 
26721 
26713 
26698 
26691 
26699 
26705 
26697 
26692 
26671 
26663 
26685 
26685 
26657 
26637 
26636 
26635 
26634 
26627 
26606 
26603 
26594 
26583 
26576 
26559 
26533 
26534 
26555 
26549 
26536 
26502 
26461 
26419 
26355 
26282 
26207 
26131 
26042 
25940 
25813 
25691 
25576 
25450 
25319 
25205 
25088 
24967 
24848 
24744 
24664 
24593 
24517 
24441 
24383 
24332 
24281 
24258 
24247 
24236 
24219 
24213 
24217 
24245 
24267 
24281 
24319 
24373 
24401 
24428 
24467 
24509 
24554 
24589 
24635 
24679 
24698 
24726 
24785 
24809 
24841 
24890 
24927 
24950 
24986 
25065 
25126 
25165 
25197 
25257 
25331 
25380 
25436 
25483 
25522 
25551 
25588 
25642 
25685 
25728 
25791 
25824 
25863 
25889 
25912 
25957 
25979 
26012 
26040 
26068 
26080 
26099 
26125 
26138 
26137 
26126 
26145 
26169 
26181 
26200 
26207 
26224 
26240 
26268 
26294 
26308 
26335 
26357 
26365 
26385 
26406 
26416 
26436 
26475 
26497 
26525 
26555 
26569 
26591 
26609 
26632 
26664 
26683 
26697 
26710 
26710 
26702 
26728 
26781 
26820 
26848 
26862 
26873 
26880 
26893 
26911 
26939 
26950 
26963 
26972 
27011 
27024 
27027 
27020 
27009 
27016 
27000 
26986 
26968 
26982 
26996 
26996 
27000 
26997 
27011 
27024 
27007 
27009 
26999 
26975 
26972 
26988 
26985 
26980 
26977 
26952 
26935 
26929 
26931 
26943 
26954 
26958 
26959 
26953 
26945 
26942 
26935 
26928 
26916 
26897 
26883 
26882 
26875 
26872 
26860 
26858 
26860 
26850 
26861 
26879 
26859 
26825 
26801 
26787 
26775 
26765 
26751 
26745 
26734 
26722 
26712 
26716 
26738 
26740 
26740 
26728 
26702 
26694 
26680 
26664 
26643 
26608 
26572 
26561 
26563 
26553 
26542 
26546 
26572 
26564 
26551 
26535 
26534 
26525 
26501 
26466 
26442 
26395 
26351 
26308 
26248 
26166 
26062 
25965 
25871 
25779 
25685 
25584 
25464 
25341 
25218 
25103 
24992 
24898 
24802 
24714 
24630 
24559 
24488 
24440 
24392 
24346 
24312 
24279 
24273 
24266 
24261 
24287 
24321 
24320 
24326 
24365 
24396 
24430 
24448 
24466 
24506 
24542 
24572 
24629 
24700 
24734 
24760 
24774 
24805 
24848 
24887 
24935 
24980 
25026 
25079 
25115 
25136 
25166 
25205 
25244 
25280 
25321 
25353 
25389 
25440 
25497 
25559 
25595 
25618 
25644 
25679 
25715 
25745 
25765 
25804 
25835 
25844 
25859 
25907 
25934 
25950 
25960 
25966 
25986 
25995 
25988 
25999 
26011 
26013 
26025 
26041 
26091 
26142 
26155 
26157 
26162 
26177 
26187 
26205 
26219 
26231 
26255 
26279 
26284 
26289 
26323 
26364 
26387 
26400 
26428 
26446 
26462 
26477 
26495 
26502 
26514 
26540 
26552 
26585 
26632 
26645 
26651 
26659 
26676 
26672 
26664 
26671 
26669 
26676 
26687 
26690 
26679 
26676 
26698 
26701 
26699 
26707 
26715 
26711 
26705 
26706 
26709 
26713 
26715 
26740 
26762 
26767 
26761 
26746 
26725 
26705 
26687 
26671 
26673 
26665 
26661 
26660 
26665 
26665 
26655 
26641 
26662 
26686 
26686 
26682 
26669 
26670 
26668 
26666 
26655 
26642 
26647 
26645 
26639 
26632 
26642 
26657 
26652 
26651 
26654 
26647 
26633 
26620 
26609 
26595 
26580 
26576 
26569 
26560 
26546 
26535 
26522 
26538 
26508 
26474 
26458 
26453 
26447 
26432 
26415 
26405 
26412 
26400 
26379 
26384 
26389 
26376 
26363 
26333 
26322 
26287 
26250 
26199 
26144 
26081 
26011 
25919 
25816 
25719 
25620 
25521 
25418 
25301 
25182 
25061 
24956 
24860 
24761 
24673 
24580 
24510 
24458 
24411 
24375 
24339 
24310 
24287 
24280 
24270 
24260 
24260 
24288 
24312 
24338 
24389 
24427 
24456 
24491 
24507 
24525 
24564 
24598 
24641 
24686 
24715 
24758 
24800 
24823 
24837 
24867 
24889 
24908 
24943 
24993 
25062 
25127 
25158 
25186 
25232 
25271 
25307 
25343 
25372 
25404 
25449 
25511 
25566 
25624 
25662 
25704 
25737 
25775 
25801 
25833 
25854 
25864 
25882 
25912 
25945 
25982 
26004 
26033 
26057 
26073 
26106 
26123 
26125 
26151 
26175 
26209 
26225 
26237 
26248 
26247 
26254 
26262 
26268 
26270 
26279 
26287 
26294 
26303 
26336 
26369 
26391 
26408 
26421 
26433 
26455 
26474 
26481 
26480 
26496 
26506 
26520 
26568 
26591 
26608 
26619 
26634 
26645 
26644 
26645 
26646 
26656 
26673 
26681 
26708 
26732 
26729 
26732 
26732 
26736 
26734 
26738 
26733 
26730 
26732 
26715 
26691 
26690 
26675 
26686 
26715 
26697 
26684 
26683 
26681 
26668 
26634 
26605 
26605 
26607 
26605 
26599 
26576 
26563 
26553 
26538 
26525 
26520 
26522 
26545 
26539 
26530 
26515 
26509 
26494 
26474 
26461 
26448 
26437 
26435 
26426 
26414 
26405 
26391 
26374 
26354 
26372 
26381 
26362 
26342 
26324 
26318 
26310 
26303 
26304 
26308 
26312 
26294 
26267 
26245 
26232 
26231 
26225 
26227 
26253 
26240 
26224 
26218 
26212 
26206 
26185 
26161 
26156 
26159 
26163 
26174 
26158 
26130 
26099 
26085 
26105 
26100 
26073 
26057 
26046 
26020 
25974 
25927 
25878 
25822 
25760 
25697 
25615 
25515 
25412 
25323 
25231 
25139 
25040 
24930 
24823 
24721 
24626 
24547 
24469 
24395 
24335 
24287 
24236 
24199 
24166 
24140 
24126 
24134 
24140 
24145 
24187 
24214 
24216 
24218 
24233 
24253 
24287 
24320 
24345 
24370 
24394 
24438 
24456 
24485 
24540 
24583 
24621 
24653 
24684 
24709 
24717 
24741 
24765 
24797 
24848 
24907 
24951 
24981 
25023 
25055 
25089 
25128 
25167 
25196 
25243 
25306 
25325 
25350 
25389 
25403 
25427 
25462 
25485 
25508 
25524 
25544 
25549 
25572 
25628 
25645 
25650 
25658 
25665 
25671 
25677 
25700 
25713 
25720 
25733 
25737 
25753 
25786 
25832 
25850 
25876 
25886 
25885 
25895 
25913 
25956 
25976 
26002 
26032 
26040 
26058 
26112 
26132 
26127 
26143 
26158 
26192 
26219 
26234 
26235 
26238 
26241 
26250 
26288 
26327 
26335 
26337 
26340 
26358 
26393 
26406 
26409 
26401 
26392 
26401 
26399 
26381 
26378 
26410 
26430 
26422 
26418 
26425 
26421 
26420 
26422 
26408 
26405 
26398 
26388 
26380 
26377 
26369 
26385 
26406 
26414 
26417 
26423 
26423 
26420 
26424 
26438 
26436 
26436 
26432 
26418 
26397 
26397 
26405 
26396 
26397 
26388 
26357 
26341 
26332 
26327 
26322 
26309 
26311 
26310 
26313 
26324 
26349 
26356 
26337 
26321 
26311 
26315 
26304 
26284 
26263 
26261 
26262 
26249 
26245 
26249 
26262 
26242 
26217 
26225 
26215 
26209 
26203 
26201 
26190 
26177 
26165 
26131 
26091 
26047 
26000 
25953 
25905 
25850 
25775 
25698 
25621 
25522 
25406 
25298 
25195 
25088 
24991 
24896 
24806 
24725 
24641 
24552 
24485 
24435 
24386 
24330 
24289 
24286 
24290 
24277 
24256 
24231 
24225 
24242 
24254 
24258 
24262 
24277 
24301 
24338 
24368 
24404 
24439 
24468 
24487 
24506 
24524 
24534 
24558 
24581 
24592 
24613 
24635 
24652 
24690 
24730 
24756 
24775 
24803 
24825 
24867 
24934 
24982 
25022 
25075 
25126 
25162 
25198 
25242 
25290 
25336 
25382 
25422 
25455 
25477 
25496 
25548 
25581 
25611 
25638 
25653 
25668 
25681 
25701 
25725 
25731 
25749 
25772 
25809 
25822 
25812 
25817 
25830 
25836 
25842 
25866 
25893 
25924 
25958 
26005 
26014 
26014 
26014 
26019 
26041 
26068 
26088 
26104 
26118 
26134 
26164 
26208 
26228 
26236 
26246 
26267 
26296 
26309 
26322 
26325 
26312 
26316 
26341 
26365 
26385 
26398 
26429 
26446 
26466 
26472 
26467 
26463 
26450 
26428 
26412 
26408 
26412 
26422 
26417 
26418 
26424 
26441 
26432 
26423 
26430 
26441 
26445 
26440 
26437 
26444 
26443 
26434 
26417 
26411 
26405 
26410 
26423 
26421 
26431 
26428 
26413 
26401 
26399 
26380 
26369 
26362 
26364 
26364 
26365 
26356 
26343 
26348 
26359 
26348 
26342 
26336 
26321 
26309 
26300 
26285 
26269 
26263 
26263 
26263 
26261 
26264 
26281 
26270 
26261 
26260 
26259 
26265 
26251 
26238 
26233 
26225 
26217 
26193 
26172 
26153 
26137 
26121 
26112 
26097 
26070 
26038 
25998 
25946 
25883 
25802 
25715 
25620 
25523 
25417 
25327 
25224 
25116 
25019 
24936 
24849 
24749 
24664 
24583 
24517 
24465 
24430 
24390 
24346 
24304 
24278 
24258 
24253 
24264 
24274 
24272 
24274 
24288 
24332 
24354 
24371 
24392 
24420 
24446 
24485 
24506 
24498 
24507 
24534 
24567 
24601 
24659 
24694 
24718 
24732 
24745 
24761 
24785 
24813 
24829 
24837 
24857 
24894 
24953 
25012 
25052 
25093 
25150 
25195 
25238 
25283 
25331 
25373 
25400 
25455 
25513 
25549 
25585 
25633 
25673 
25705 
25731 
25754 
25772 
25784 
25815 
25858 
25867 
25880 
25894 
25910 
25920 
25930 
25946 
25960 
25972 
25975 
25973 
25971 
26012 
26037 
26045 
26072 
26097 
26110 
26126 
26139 
26151 
26161 
26175 
26191 
26210 
26234 
26230 
26229 
26237 
26255 
26277 
26300 
26321 
26332 
26331 
26342 
26361 
26387 
26397 
26389 
26403 
26410 
26425 
26424 
26433 
26439 
26428 
26418 
26416 
26414 
26405 
26392 
26373 
26365 
26397 
26411 
26410 
26412 
26412 
26413 
26407 
26400 
26401 
26383 
26364 
26369 
26360 
26355 
26356 
26348 
26330 
26322 
26322 
26320 
26311 
26303 
26306 
26305 
26305 
26294 
26288 
26296 
26295 
26302 
26303 
26292 
26275 
26262 
26260 
26265 
26278 
26269 
26254 
26254 
26253 
26241 
26223 
26206 
26187 
26176 
26163 
26174 
26179 
26193 
26190 
26169 
26156 
26135 
26136 
26142 
26137 
26120 
26115 
26117 
26122 
26118 
26114 
26122 
26103 
26079 
26060 
26032 
25994 
25929 
25875 
25828 
25784 
25723 
25642 
25545 
25454 
25364 
25275 
25174 
25069 
24976 
24885 
24791 
24699 
24621 
24542 
24471 
24403 
24344 
24292 
24263 
24234 
24214 
24194 
24191 
24203 
24225 
24262 
24279 
24292 
24295 
24305 
24330 
24356 
24379 
24393 
24420 
24435 
24454 
24507 
24539 
24552 
24561 
24579 
24595 
24604 
24622 
24644 
24645 
24644 
24663 
24724 
24773 
24794 
24823 
24853 
24884 
24919 
24972 
25024 
25061 
25103 
25160 
25193 
25230 
25280 
25319 
25351 
25382 
25411 
25438 
25466 
25510 
25551 
25577 
25592 
25607 
25618 
25633 
25657 
25680 
25699 
25708 
25705 
25709 
25751 
25777 
25807 
25827 
25844 
25869 
25887 
25904 
25917 
25929 
25938 
25960 
25986 
26005 
26035 
26053 
26059 
26073 
26091 
26108 
26109 
26121 
26149 
26168 
26194 
26220 
26206 
26189 
26198 
26229 
26233 
26238 
26251 
26256 
26257 
26261 
26268 
26280 
26283 
26289 
26319 
26328 
26337 
26337 
26334 
26326 
26325 
26314 
26301 
26287 
26285 
26290 
26299 
26320 
26339 
26320 
26310 
26314 
26312 
26305 
26297 
26278 
26270 
26273 
26272 
26260 
26245 
26257 
26288 
26292 
26271 
26269 
26276 
26283 
26280 
26275 
26274 
26252 
26234 
26214 
26204 
26195 
26193 
26214 
26212 
26210 
26205 
26195 
26193 
26179 
26160 
26150 
26140 
26123 
26114 
26121 
26128 
26127 
26116 
26123 
26118 
26114 
26102 
26090 
26076 
26066 
26060 
26044 
26033 
26030 
26021 
26004 
25989 
25977 
25978 
25984 
25981 
25992 
25998 
26002 
25997 
25988 
25980 
25968 
25962 
25956 
25954 
25947 
25936 
25919 
25907 
25904 
25921 
25911 
25871 
25835 
25801 
25745 
25688 
25622 
25545 
25461 
25385 
25289 
25195 
25104 
25019 
24934 
24853 
24775 
24689 
24604 
24520 
24455 
24410 
24361 
24318 
24287 
24266 
24241 
24225 
24214 
24218 
24233 
24238 
24250 
24298 
24318 
24329 
24345 
24354 
24373 
24399 
24419 
24433 
24456 
24482 
24521 
24558 
24590 
24610 
24627 
24639 
24646 
24650 
24659 
24676 
24712 
24738 
24763 
24791 
24821 
24883 
24925 
24952 
24976 
24991 
25013 
25048 
25088 
25123 
25138 
25157 
25192 
25247 
25281 
25303 
25320 
25354 
25396 
25398 
25399 
25428 
25452 
25462 
25459 
25460 
25500 
25531 
25537 
25540 
25557 
25574 
25593 
25618 
25638 
25636 
25629 
25643 
25669 
25708 
25730 
25732 
25744 
25767 
25790 
25804 
25815 
25837 
25861 
25871 
25888 
25902 
25933 
25971 
25990 
26002 
26007 
26017 
26041 
26059 
26061 
26075 
26094 
26100 
26118 
26152 
26181 
26185 
26175 
26171 
26180 
26195 
26207 
26208 
26219 
26234 
26235 
26232 
26249 
26276 
26264 
26256 
26255 
26253 
26258 
26269 
26273 
26278 
26271 
26253 
26239 
26231 
26221 
26215 
26216 
26237 
26240 
26232 
26223 
26219 
26220 
26234 
26224 
26208 
26189 
26182 
26178 
26178 
26165 
26160 
26176 
26180 
26170 
26164 
26163 
26155 
26143 
26131 
26121 
26120 
26108 
26095 
26094 
26095 
26093 
26104 
26128 
26117 
26116 
26122 
26124 
26116 
26104 
26097 
26098 
26099 
26104 
26094 
26083 
26068 
26049 
26030 
26022 
26026 
26047 
26044 
26038 
26028 
26025 
26026 
26021 
26008 
25984 
25981 
25982 
25964 
25948 
25938 
25920 
25913 
25898 
25856 
25815 
25754 
25686 
25630 
25568 
25507 
25426 
25338 
25258 
25170 
25087 
25003 
24925 
24855 
24792 
24741 
24684 
24626 
24584 
24545 
24514 
24486 
24458 
24432 
24418 
24406 
24399 
24393 
24415 
24438 
24444 
24461 
24489 
24532 
24550 
24560 
24573 
24580 
24603 
24631 
24653 
24699 
24726 
24749 
24766 
24791 
24811 
24836 
24855 
24871 
24889 
24913 
24956 
24982 
24991 
25018 
25039 
25068 
25093 
25114 
25150 
25185 
25203 
25223 
25266 
25316 
25341 
25362 
25384 
25404 
25421 
25419 
25417 
25440 
25468 
25493 
25501 
25511 
25540 
25545 
25550 
25554 
25571 
25585 
25583 
25596 
25610 
25626 
25627 
25630 
25642 
25673 
25686 
25696 
25708 
25719 
25734 
25755 
25765 
25763 
25771 
25784 
25812 
25826 
25845 
25865 
25872 
25899 
25909 
25917 
25941 
25957 
25963 
25977 
25990 
26000 
26025 
26033 
26044 
26060 
26069 
26075 
26079 
26085 
26095 
26098 
26110 
26113 
26119 
26130 
26160 
26158 
26143 
26147 
26150 
26149 
26145 
26138 
26143 
26143 
26147 
26148 
26144 
26155 
26170 
26159 
26152 
26147 
26141 
26137 
26130 
26126 
26126 
26111 
26090 
26081 
26088 
26087 
26097 
26108 
26109 
26108 
26097 
26090 
26092 
26084 
26062 
26045 
26045 
26042 
26045 
26049 
26066 
26077 
26073 
26065 
26049 
26036 
26018 
26001 
25988 
25972 
25965 
25969 
25964 
25965 
25962 
25954 
25976 
25978 
25966 
25952 
25939 
25932 
25920 
25910 
25900 
25893 
25893 
25883 
25886 
25879 
25864 
25874 
25877 
25858 
25845 
25833 
25820 
25796 
25757 
25727 
25679 
25620 
25566 
25499 
25418 
25330 
25256 
25184 
25120 
25039 
24964 
24892 
24812 
24748 
24705 
24657 
24611 
24566 
24528 
24482 
24459 
24457 
24441 
24427 
24424 
24423 
24422 
24412 
24415 
24425 
24433 
24440 
24457 
24481 
24517 
24542 
24560 
24579 
24607 
24627 
24631 
24641 
24658 
24690 
24712 
24730 
24750 
24776 
24785 
24796 
24821 
24844 
24854 
24865 
24879 
24900 
24931 
24962 
24994 
25019 
25065 
25091 
25124 
25157 
25180 
25193 
25216 
25245 
25278 
25304 
25324 
25339 
25383 
25410 
25408 
25418 
25433 
25442 
25453 
25462 
25470 
25488 
25510 
25520 
25542 
25551 
25581 
25605 
25598 
25595 
25603 
25620 
25622 
25630 
25636 
25648 
25665 
25689 
25706 
25725 
25745 
25774 
25814 
25835 
25844 
25868 
25898 
25914 
25942 
25944 
25951 
25959 
25973 
25995 
26024 
26064 
26078 
26087 
26095 
26102 
26106 
26112 
26123 
26134 
26147 
26147 
26151 
26165 
26192 
26198 
26191 
26192 
26194 
26190 
26179 
26165 
26170 
26171 
26151 
26143 
26147 
26147 
26134 
26144 
26146 
26139 
26125 
26128 
26126 
26133 
26141 
26143 
26126 
26116 
26111 
26105 
26096 
26114 
26125 
26131 
26132 
26134 
26121 
26098 
26089 
26077 
26070 
26067 
26063 
26061 
26062 
26079 
26065 
26046 
26042 
26048 
26048 
26027 
26015 
26016 
25995 
25975 
25968 
25971 
25960 
25951 
25972 
25979 
25966 
25961 
25968 
25963 
25949 
25939 
25943 
25942 
25927 
25930 
25922 
25912 
25914 
25911 
25911 
25905 
25900 
25889 
25879 
25876 
25870 
25860 
25858 
25864 
25859 
25845 
25850 
25842 
25814 
25777 
25741 
25698 
25633 
25565 
25500 
25434 
25372 
25294 
25217 
25140 
25058 
24975 
24899 
24825 
24752 
24700 
24643 
24579 
24523 
24478 
24428 
24398 
24383 
24363 
24347 
24340 
24338 
24318 
24311 
24340 
24380 
24376 
24378 
24401 
24430 
24461 
24484 
24495 
24505 
24517 
24542 
24584 
24619 
24636 
24652 
24666 
24684 
24706 
24718 
24732 
24755 
24775 
24801 
24824 
24851 
24878 
24892 
24916 
24939 
24959 
24986 
25016 
25053 
25085 
25114 
25164 
25198 
25218 
25241 
25266 
25277 
25291 
25317 
25340 
25357 
25369 
25371 
25404 
25434 
25451 
25470 
25475 
25481 
25498 
25515 
25526 
25531 
25536 
25554 
25576 
25600 
25613 
25635 
25643 
25641 
25649 
25674 
25680 
25691 
25708 
25723 
25731 
25741 
25785 
25817 
25831 
25854 
25867 
25872 
25891 
25899 
25906 
25908 
25914 
25923 
25932 
25960 
25995 
26003 
26006 
26016 
26020 
26021 
26026 
26032 
26035 
26040 
26039 
26047 
26049 
26069 
26091 
26089 
26091 
26084 
26089 
26089 
26092 
26096 
26094 
26099 
26094 
26084 
26083 
26082 
26092 
26087 
26070 
26068 
26064 
26053 
26044 
26041 
26036 
26025 
26024 
26024 
26022 
26014 
26004 
25993 
25988 
25996 
26016 
26028 
26032 
26024 
26012 
26017 
26007 
25988 
25972 
25962 
25972 
25973 
25969 
25965 
25982 
25989 
25982 
25976 
25975 
25978 
25975 
25969 
25961 
25947 
25932 
25913 
25909 
25922 
25941 
25938 
25922 
25925 
25929 
25920 
25902 
25893 
25887 
25882 
25876 
25876 
25887 
25879 
25873 
25884 
25887 
25884 
25885 
25876 
25858 
25853 
25846 
25832 
25817 
25803 
25787 
25754 
25716 
25672 
25634 
25571 
25510 
25459 
25388 
25321 
25251 
25174 
25117 
25067 
25012 
24952 
24878 
24809 
24748 
24692 
24649 
24607 
24566 
24526 
24511 
24499 
24493 
24492 
24491 
24491 
24482 
24479 
24486 
24505 
24545 
24560 
24593 
24620 
24630 
24639 
24661 
24696 
24715 
24725 
24736 
24736 
24759 
24795 
24806 
24831 
24857 
24879 
24893 
24908 
24916 
24936 
24956 
24972 
24987 
25016 
25065 
25114 
25138 
25156 
25179 
25203 
25227 
25244 
25274 
25302 
25305 
25314 
25337 
25365 
25361 
25360 
25369 
25378 
25386 
25385 
25381 
25384 
25402 
25426 
25434 
25436 
25430 
25430 
25449 
25486 
25497 
25503 
25516 
25512 
25513 
25516 
25525 
25532 
25548 
25561 
25571 
25595 
25623 
25635 
25655 
25684 
25709 
25716 
25735 
25752 
25768 
25779 
25796 
25834 
25845 
25859 
25869 
25868 
25865 
25862 
25867 
25867 
25862 
25852 
25857 
25885 
25901 
25928 
25955 
25952 
25951 
25951 
25954 
25955 
25953 
25956 
25965 
25973 
25979 
25969 
25954 
25956 
25958 
25977 
25989 
25995 
25993 
25990 
25996 
26006 
26010 
26003 
25998 
25991 
25984 
25960 
25942 
25943 
25954 
25967 
25966 
25959 
25946 
25939 
25944 
25935 
25943 
25946 
25935 
25933 
25933 
25925 
25916 
25907 
25917 
25939 
25940 
25940 
25928 
25920 
25920 
25920 
25907 
25893 
25887 
25875 
25870 
25870 
25872 
25884 
25900 
25894 
25888 
25885 
25886 
25873 
25866 
25850 
25834 
25837 
25828 
25821 
25813 
25803 
25787 
25781 
25789 
25800 
25784 
25774 
25761 
25735 
25710 
25680 
25661 
25621 
25571 
25518 
25456 
25392 
25318 
25260 
25188 
25102 
25032 
24968 
24897 
24825 
24755 
24698 
24649 
24599 
24536 
24479 
24445 
24437 
24438 
24413 
24391 
24373 
24362 
24357 
24363 
24370 
24363 
24363 
24379 
24393 
24425 
24479 
24503 
24518 
24538 
24560 
24579 
24598 
24625 
24636 
24647 
24668 
24674 
24677 
24713 
24754 
24769 
24791 
24804 
24825 
24844 
24859 
24879 
24907 
24939 
24959 
24976 
25023 
25068 
25094 
25112 
25135 
25161 
25187 
25212 
25237 
25257 
25285 
25306 
25321 
25358 
25402 
25413 
25418 
25431 
25457 
25468 
25466 
25468 
25478 
25485 
25491 
25492 
25511 
25553 
25564 
25575 
25593 
25610 
25611 
25618 
25623 
25638 
25646 
25644 
25658 
25676 
25685 
25710 
25722 
25728 
25743 
25756 
25761 
25763 
25769 
25791 
25814 
25826 
25834 
25852 
25889 
25895 
25894 
25898 
25917 
25941 
25950 
25948 
25960 
25972 
25975 
25994 
26023 
26025 
26026 
26026 
26019 
26014 
26014 
26017 
26028 
26022 
26011 
26006 
26005 
26016 
26024 
26042 
26039 
26036 
26031 
26025 
26024 
26024 
26027 
26016 
26016 
26020 
26016 
26008 
26000 
26010 
26032 
26027 
26014 
26007 
26013 
26021 
26019 
26017 
26009 
25993 
25989 
25977 
25971 
25972 
25968 
25977 
25981 
25976 
25969 
25964 
25969 
25972 
25971 
25969 
25952 
25944 
25943 
25934 
25919 
25912 
25928 
25949 
25946 
25933 
25927 
25918 
25906 
25897 
25888 
25882 
25870 
25855 
25845 
25843 
25833 
25821 
25839 
25862 
25860 
25848 
25842 
25834 
25832 
25820 
25814 
25821 
25817 
25806 
25800 
25789 
25774 
25764 
25765 
25758 
25760 
25738 
25712 
25674 
25635 
25590 
25532 
25466 
25398 
25344 
25283 
25203 
25121 
25049 
24979 
24914 
24837 
24772 
24716 
24658 
24600 
24540 
24504 
24470 
24442 
24416 
24397 
24384 
24368 
24365 
24382 
24389 
24400 
24408 
24427 
24449 
24473 
24491 
24510 
24530 
24574 
24609 
24619 
24623 
24622 
24638 
24662 
24677 
24707 
24734 
24765 
24796 
24834 
24873 
24884 
24896 
24915 
24936 
24950 
24974 
25004 
25025 
25054 
25082 
25110 
25164 
25200 
25220 
25235 
25246 
25270 
25305 
25336 
25358 
25372 
25391 
25404 
25407 
25428 
25465 
25473 
25473 
25480 
25487 
25487 
25483 
25487 
25500 
25505 
25506 
25498 
25502 
25516 
25541 
25564 
25570 
25576 
25576 
25583 
25588 
25597 
25608 
25628 
25648 
25668 
25711 
25727 
25722 
25732 
25745 
25756 
25761 
25774 
25789 
25802 
25828 
25842 
25840 
25837 
25855 
25870 
25887 
25900 
25896 
25898 
25904 
25916 
25919 
25923 
25923 
25919 
25907 
25907 
25914 
25921 
25937 
25937 
25930 
25922 
25921 
25905 
25899 
25900 
25900 
25909 
25914 
25915 
25903 
25897 
25893 
25888 
25898 
25905 
25901 
25905 
25907 
25910 
25920 
25925 
25924 
25924 
25924 
25922 
25912 
25901 
25916 
25951 
25946 
25937 
25927 
25922 
25922 
25931 
25927 
25922 
25923 
25923 
25919 
25906 
25904 
25933 
25963 
25958 
25939 
25932 
25929 
25930 
25929 
25921 
25909 
25902 
25897 
25895 
25896 
25903 
25904 
25916 
25903 
25899 
25889 
25860 
25833 
25811 
25772 
25722 
25670 
25618 
25563 
25503 
25435 
25349 
25268 
25182 
25099 
25031 
24958 
24896 
24831 
24764 
24702 
24631 
24581 
24551 
24517 
24483 
24460 
24447 
24432 
24435 
24449 
24440 
24447 
24460 
24481 
24483 
24487 
24506 
24525 
24555 
24578 
24590 
24600 
24609 
24644 
24663 
24685 
24707 
24716 
24728 
24740 
24756 
24766 
24776 
24788 
24812 
24865 
24909 
24929 
24956 
24986 
25009 
25032 
25061 
25097 
25125 
25153 
25189 
25249 
25281 
25311 
25337 
25366 
25390 
25408 
25419 
25441 
25466 
25482 
25507 
25540 
25553 
25569 
25588 
25589 
25595 
25607 
25603 
25601 
25605 
25613 
25612 
25621 
25639 
25654 
25676 
25690 
25706 
25719 
25743 
25761 
25769 
25780 
25784 
25798 
25822 
25839 
25874 
25911 
25919 
25929 
25948 
25968 
25985 
25992 
25996 
25999 
26008 
26008 
26010 
26028 
26058 
26083 
26082 
26079 
26092 
26101 
26102 
26096 
26099 
26102 
26105 
26113 
26104 
26102 
26125 
26128 
26121 
26121 
26117 
26108 
26109 
26094 
26084 
26087 
26074 
26065 
26059 
26049 
26043 
26045 
26056 
26060 
26060 
26062 
26064 
26063 
26060 
26070 
26087 
26089 
26075 
26060 
26053 
26050 
26047 
26063 
26058 
26054 
26062 
26064 
26058 
26060 
26054 
26041 
26013 
25994 
25975 
25954 
25932 
25928 
25942 
25941 
25932 
25956 
25961 
25950 
25951 
25951 
25939 
25930 
25931 
25950 
25962 
25959 
25949 
25945 
25951 
25945 
25958 
25967 
25954 
25951 
25948 
25940 
25926 
25914 
25893 
25870 
25847 
25836 
25821 
25798 
25771 
25757 
25702 
25621 
25536 
25454 
25379 
25309 
25228 
25125 
25032 
24959 
24883 
24806 
24727 
24645 
24576 
24508 
24457 
24412 
24377 
24333 
24305 
24288 
24268 
24243 
24241 
24249 
24241 
24243 
24285 
24301 
24313 
24327 
24335 
24358 
24380 
24390 
24402 
24412 
24436 
24449 
24479 
24509 
24531 
24558 
24568 
24568 
24572 
24563 
24553 
24566 
24603 
24629 
24640 
24663 
24712 
24734 
24766 
24798 
24813 
24839 
24887 
24936 
24978 
25009 
25066 
25142 
25204 
25245 
25290 
25326 
25352 
25370 
25399 
25447 
25477 
25505 
25550 
25580 
25602 
25618 
25630 
25634 
25650 
25665 
25677 
25682 
25689 
25703 
25738 
25758 
25745 
25745 
25753 
25772 
25788 
25820 
25854 
25872 
25882 
25900 
25934 
25962 
25974 
25983 
26002 
26033 
26065 
26090 
26103 
26114 
26131 
26165 
26185 
26187 
26206 
26210 
26212 
26227 
26239 
26246 
26257 
26271 
26285 
26293 
26295 
26319 
26338 
26350 
26361 
26360 
26364 
26365 
26377 
26389 
26370 
26364 
26373 
26374 
26375 
26398 
26389 
26372 
26367 
26374 
26371 
26367 
26349 
26347 
26355 
26344 
26332 
26340 
26368 
26368 
26366 
26359 
26355 
26341 
26318 
26308 
26307 
26291 
26283 
26279 
26273 
26266 
26242 
26234 
26244 
26268 
26260 
26249 
26246 
26239 
26233 
26230 
26230 
26228 
26223 
26214 
26209 
26190 
26186 
26214 
26232 
26224 
26216 
26214 
26214 
26202 
26186 
26173 
26168 
26153 
26132 
26118 
26116 
26112 
26106 
26109 
26128 
26115 
26107 
26105 
26097 
26097 
26100 
26103 
26088 
26073 
26050 
26038 
26018 
25985 
25955 
25920 
25888 
25847 
25776 
25708 
25628 
25532 
25437 
25350 
25257 
25157 
25065 
24981 
24900 
24830 
24755 
24672 
24606 
24546 
24497 
24453 
24410 
24373 
24337 
24315 
24298 
24290 
24291 
24290 
24300 
24306 
24310 
24330 
24365 
24402 
24410 
24426 
24454 
24476 
24491 
24501 
24512 
24535 
24567 
24594 
24615 
24635 
24674 
24694 
24707 
24713 
24731 
24762 
24773 
24791 
24813 
24841 
24881 
24919 
24974 
25007 
25043 
25062 
25083 
25112 
25145 
25182 
25215 
25253 
25304 
25374 
25396 
25407 
25435 
25451 
25468 
25485 
25501 
25530 
25554 
25572 
25587 
25623 
25663 
25674 
25683 
25688 
25695 
25717 
25742 
25751 
25757 
25759 
25779 
25827 
25856 
25853 
25853 
25872 
25885 
25892 
25914 
25936 
25965 
25989 
26014 
26036 
26083 
26102 
26118 
26129 
26147 
26168 
26188 
26189 
26207 
26233 
26253 
26262 
26277 
26319 
26313 
26306 
26314 
26318 
26332 
26339 
26351 
26361 
26359 
26358 
26358 
26363 
26365 
26382 
26382 
26392 
26396 
26397 
26397 
26403 
26396 
26384 
26391 
26391 
26380 
26371 
26367 
26364 
26387 
26392 
26381 
26370 
26359 
26363 
26369 
26364 
26351 
26337 
26331 
26330 
26327 
26329 
26336 
26350 
26348 
26349 
26329 
26322 
26312 
26304 
26299 
26307 
26292 
26276 
26271 
26264 
26266 
26282 
26270 
26265 
26243 
26226 
26224 
26217 
26219 
26208 
26192 
26181 
26176 
26169 
26157 
26149 
26160 
26151 
26141 
26124 
26115 
26116 
26125 
26113 
26101 
26097 
26094 
26091 
26085 
26086 
26076 
26070 
26077 
26083 
26078 
26063 
26044 
26044 
26045 
26039 
26033 
26022 
26019 
26019 
26004 
25987 
25956 
25911 
25871 
25831 
25774 
25705 
25628 
25538 
25455 
25379 
25292 
25193 
25107 
25012 
24914 
24827 
24740 
24662 
24607 
24548 
24493 
24442 
24411 
24382 
24340 
24310 
24287 
24258 
24237 
24241 
24263 
24272 
24279 
24303 
24325 
24341 
24356 
24384 
24409 
24440 
24472 
24518 
24574 
24585 
24607 
24621 
24636 
24661 
24679 
24685 
24685 
24700 
24719 
24726 
24746 
24801 
24824 
24853 
24890 
24932 
24962 
24991 
25028 
25065 
25096 
25145 
25168 
25186 
25219 
25244 
25266 
25302 
25336 
25359 
25392 
25414 
25443 
25485 
25504 
25514 
25531 
25557 
25574 
25580 
25580 
25587 
25594 
25600 
25620 
25637 
25673 
25698 
25706 
25718 
25742 
25759 
25773 
25789 
25800 
25811 
25829 
25845 
25887 
25920 
25937 
25962 
25970 
25989 
26002 
26011 
26020 
26033 
26051 
26058 
26064 
26096 
26140 
26161 
26159 
26161 
26162 
26153 
26166 
26176 
26191 
26207 
26212 
26222 
26245 
26248 
26253 
26265 
26280 
26290 
26297 
26294 
26294 
26294 
26304 
26307 
26308 
26301 
26305 
26311 
26332 
26326 
26325 
26338 
26341 
26338 
26329 
26326 
26325 
26319 
26316 
26301 
26296 
26295 
26311 
26308 
26289 
26274 
26274 
26280 
26282 
26281 
26279 
26289 
26280 
26269 
26259 
26256 
26266 
26281 
26278 
26265 
26258 
26248 
26242 
26251 
26247 
26229 
26204 
26197 
26209 
26217 
26220 
26209 
26202 
26228 
26234 
26220 
26213 
26203 
26198 
26187 
26175 
26165 
26162 
26153 
26149 
26143 
26138 
26131 
26120 
26114 
26136 
26143 
26131 
26111 
26103 
26087 
26076 
26070 
26056 
26053 
26046 
26037 
26028 
26021 
26029 
26014 
26010 
26031 
26023 
26004 
25970 
25927 
25880 
25827 
25767 
25707 
25641 
25567 
25492 
25407 
25316 
25234 
25145 
25060 
24985 
24902 
24808 
24717 
24641 
24582 
24533 
24476 
24437 
24408 
24380 
24351 
24339 
24341 
24362 
24378 
24386 
24395 
24399 
24403 
24404 
24419 
24442 
24475 
24493 
24512 
24535 
24555 
24606 
24645 
24680 
24706 
24719 
24745 
24761 
24783 
24805 
24829 
24855 
24892 
24917 
24949 
24989 
25018 
25035 
25063 
25087 
25108 
25142 
25172 
25199 
25222 
25255 
25311 
25341 
25360 
25377 
25384 
25393 
25396 
25405 
25422 
25434 
25428 
25417 
25436 
25476 
25501 
25511 
25509 
25503 
25495 
25491 
25497 
25505 
25510 
25518 
25526 
25524 
25524 
25551 
25584 
25601 
25601 
25607 
25633 
25652 
25654 
25657 
25673 
25686 
25699 
25725 
25770 
25786 
25794 
25827 
25863 
25862 
25863 
25879 
25892 
25905 
25922 
25931 
25940 
25964 
25986 
25989 
25998 
26017 
26035 
26031 
26024 
26031 
26047 
26053 
26050 
26047 
26055 
26084 
26116 
26128 
26130 
26119 
26105 
26101 
26098 
26096 
26084 
26094 
26116 
26110 
26099 
26089 
26108 
26136 
26126 
26113 
26109 
26103 
26101 
26099 
26102 
26100 
26099 
26108 
26101 
26089 
26088 
26102 
26116 
26114 
26114 
26113 
26116 
26114 
26107 
26106 
26099 
26097 
26097 
26083 
26071 
26066 
26066 
26067 
26058 
26056 
26054 
26053 
26052 
26047 
26046 
26045 
26034 
26018 
26009 
26000 
25993 
26006 
26020 
26005 
25992 
25982 
25955 
25930 
25904 
25869 
25833 
25790 
25740 
25680 
25609 
25533 
25452 
25365 
25280 
25206 
25126 
25045 
24973 
24903 
24833 
24770 
24720 
24674 
24614 
24562 
24529 
24495 
24466 
24432 
24422 
24452 
24474 
24458 
24445 
24472 
24500 
24515 
24532 
24550 
24558 
24582 
24602 
24625 
24641 
24655 
24693 
24730 
24744 
24762 
24790 
24819 
24860 
24884 
24904 
24937 
24974 
25000 
25043 
25093 
25124 
25131 
25140 
25170 
25185 
25195 
25219 
25247 
25254 
25271 
25276 
25290 
25338 
25365 
25384 
25386 
25395 
25402 
25397 
25404 
25413 
25430 
25444 
25452 
25457 
25477 
25504 
25505 
25511 
25532 
25552 
25565 
25569 
25584 
25605 
25607 
25619 
25625 
25626 
25654 
25696 
25711 
25731 
25746 
25764 
25785 
25804 
25825 
25847 
25856 
25869 
25892 
25936 
25978 
25987 
25986 
25993 
25997 
25997 
25996 
26004 
26019 
26034 
26043 
26068 
26114 
26125 
26126 
26140 
26144 
26141 
26139 
26144 
26161 
26175 
26171 
26169 
26178 
26196 
26192 
26198 
26201 
26209 
26218 
26219 
26206 
26200 
26197 
26187 
26185 
26204 
26221 
26229 
26222 
26208 
26200 
26188 
26181 
26187 
26198 
26191 
26180 
26171 
26169 
26175 
26178 
26191 
26190 
26188 
26191 
26195 
26182 
26164 
26156 
26135 
26118 
26109 
26116 
26113 
26104 
26110 
26118 
26111 
26103 
26095 
26099 
26092 
26068 
26057 
26051 
26049 
26043 
26042 
26045 
26040 
26042 
26062 
26051 
26028 
26017 
26008 
25994 
25982 
25954 
25908 
25862 
25814 
25755 
25694 
25613 
25529 
25448 
25365 
25266 
25172 
25092 
25004 
24909 
24817 
24741 
24666 
24609 
24548 
24490 
24431 
24394 
24357 
24317 
24289 
24284 
24300 
24291 
24287 
24285 
24292 
24317 
24344 
24374 
24400 
24422 
24450 
24486 
24524 
24580 
24606 
24629 
24673 
24709 
24730 
24745 
24766 
24787 
24807 
24833 
24857 
24892 
24929 
24949 
24967 
24999 
25038 
25073 
25098 
25129 
25162 
25193 
25229 
25292 
25334 
25364 
25392 
25427 
25468 
25505 
25529 
25555 
25566 
25568 
25608 
25643 
25651 
25654 
25665 
25665 
25661 
25652 
25639 
25631 
25627 
25631 
25631 
25622 
25622 
25611 
25610 
25639 
25648 
25643 
25646 
25655 
25651 
25653 
25649 
25657 
25665 
25670 
25671 
25694 
25718 
25760 
25779 
25786 
25793 
25802 
25816 
25824 
25824 
25816 
25813 
25819 
25833 
25838 
25866 
25891 
25899 
25908 
25911 
25904 
25898 
25911 
25914 
25915 
25923 
25931 
25941 
25961 
25966 
25980 
25998 
26008 
26010 
26010 
26008 
26011 
26019 
26030 
26037 
26040 
26068 
26071 
26063 
26064 
26067 
26068 
26062 
26044 
26025 
26029 
26032 
26028 
26019 
26025 
26046 
26058 
26051 
26050 
26049 
26049 
26050 
26048 
26059 
26039 
26022 
26030 
26043 
26049 
26069 
26075 
26061 
26038 
26023 
26024 
26028 
26029 
26035 
26024 
26019 
26017 
26011 
25998 
25979 
25976 
25983 
26005 
26005 
26003 
25990 
25978 
25956 
25918 
25889 
25863 
25829 
25779 
25722 
25665 
25594 
25507 
25423 
25341 
25259 
25181 
25102 
25023 
24941 
24872 
24810 
24741 
24681 
24619 
24565 
24525 
24488 
24447 
24429 
24440 
24436 
24425 
24429 
24434 
24441 
24453 
24465 
24473 
24492 
24519 
24543 
24571 
24638 
24675 
24699 
24729 
24742 
24757 
24774 
24787 
24797 
24814 
24824 
24838 
24860 
24906 
24944 
24968 
24992 
25021 
25055 
25092 
25118 
25142 
25170 
25194 
25231 
25280 
25313 
25328 
25356 
25389 
25408 
25429 
25450 
25467 
25494 
25528 
25554 
25578 
25578 
25598 
25614 
25618 
25622 
25620 
25625 
25622 
25627 
25631 
25639 
25664 
25707 
25723 
25732 
25741 
25743 
25742 
25741 
25751 
25767 
25790 
25814 
25842 
25866 
25873 
25903 
25925 
25946 
25961 
25964 
25974 
25988 
25995 
26005 
26028 
26042 
26045 
26049 
26070 
26108 
26115 
26125 
26126 
26132 
26140 
26142 
26149 
26161 
26171 
26178 
26178 
26176 
26177 
26206 
26225 
26233 
26236 
26231 
26218 
26213 
26215 
26217 
26214 
26199 
26180 
26158 
26153 
26156 
26152 
26179 
26179 
26170 
26159 
26146 
26139 
26136 
26119 
26110 
26092 
26074 
26066 
26062 
26062 
26055 
26038 
26022 
26025 
26055 
26063 
26062 
26044 
26031 
26022 
26023 
26029 
26023 
26021 
26007 
25998 
25988 
25975 
25973 
25970 
25958 
25972 
25979 
25980 
25975 
25956 
25958 
25974 
25977 
25972 
25968 
25965 
25952 
25945 
25934 
25909 
25870 
25838 
25795 
25750 
25721 
25665 
25594 
25500 
25420 
25343 
25256 
25166 
25067 
24971 
24875 
24787 
24707 
24637 
24579 
24512 
24454 
24398 
24347 
24316 
24291 
24256 
24229 
24216 
24217 
24225 
24223 
24228 
24238 
24259 
24302 
24325 
24351 
24389 
24426 
24451 
24478 
24502 
24538 
24565 
24595 
24634 
24655 
24664 
24681 
24706 
24727 
24740 
24756 
24783 
24806 
24820 
24841 
24893 
24943 
24973 
24991 
25022 
25065 
25091 
25114 
25139 
25169 
25203 
25222 
25251 
25299 
25331 
25347 
25376 
25408 
25420 
25435 
25454 
25471 
25491 
25505 
25515 
25560 
25586 
25594 
25598 
25604 
25614 
25635 
25651 
25659 
25665 
25675 
25683 
25694 
25716 
25770 
25808 
25831 
25864 
25879 
25889 
25914 
25935 
25936 
25950 
25978 
26008 
26022 
26058 
26075 
26074 
26085 
26104 
26121 
26134 
26140 
26140 
26154 
26168 
26161 
26176 
26220 
26232 
26234 
26234 
26236 
26235 
26239 
26252 
26257 
26264 
26269 
26265 
26254 
26267 
26290 
26286 
26277 
26275 
26264 
26241 
26233 
26224 
26227 
26239 
26243 
26229 
26213 
26213 
26204 
26206 
26230 
26223 
26210 
26190 
26173 
26162 
26165 
26172 
26162 
26145 
26134 
26130 
26131 
26129 
26121 
26124 
26150 
26150 
26131 
26126 
26125 
26115 
26106 
26097 
26076 
26063 
26055 
26041 
26028 
26028 
26022 
26016 
26022 
26029 
26029 
26040 
26036 
26015 
25994 
25982 
25970 
25964 
25965 
25959 
25949 
25954 
25983 
25984 
25977 
25971 
25946 
25924 
25908 
25890 
25867 
25837 
25803 
25761 
25704 
25634 
25573 
25511 
25434 
25346 
25257 
25166 
25070 
24978 
24887 
24785 
24694 
24624 
24553 
24476 
24400 
24332 
24276 
24237 
24198 
24160 
24150 
24133 
24122 
24115 
24110 
24122 
24139 
24157 
24180 
24205 
24225 
24247 
24279 
24328 
24380 
24413 
24440 
24466 
24486 
24500 
24528 
24552 
24574 
24597 
24623 
24649 
24696 
24730 
24741 
24754 
24777 
24800 
24833 
24856 
24875 
24906 
24944 
24973 
25020 
25061 
25091 
25124 
25145 
25179 
25221 
25250 
25277 
25298 
25325 
25346 
25370 
25410 
25431 
25449 
25462 
25475 
25490 
25503 
25512 
25519 
25535 
25557 
25571 
25616 
25645 
25651 
25658 
25670 
25684 
25697 
25710 
25724 
25750 
25771 
25787 
25832 
25872 
25881 
25893 
25908 
25910 
25923 
25941 
25960 
25968 
25987 
26011 
26022 
26044 
26075 
26087 
26107 
26126 
26138 
26154 
26176 
26198 
26204 
26197 
26201 
26213 
26232 
26265 
26277 
26279 
26281 
26282 
26287 
26286 
26293 
26307 
26313 
26299 
26300 
26301 
26298 
26318 
26358 
26357 
26341 
26329 
26327 
26327 
26327 
26329 
26330 
26322 
26315 
26308 
26295 
26279 
26281 
26293 
26277 
26272 
26268 
26252 
26248 
26238 
26234 
26223 
26197 
26176 
26169 
26169 
26168 
26155 
26167 
26166 
26157 
26146 
26124 
26107 
26093 
26088 
26091 
26089 
26075 
26057 
26041 
26025 
26015 
26013 
26034 
26063 
26059 
26057 
26069 
26062 
26049 
26035 
26017 
26005 
26000 
25992 
25991 
25986 
25980 
25963 
25959 
25954 
25974 
25980 
25977 
25963 
25931 
25891 
25856 
25819 
25771 
25720 
25661 
25591 
25503 
25420 
25338 
25259 
25171 
25083 
24994 
24907 
24835 
24765 
24680 
24620 
24562 
24499 
24442 
24394 
24363 
24334 
24300 
24281 
24305 
24314 
24316 
24330 
24344 
24356 
24374 
24403 
24433 
24464 
24485 
24507 
24536 
24567 
24610 
24632 
24657 
24693 
24716 
24746 
24769 
24798 
24829 
24845 
24858 
24873 
24918 
24952 
24978 
25009 
25043 
25071 
25089 
25104 
25118 
25135 
25169 
25210 
25273 
25285 
25294 
25311 
25332 
25357 
25383 
25408 
25414 
25421 
25435 
25432 
25431 
25441 
25457 
25481 
25487 
25501 
25508 
25504 
25510 
25530 
25529 
25525 
25527 
25538 
25554 
25592 
25607 
25621 
25635 
25642 
25656 
25666 
25681 
25697 
25715 
25735 
25750 
25781 
25808 
25826 
25849 
25872 
25882 
25901 
25929 
25960 
25980 
25981 
25992 
26032 
26039 
26045 
26055 
26053 
26047 
26050 
26052 
26057 
26065 
26064 
26065 
26072 
26090 
26129 
26137 
26142 
26142 
26139 
26136 
26144 
26136 
26129 
26136 
26144 
26151 
26157 
26152 
26148 
26158 
26164 
26157 
26154 
26150 
26133 
26127 
26126 
26118 
26108 
26096 
26085 
26072 
26057 
26052 
26040 
26031 
26056 
26059 
26062 
26050 
26033 
26028 
26022 
26013 
25993 
25977 
25978 
25969 
25954 
25954 
25958 
25952 
25958 
25970 
25968 
25962 
25963 
25966 
25961 
25950 
25935 
25930 
25942 
25950 
25944 
25935 
25944 
25935 
25920 
25891 
25860 
25829 
25797 
25753 
25713 
25652 
25577 
25498 
25438 
25369 
25304 
25231 
25148 
25069 
24986 
24898 
24824 
24761 
24696 
24625 
24553 
24497 
24463 
24444 
24424 
24396 
24380 
24392 
24423 
24419 
24399 
24407 
24427 
24452 
24467 
24481 
24495 
24522 
24558 
24587 
24614 
24665 
24700 
24734 
24759 
24789 
24818 
24845 
24884 
24924 
24955 
24978 
25007 
25055 
25096 
25132 
25170 
25212 
25242 
25264 
25294 
25331 
25368 
25411 
25444 
25456 
25465 
25481 
25507 
25521 
25521 
25522 
25521 
25520 
25531 
25537 
25546 
25573 
25578 
25574 
25572 
25572 
25573 
25581 
25591 
25590 
25590 
25582 
25577 
25579 
25577 
25594 
25634 
25657 
25680 
25693 
25690 
25688 
25692 
25706 
25729 
25752 
25759 
25776 
25803 
25846 
25866 
25874 
25890 
25915 
25928 
25930 
25948 
25974 
25994 
26017 
26029 
26035 
26053 
26087 
26087 
26092 
26099 
26104 
26114 
26118 
26108 
26098 
26098 
26100 
26109 
26128 
26134 
26131 
26159 
26161 
26151 
26143 
26142 
26144 
26145 
26143 
26141 
26139 
26133 
26125 
26118 
26103 
26093 
26103 
26127 
26139 
26137 
26125 
26116 
26111 
26105 
26089 
26074 
26078 
26079 
26062 
26054 
26063 
26056 
26048 
26044 
26056 
26044 
26030 
26017 
26012 
26014 
26001 
25991 
25992 
25985 
25978 
25973 
25966 
25959 
25956 
25959 
25938 
25945 
25949 
25916 
25891 
25871 
25839 
25807 
25768 
25705 
25639 
25572 
25494 
25424 
25346 
25266 
25183 
25092 
24996 
24893 
24811 
24739 
24673 
24602 
24528 
24479 
24428 
24380 
24343 
24309 
24281 
24263 
24277 
24296 
24289 
24284 
24289 
24297 
24304 
24325 
24355 
24375 
24390 
24408 
24434 
24465 
24493 
24536 
24563 
24596 
24624 
24638 
24654 
24678 
24690 
24714 
24737 
24760 
24797 
24836 
24836 
24855 
24883 
24918 
24943 
24972 
25005 
25056 
25104 
25151 
25187 
25216 
25230 
25252 
25274 
25314 
25341 
25356 
25376 
25419 
25448 
25457 
25476 
25488 
25505 
25518 
25518 
25522 
25530 
25532 
25542 
25543 
25542 
25547 
25553 
25600 
25626 
25638 
25638 
25655 
25683 
25695 
25697 
25695 
25704 
25716 
25728 
25742 
25756 
25791 
25828 
25840 
25852 
25875 
25904 
25920 
25926 
25935 
25958 
25982 
25983 
25991 
26030 
26048 
26046 
26063 
26080 
26090 
26086 
26090 
26105 
26121 
26120 
26127 
26136 
26156 
26163 
26156 
26166 
26173 
26180 
26174 
26166 
26157 
26154 
26149 
26165 
26191 
26193 
26195 
26195 
26182 
26159 
26151 
26163 
26154 
26141 
26149 
26154 
26153 
26137 
26129 
26145 
26152 
26142 
26144 
26142 
26139 
26137 
26132 
26125 
26121 
26115 
26103 
26093 
26085 
26077 
26095 
26115 
26102 
26091 
26084 
26069 
26069 
26068 
26054 
26036 
26034 
26038 
26023 
26009 
26002 
25989 
25979 
25985 
25996 
25972 
25946 
25914 
25878 
25836 
25790 
25731 
25657 
25592 
25515 
25429 
25337 
25231 
25135 
25026 
24927 
24857 
24792 
24710 
24640 
24585 
24527 
24474 
24430 
24386 
24339 
24290 
24257 
24246 
24245 
24268 
24275 
24281 
24295 
24313 
24332 
24345 
24357 
24383 
24404 
24418 
24445 
24465 
24505 
24555 
24572 
24593 
24620 
24650 
24659 
24664 
24687 
24703 
24725 
24741 
24778 
24822 
24841 
24861 
24891 
24932 
24963 
24981 
25006 
25049 
25088 
25131 
25178 
25207 
25254 
25286 
25307 
25320 
25341 
25374 
25409 
25439 
25489 
25539 
25565 
25586 
25592 
25592 
25600 
25612 
25610 
25612 
25623 
25640 
25668 
25704 
25709 
25725 
25738 
25750 
25767 
25777 
25793 
25816 
25824 
25816 
25815 
25846 
25876 
25913 
25930 
25949 
25963 
25968 
25986 
26003 
26015 
26028 
26043 
26070 
26102 
26116 
26124 
26124 
26122 
26123 
26131 
26151 
26166 
26173 
26184 
26202 
26242 
26265 
26279 
26283 
26274 
26286 
26296 
26292 
26287 
26277 
26270 
26274 
26280 
26278 
26294 
26330 
26315 
26306 
26302 
26307 
26294 
26282 
26269 
26262 
26261 
26256 
26251 
26249 
26242 
26241 
26251 
26245 
26236 
26229 
26236 
26242 
26241 
26231 
26218 
26196 
26179 
26173 
26168 
26177 
26189 
26190 
26173 
26162 
26157 
26149 
26143 
26143 
26142 
26141 
26132 
26113 
26095 
26085 
26078 
26071 
26096 
26098 
26094 
26088 
26078 
26054 
26036 
26031 
26029 
26022 
26010 
25997 
25999 
25995 
25980 
25968 
25957 
25937 
25930 
25893 
25859 
25820 
25777 
25734 
25668 
25594 
25504 
25402 
25299 
25199 
25113 
25029 
24936 
24837 
24735 
24654 
24582 
24503 
24424 
24357 
24308 
24273 
24245 
24215 
24195 
24185 
24167 
24165 
24168 
24161 
24173 
24200 
24242 
24262 
24270 
24292 
24309 
24335 
24361 
24383 
24411 
24431 
24443 
24466 
24519 
24539 
24553 
24565 
24579 
24589 
24607 
24627 
24652 
24680 
24711 
24730 
24765 
24821 
24862 
24891 
24937 
24975 
25002 
25036 
25073 
25102 
25140 
25212 
25274 
25322 
25345 
25357 
25370 
25393 
25407 
25435 
25467 
25504 
25555 
25575 
25592 
25611 
25615 
25621 
25632 
25645 
25665 
25678 
25685 
25682 
25713 
25753 
25763 
25775 
25782 
25792 
25820 
25836 
25845 
25854 
25865 
25877 
25900 
25939 
25968 
25997 
26011 
26019 
26048 
26055 
26072 
26105 
26142 
26171 
26195 
26221 
26210 
26206 
26205 
26219 
26233 
26244 
26254 
26245 
26246 
26237 
26223 
26216 
26239 
26264 
26264 
26267 
26269 
26268 
26272 
26273 
26281 
26287 
26284 
26285 
26278 
26270 
26255 
26256 
26289 
26274 
26262 
26265 
26262 
26261 
26248 
26233 
26223 
26226 
26232 
26234 
26224 
26215 
26209 
26219 
26228 
26221 
26215 
26218 
26208 
26191 
26184 
26170 
26165 
26162 
26158 
26154 
26149 
26142 
26157 
26156 
26146 
26138 
26131 
26122 
26121 
26110 
26094 
26092 
26088 
26088 
26079 
26066 
26058 
26043 
26043 
26063 
26049 
26047 
26047 
26055 
26070 
26064 
26047 
26040 
26035 
26024 
26018 
26008 
26010 
26007 
25996 
25996 
26019 
26007 
25973 
25947 
25924 
25877 
25827 
25773 
25710 
25647 
25587 
25512 
25422 
25329 
25246 
25152 
25042 
24933 
24842 
24755 
24654 
24555 
24475 
24400 
24337 
24283 
24232 
24190 
24157 
24123 
24099 
24101 
24108 
24101 
24105 
24123 
24160 
24172 
24178 
24193 
24224 
24251 
24271 
24290 
24304 
24331 
24369 
24410 
24457 
24478 
24504 
24516 
24532 
24566 
24601 
24647 
24684 
24704 
24731 
24760 
24797 
24856 
24900 
24932 
24958 
24987 
25020 
25059 
25097 
25139 
25180 
25232 
25290 
25322 
25347 
25373 
25394 
25413 
25436 
25460 
25473 
25487 
25507 
25507 
25515 
25546 
25583 
25593 
25606 
25630 
25637 
25644 
25653 
25674 
25688 
25692 
25693 
25705 
25722 
25761 
25793 
25804 
25816 
25824 
25834 
25842 
25850 
25865 
25884 
25896 
25911 
25936 
25980 
26018 
26025 
26034 
26047 
26063 
26073 
26084 
26085 
26099 
26120 
26137 
26160 
26189 
26191 
26191 
26198 
26205 
26220 
26224 
26225 
26218 
26217 
26224 
26222 
26229 
26259 
26282 
26277 
26275 
26274 
26269 
26272 
26269 
26266 
26264 
26254 
26246 
26258 
26263 
26279 
26305 
26303 
26299 
26295 
26285 
26281 
26277 
26280 
26275 
26262 
26246 
26241 
26223 
26221 
26233 
26254 
26246 
26248 
26255 
26243 
26234 
26229 
26209 
26184 
26175 
26162 
26150 
26140 
26124 
26117 
26122 
26147 
26144 
26139 
26127 
26119 
26116 
26103 
26104 
26101 
26101 
26100 
26087 
26072 
26065 
26061 
26056 
26069 
26068 
26050 
26045 
26038 
26021 
26013 
26007 
26001 
25994 
25996 
25992 
25982 
25976 
25968 
25955 
25953 
25951 
25940 
25917 
25882 
25844 
25807 
25772 
25710 
25637 
25567 
25491 
25416 
25327 
25233 
25139 
25039 
24948 
24853 
24763 
24678 
24591 
24519 
24448 
24379 
24323 
24263 
24214 
24180 
24153 
24134 
24115 
24100 
24093 
24101 
24127 
24143 
24156 
24176 
24198 
24218 
24239 
24260 
24288 
24322 
24348 
24367 
24411 
24455 
24494 
24532 
24557 
24589 
24606 
24630 
24666 
24699 
24724 
24755 
24776 
24802 
24827 
24855 
24899 
24946 
24970 
24999 
25029 
25078 
25144 
25182 
25216 
25255 
25274 
25288 
25318 
25354 
25381 
25406 
25434 
25468 
25479 
25494 
25512 
25522 
25535 
25537 
25550 
25561 
25566 
25570 
25569 
25567 
25576 
25637 
25668 
25659 
25665 
25678 
25679 
25688 
25697 
25719 
25756 
25783 
25793 
25810 
25827 
25861 
25885 
25907 
25924 
25954 
25980 
26003 
26019 
26023 
26038 
26052 
26056 
26072 
26081 
26114 
26134 
26148 
26146 
26154 
26165 
26178 
26179 
26179 
26192 
26211 
26225 
26233 
26265 
26263 
26261 
26275 
26267 
26257 
26259 
26255 
26251 
26257 
26261 
26262 
26254 
26252 
26275 
26274 
26269 
26264 
26263 
26269 
26277 
26278 
26276 
26264 
26245 
26228 
26228 
26233 
26230 
26241 
26252 
26233 
26231 
26227 
26225 
26222 
26209 
26198 
26188 
26177 
26159 
26155 
26146 
26136 
26139 
26170 
26170 
26154 
26142 
26120 
26102 
26096 
26080 
26059 
26044 
26043 
26046 
26031 
26024 
26022 
26018 
26012 
26014 
26001 
25982 
25976 
25961 
25932 
25924 
25924 
25924 
25920 
25912 
25899 
25886 
25887 
25887 
25881 
25876 
25884 
25919 
25918 
25903 
25894 
25890 
25882 
25871 
25863 
25844 
25825 
25801 
25765 
25726 
25675 
25608 
25533 
25459 
25389 
25303 
25212 
25116 
25030 
24958 
24879 
24801 
24719 
24639 
24569 
24499 
24446 
24404 
24364 
24325 
24297 
24272 
24249 
24235 
24231 
24238 
24247 
24250 
24258 
24261 
24264 
24273 
24305 
24358 
24376 
24393 
24419 
24461 
24484 
24492 
24508 
24538 
24567 
24599 
24631 
24685 
24726 
24739 
24763 
24811 
24846 
24875 
24915 
24953 
24997 
25045 
25104 
25152 
25195 
25228 
25272 
25303 
25336 
25363 
25375 
25403 
25450 
25488 
25500 
25513 
25525 
25532 
25543 
25549 
25547 
25551 
25549 
25535 
25543 
25570 
25580 
25599 
25614 
25612 
25616 
25636 
25653 
25665 
25672 
25665 
25679 
25718 
25746 
25753 
25754 
25763 
25775 
25781 
25796 
25798 
25798 
25789 
25800 
25823 
25837 
25871 
25895 
25908 
25926 
25927 
25924 
25919 
25914 
25910 
25912 
25926 
25935 
25941 
25955 
25995 
26025 
26023 
26025 
26020 
26021 
26036 
26051 
26060 
26074 
26078 
26085 
26092 
26100 
26104 
26138 
26156 
26156 
