12423 
12458 
12484 
12476 
12494 
12453 
12392 
12411 
12458 
12403 
12382 
12431 
12467 
12442 
12422 
12475 
12489 
12438 
12438 
12423 
12406 
12407 
12398 
12447 
12477 
12419 
12390 
12375 
12417 
12408 
12381 
12383 
12370 
12358 
12402 
12420 
12429 
12411 
12364 
12442 
12385 
12440 
12428 
12386 
12382 
12406 
12413 
12417 
12383 
12471 
12459 
12370 
12366 
12437 
12439 
12424 
12419 
12363 
12448 
12441 
12425 
12417 
12394 
12420 
12406 
12431 
12417 
12391 
12440 
12392 
12378 
12439 
12407 
12391 
12402 
12431 
12429 
12427 
12364 
12396 
12455 
12427 
12411 
12442 
12428 
12416 
12460 
12434 
12466 
12457 
12478 
12454 
12505 
12497 
12474 
12453 
12464 
12372 
12367 
12419 
12396 
12363 
12349 
12363 
12356 
12340 
12352 
12320 
12342 
12320 
12361 
12358 
12364 
12338 
12268 
12273 
12377 
12485 
12719 
12996 
13105 
13124 
13120 
12965 
12645 
12450 
12446 
12453 
12489 
12423 
12397 
12446 
12411 
12371 
12389 
12396 
12380 
12439 
12456 
12381 
12402 
12422 
12398 
12406 
12476 
12457 
12405 
12399 
12374 
12428 
12474 
12500 
12512 
12534 
12534 
12521 
12550 
12543 
12546 
12605 
12602 
12635 
12658 
12617 
12625 
12632 
12628 
12656 
12675 
12620 
12598 
12695 
12756 
12783 
12770 
12817 
12806 
12807 
12869 
12927 
12928 
12888 
12877 
12904 
12924 
12858 
12871 
12837 
12818 
12818 
12751 
12500 
12410 
12443 
12400 
12333 
12371 
12425 
12383 
12296 
12292 
12348 
12347 
12318 
12306 
12298 
12319 
12318 
12280 
12271 
12240 
12270 
12256 
12313 
12287 
12262 
12269 
12282 
12295 
12344 
12362 
12328 
12251 
12307 
12390 
12365 
12346 
12354 
12354 
12344 
12368 
12513 
12578 
12550 
12479 
12429 
12435 
12407 
12410 
12405 
12416 
12386 
12351 
12329 
12355 
12411 
12396 
12378 
12372 
12369 
12333 
12354 
12374 
12379 
12323 
12340 
12381 
12385 
12373 
12356 
12350 
12329 
12336 
12323 
12279 
12346 
12335 
12335 
12294 
12330 
12329 
12305 
12289 
12259 
12276 
12280 
12280 
12300 
12268 
12335 
12306 
12290 
12284 
12286 
12283 
12284 
12311 
12357 
12263 
12257 
12270 
12286 
12299 
12278 
12306 
12254 
12315 
12290 
12264 
12295 
12293 
12267 
12290 
12272 
12294 
12273 
12234 
12268 
12329 
12333 
12362 
12335 
12295 
12306 
12321 
12363 
12344 
12367 
12336 
12273 
12251 
12254 
12228 
12242 
12238 
12265 
12207 
12202 
12219 
12205 
12210 
12176 
12180 
12168 
12210 
12224 
12159 
12130 
12224 
12352 
12479 
12752 
13017 
13101 
12996 
12833 
12544 
12300 
12307 
12289 
12255 
12241 
12302 
12293 
12239 
12203 
12272 
12274 
12227 
12277 
12247 
12207 
12237 
12253 
12242 
12256 
12265 
12275 
12253 
12211 
12271 
12317 
12298 
12271 
12312 
12272 
12227 
12253 
12241 
12229 
12297 
12324 
12290 
12401 
12368 
12316 
12383 
12435 
12364 
12380 
12439 
12441 
12416 
12457 
12487 
12558 
12487 
12504 
12554 
12562 
12517 
12589 
12667 
12685 
12655 
12607 
12666 
12632 
12691 
12689 
12661 
12621 
12572 
12516 
12504 
12451 
12417 
12407 
12377 
12346 
12291 
12265 
12263 
12249 
12259 
12227 
12205 
12220 
12250 
12238 
12157 
12189 
12238 
12214 
12216 
12213 
12198 
12231 
12246 
12224 
12199 
12200 
12259 
12250 
12295 
12270 
12291 
12313 
12234 
12202 
12214 
12225 
12229 
12225 
12240 
12234 
12273 
12297 
12285 
12250 
12256 
12287 
12275 
12263 
12227 
12199 
12296 
12308 
12328 
12293 
12288 
12273 
12292 
12268 
12170 
12178 
12195 
12239 
12228 
12191 
12256 
12217 
12195 
12214 
12257 
12244 
12204 
12203 
12264 
12288 
12278 
12294 
12220 
12219 
12238 
12150 
12185 
12205 
12197 
12225 
12219 
12249 
12225 
12201 
12188 
12218 
12210 
12214 
12236 
12264 
12255 
12186 
12240 
12257 
12258 
12236 
12235 
12214 
12266 
12319 
12295 
12283 
12256 
12177 
12219 
12255 
12329 
12281 
12320 
12346 
12363 
12379 
12408 
12382 
12376 
12364 
12375 
12400 
12356 
12299 
12239 
12241 
12277 
12277 
12253 
12237 
12203 
12202 
12175 
12187 
12175 
12186 
12207 
12199 
12118 
12174 
12194 
12190 
12230 
12168 
12147 
12201 
12351 
12570 
12809 
13002 
13030 
12938 
12729 
12387 
12157 
12165 
12178 
12207 
12205 
12220 
12258 
12170 
12182 
12253 
12251 
12219 
12271 
12240 
12223 
12264 
12316 
12257 
12231 
12256 
12302 
12280 
12308 
12258 
12278 
12280 
12367 
12326 
12254 
12276 
12299 
12346 
12342 
12342 
12344 
12358 
12387 
12392 
12387 
12402 
12391 
12405 
12418 
12425 
12437 
12456 
12519 
12518 
12512 
12571 
12592 
12670 
12637 
12621 
12642 
12618 
12703 
12698 
12749 
12741 
12719 
12709 
12694 
12660 
12662 
12609 
12590 
12639 
12575 
12525 
12481 
12375 
12379 
12370 
12346 
12339 
12312 
12324 
12310 
12305 
12276 
12303 
12284 
12303 
12346 
12322 
12276 
12229 
12239 
12223 
12194 
12256 
12267 
12295 
12312 
12243 
12191 
12260 
12223 
12287 
12266 
12239 
12251 
12271 
12277 
12297 
12266 
12251 
12282 
12304 
12267 
12253 
12214 
12223 
12212 
12274 
12285 
12232 
12250 
12192 
12209 
12263 
12274 
12270 
12249 
12233 
12249 
12252 
12211 
12139 
12213 
12220 
12191 
12169 
12185 
12201 
12170 
12158 
12204 
12213 
12214 
12249 
12241 
12225 
12206 
12260 
12235 
12216 
12191 
12155 
12208 
12178 
12162 
12178 
12194 
12222 
12166 
12189 
12153 
12181 
12210 
12180 
12231 
12249 
12204 
12152 
12258 
12254 
12194 
12201 
12168 
12250 
12238 
12260 
12239 
12243 
12281 
12254 
12228 
12253 
12251 
12238 
12235 
12236 
12262 
12269 
12258 
12283 
12331 
12329 
12241 
12220 
12150 
12209 
12226 
12197 
12181 
12205 
12205 
12255 
12225 
12109 
12137 
12123 
12139 
12170 
12179 
12168 
12122 
12108 
12077 
12072 
12165 
12424 
12701 
12885 
12920 
12919 
12790 
12576 
12279 
12231 
12290 
12315 
12270 
12256 
12258 
12292 
12239 
12217 
12237 
12241 
12214 
12222 
12217 
12231 
12203 
12231 
12259 
12260 
12179 
12208 
12275 
12275 
12214 
12286 
12334 
12283 
12273 
12289 
12302 
12277 
12312 
12308 
12336 
12356 
12412 
12335 
12337 
12371 
12406 
12410 
12387 
12379 
12431 
12445 
12456 
12488 
12569 
12495 
12522 
12523 
12584 
12641 
12634 
12667 
12690 
12672 
12634 
12688 
12734 
12713 
12681 
12651 
12645 
12593 
12562 
12536 
12506 
12388 
12360 
12338 
12344 
12289 
12226 
12252 
12252 
12303 
12266 
12183 
12161 
12190 
12194 
12187 
12160 
12121 
12183 
12234 
12211 
12206 
12229 
12220 
12185 
12193 
12239 
12274 
12218 
12229 
12275 
12214 
12177 
12176 
12244 
12277 
12218 
12230 
12212 
12168 
12166 
12172 
12160 
12219 
12246 
12228 
12233 
12190 
12157 
12159 
12218 
12256 
12219 
12144 
12157 
12199 
12181 
12113 
12102 
12155 
12168 
12135 
12134 
12148 
12133 
12121 
12103 
12080 
12125 
12146 
12167 
12166 
12155 
12142 
12071 
12104 
12154 
12188 
12160 
12107 
12133 
12142 
12132 
12168 
12204 
12130 
12119 
12140 
12130 
12145 
12099 
12091 
12111 
12159 
12181 
12181 
12170 
12122 
12137 
12104 
12119 
12148 
12191 
12149 
12177 
12150 
12129 
12113 
12196 
12182 
12178 
12189 
12218 
12231 
12182 
12132 
12186 
12235 
12317 
12187 
12144 
12246 
12242 
12200 
12199 
12171 
12129 
12119 
12123 
12077 
12135 
12199 
12150 
12153 
12146 
12060 
12038 
12079 
12094 
12107 
12041 
11983 
11991 
12080 
12200 
12475 
12802 
12945 
12963 
12860 
12672 
12297 
12149 
12185 
12196 
12176 
12190 
12164 
12134 
12174 
12142 
12096 
12121 
12108 
12119 
12097 
12052 
12136 
12212 
12183 
12133 
12153 
12149 
12105 
12168 
12172 
12182 
12164 
12197 
12193 
12211 
12191 
12204 
12223 
12255 
12238 
12223 
12207 
12231 
12238 
12288 
12293 
12321 
12302 
12267 
12261 
12293 
12406 
12416 
12447 
12493 
12464 
12459 
12516 
12521 
12488 
12535 
12565 
12566 
12598 
12674 
12644 
12638 
12696 
12683 
12644 
12568 
12519 
12456 
12389 
12372 
12366 
12333 
12310 
12214 
12218 
12219 
12219 
12168 
12138 
12177 
12221 
12264 
12199 
12142 
12129 
12169 
12212 
12258 
12192 
12191 
12178 
12201 
12219 
12197 
12248 
12225 
12211 
12217 
12168 
12203 
12241 
12203 
12171 
12231 
12240 
12171 
12128 
12221 
12206 
12219 
12214 
12180 
12260 
12304 
12238 
12236 
12267 
12195 
12115 
12199 
12215 
12177 
12206 
12177 
12190 
12228 
12199 
12147 
12127 
12146 
12197 
12227 
12202 
12204 
12206 
12193 
12199 
12228 
12182 
12183 
12208 
12202 
12178 
12204 
12205 
12222 
12226 
12173 
12198 
12234 
12273 
12255 
12233 
12264 
12275 
12274 
12206 
12180 
12123 
12174 
12205 
12152 
12174 
12172 
12174 
12158 
12152 
12209 
12163 
12135 
12134 
12197 
12162 
12174 
12219 
12225 
12250 
12228 
12233 
12302 
12333 
12257 
12287 
12384 
12326 
12342 
12316 
12339 
12316 
12333 
12343 
12283 
12288 
12267 
12234 
12282 
12284 
12246 
12246 
12266 
12264 
12276 
12277 
12278 
12306 
12284 
12233 
12239 
12251 
12319 
12350 
12554 
12766 
13031 
13180 
13222 
13146 
12975 
12639 
12410 
12402 
12480 
12487 
12423 
12440 
12426 
12383 
12302 
12292 
12337 
12370 
12370 
12368 
12321 
12325 
12319 
12317 
12344 
12353 
12326 
12348 
12426 
12419 
12396 
12410 
12404 
12431 
12419 
12399 
12418 
12435 
12476 
12480 
12454 
12460 
12451 
12476 
12476 
12516 
12538 
12539 
12580 
12508 
12557 
12652 
12623 
12721 
12786 
12726 
12733 
12795 
12843 
12850 
12808 
12804 
12901 
12905 
12863 
12857 
12863 
12909 
12857 
12828 
12841 
12837 
12789 
12765 
12684 
12596 
12596 
12534 
12529 
12546 
12518 
12501 
12400 
12421 
12411 
12397 
12438 
12464 
12445 
12455 
12479 
12438 
12438 
12409 
12384 
12479 
12516 
12487 
12472 
12464 
12435 
12439 
12470 
12482 
12457 
12478 
12466 
12449 
12489 
12511 
12451 
12462 
12469 
12454 
12456 
12510 
12571 
12544 
12508 
12523 
12527 
12538 
12477 
12484 
12463 
12499 
12503 
12477 
12533 
12553 
12565 
12542 
12491 
12479 
12545 
12556 
12566 
12600 
12589 
12563 
12564 
12544 
12590 
12544 
12587 
12561 
12582 
12543 
12486 
12559 
12571 
12525 
12557 
12533 
12514 
12515 
12584 
12653 
12596 
12576 
12604 
12648 
12611 
12529 
12589 
12615 
12555 
12614 
12553 
12563 
12566 
12664 
12673 
12638 
12581 
12639 
12679 
12717 
12664 
12581 
12677 
12642 
12633 
12611 
12617 
12582 
12570 
12634 
12649 
12556 
12549 
12576 
12616 
12615 
12631 
12602 
12642 
12682 
12652 
12600 
12598 
12644 
12752 
12921 
13166 
13307 
13295 
13253 
13071 
12803 
12576 
12593 
12676 
12734 
12676 
12763 
12861 
12823 
12731 
12718 
12791 
12827 
12821 
12843 
12873 
12820 
12816 
12900 
12913 
12906 
12902 
12873 
12922 
12964 
12935 
12925 
12906 
12952 
13003 
12980 
13021 
13039 
13030 
13040 
13020 
13024 
13138 
13141 
13181 
13210 
13188 
13194 
13266 
13279 
13278 
13316 
13342 
13282 
13307 
13377 
13442 
13499 
13529 
13532 
13512 
13551 
13546 
13597 
13628 
13658 
13650 
13604 
13583 
13604 
13603 
13533 
13463 
13494 
13373 
13340 
13354 
13340 
13260 
13222 
13201 
13229 
13226 
13241 
13239 
13201 
13184 
13203 
13230 
13180 
13172 
13172 
13181 
13185 
13219 
13228 
13211 
13180 
13206 
13224 
13276 
13300 
13238 
13214 
13252 
13227 
13218 
13223 
13217 
13260 
13222 
13216 
13259 
13272 
13278 
13281 
13259 
13269 
13250 
13295 
13331 
13311 
13283 
13319 
13329 
13317 
13341 
13292 
13327 
13325 
13320 
13322 
13269 
13238 
13303 
13294 
13277 
13348 
13354 
13325 
13303 
13344 
13340 
13314 
13247 
13308 
13294 
13292 
13302 
13276 
13292 
13366 
13374 
13357 
13362 
13387 
13392 
13414 
13400 
13383 
13353 
13359 
13345 
13378 
13341 
13342 
13343 
13319 
13292 
13281 
13319 
13320 
13361 
13349 
13345 
13395 
13416 
13373 
13404 
13340 
13393 
13414 
13358 
13398 
13416 
13348 
13329 
13308 
13314 
13310 
13305 
13298 
13335 
13343 
13299 
13260 
13297 
13303 
13255 
13298 
13300 
13225 
13216 
13290 
13397 
13581 
13853 
14096 
14223 
14190 
14045 
13967 
13637 
13423 
13439 
13493 
13481 
13491 
13473 
13478 
13452 
13441 
13425 
13377 
13437 
13555 
13508 
13468 
13446 
13469 
13514 
13472 
13524 
13601 
13579 
13508 
13487 
13564 
13555 
13560 
13553 
13537 
13576 
13606 
13589 
13612 
13616 
13600 
13598 
13644 
13679 
13644 
13648 
13581 
13656 
13697 
13672 
13737 
13845 
13872 
13838 
13861 
13886 
13909 
13977 
13962 
13953 
14007 
14034 
13983 
14040 
14079 
14129 
14106 
14095 
14021 
14000 
13992 
13950 
13908 
13937 
13877 
13806 
13788 
13752 
13689 
13688 
13682 
13723 
13713 
13687 
13692 
13638 
13630 
13638 
13642 
13666 
13622 
13597 
13626 
13632 
13632 
13594 
13595 
13624 
13613 
13559 
13577 
13580 
13625 
13650 
13629 
13689 
13722 
13672 
13665 
13619 
13681 
13732 
13695 
13671 
13669 
13682 
13653 
13624 
13627 
13673 
13648 
13641 
13671 
13639 
13586 
13635 
13692 
13686 
13634 
13683 
13652 
13657 
13668 
13650 
13691 
13685 
13670 
13672 
13670 
13670 
13686 
13659 
13648 
13698 
13763 
13752 
13727 
13685 
13670 
13709 
13675 
13659 
13699 
13718 
13677 
13726 
13739 
13657 
13668 
13702 
13683 
13712 
13700 
13690 
13709 
13736 
13702 
13707 
13720 
13759 
13688 
13702 
13735 
13698 
13713 
13701 
13735 
13776 
13772 
13784 
13758 
13825 
13883 
13864 
13899 
13881 
13903 
13887 
13941 
13960 
13959 
13955 
14023 
13998 
14012 
14049 
14046 
14024 
14068 
14075 
14070 
14122 
14117 
14055 
14144 
14149 
14040 
14037 
14128 
14333 
14622 
14864 
14999 
15028 
14927 
14741 
14487 
14236 
14257 
14271 
14285 
14314 
14374 
14336 
14309 
14320 
14335 
14350 
14393 
14381 
14419 
14442 
14468 
14472 
14438 
14446 
14434 
14462 
14490 
14491 
14487 
14548 
14569 
14583 
14641 
14571 
14569 
14581 
14609 
14674 
14619 
14631 
14643 
14658 
14701 
14758 
14727 
14770 
14755 
14776 
14818 
14875 
14924 
14928 
14943 
14938 
14934 
14950 
14961 
14973 
14985 
14996 
14957 
14993 
15027 
15009 
15037 
15044 
15004 
15008 
15029 
14965 
15006 
14995 
14941 
14901 
14840 
14802 
14790 
14760 
14683 
14683 
14704 
14714 
14707 
14698 
14623 
14639 
14608 
14627 
14668 
14647 
14610 
14594 
14691 
14675 
14645 
14652 
14630 
14632 
14634 
14616 
14640 
14653 
14602 
14658 
14641 
14655 
14654 
14634 
14633 
14620 
14644 
14701 
14672 
14718 
14702 
14697 
14678 
14705 
14770 
14737 
14673 
14717 
14688 
14672 
14742 
14706 
14718 
14705 
14728 
14777 
14755 
14737 
14782 
14763 
14708 
14733 
14759 
14770 
14761 
14760 
14703 
14715 
14755 
14763 
14757 
14769 
14756 
14751 
14750 
14756 
14745 
14776 
14835 
14837 
14802 
14859 
14920 
14886 
14817 
14792 
14852 
14854 
14850 
14832 
14852 
14867 
14888 
14831 
14869 
14875 
14868 
14881 
14877 
14861 
14863 
14869 
14873 
14887 
14884 
14856 
14893 
14884 
14897 
14868 
14924 
14983 
14961 
14997 
15010 
15020 
15021 
14994 
14995 
14988 
15010 
15029 
14972 
14936 
14919 
14877 
14957 
14945 
14886 
14927 
14936 
14955 
14929 
14912 
14875 
14860 
14925 
14940 
14943 
14953 
14924 
14880 
14882 
15033 
15182 
15431 
15695 
15696 
15628 
15572 
15426 
15106 
15036 
15121 
15156 
15152 
15123 
15155 
15191 
15192 
15183 
15250 
15304 
15371 
15337 
15286 
15354 
15325 
15329 
15357 
15374 
15377 
15366 
15370 
15358 
15379 
15357 
15347 
15392 
15407 
15385 
15353 
15353 
15345 
15359 
15387 
15392 
15382 
15370 
15440 
15463 
15442 
15482 
15469 
15501 
15524 
15549 
15543 
15560 
15619 
15641 
15641 
15629 
15618 
15588 
15607 
15623 
15610 
15642 
15633 
15569 
15589 
15609 
15601 
15530 
15497 
15450 
15374 
15305 
15233 
15198 
15160 
15044 
15005 
15001 
14961 
14942 
14894 
14885 
14833 
14808 
14799 
14795 
14741 
14700 
14651 
14612 
14544 
14601 
14656 
14666 
14628 
14546 
14497 
14519 
14503 
14546 
14440 
14340 
14383 
14388 
14353 
14390 
14411 
14333 
14232 
14130 
14111 
14230 
14248 
14277 
14274 
14275 
14308 
14145 
14137 
14181 
14192 
14114 
14229 
14368 
14358 
14310 
14184 
14029 
13854 
13734 
13795 
13581 
13456 
13554 
13412 
13387 
13283 
13355 
13389 
13279 
13412 
13111 
12882 
12830 
12655 
12412 
12207 
11953 
11886 
11898 
11951 
12083 
12241 
12263 
12286 
12219 
12178 
12212 
12213 
12342 
12557 
12710 
12952 
13141 
13322 
13520 
13651 
13730 
13881 
13997 
14105 
14168 
14261 
14344 
14365 
14398 
14495 
14530 
14574 
14641 
14749 
14719 
14714 
14681 
14774 
14940 
14938 
14896 
14941 
14984 
15132 
15130 
15048 
15088 
15200 
15357 
15618 
15915 
16070 
16093 
16069 
15975 
15714 
15496 
15558 
15609 
15610 
15552 
15567 
15606 
15674 
15688 
15698 
15717 
15754 
15694 
15697 
15727 
15760 
15794 
15760 
15803 
15853 
15811 
15811 
15821 
15873 
15882 
15865 
15900 
15876 
15952 
16008 
15985 
15951 
15999 
16005 
16017 
16097 
16113 
16134 
16158 
16150 
16185 
16272 
16315 
16254 
16327 
16379 
16378 
16416 
16497 
16543 
16636 
16620 
16605 
16656 
16748 
16782 
16838 
16882 
16994 
17016 
17014 
17124 
17193 
17193 
17090 
17070 
17034 
16939 
16940 
16920 
16872 
16827 
16832 
16760 
16767 
16827 
16807 
16795 
16723 
16677 
16684 
16765 
16749 
16683 
16640 
16535 
16423 
16438 
16443 
16382 
16272 
16205 
16305 
16416 
16311 
16208 
16188 
16169 
16123 
16120 
16121 
16116 
16044 
15940 
15863 
15877 
15903 
15912 
15880 
15779 
15634 
15671 
15775 
15766 
15755 
15727 
15715 
15741 
15708 
15606 
15669 
15743 
15768 
15698 
15676 
15653 
15742 
15743 
15739 
15752 
15756 
15797 
15745 
15786 
15836 
15875 
15834 
15847 
15867 
15851 
15890 
15953 
16030 
15986 
16032 
16081 
16033 
16074 
16117 
16145 
16177 
16171 
16114 
16110 
16087 
16083 
16138 
16192 
16220 
16239 
16295 
16336 
16303 
16249 
16260 
16309 
16310 
16335 
16349 
16350 
16375 
16491 
16426 
16372 
16410 
16421 
16434 
16468 
16484 
16436 
16375 
16315 
16335 
16343 
16424 
16555 
16651 
16645 
16589 
16547 
16469 
16468 
16563 
16651 
16623 
16537 
16476 
16444 
16514 
16481 
16530 
16456 
16426 
16424 
16442 
16508 
16556 
16580 
16523 
16367 
16323 
16478 
16509 
16466 
16585 
16707 
16922 
17284 
17518 
17585 
17489 
17357 
17000 
16775 
16775 
16816 
16780 
16740 
16715 
16817 
16739 
16626 
16776 
16885 
16838 
16779 
16660 
16788 
17130 
17026 
16921 
17003 
16954 
16909 
16976 
16977 
16989 
16989 
16970 
16852 
16987 
17040 
17078 
17083 
17022 
17045 
17144 
17168 
17147 
17138 
17034 
17201 
17201 
17168 
17355 
17273 
17185 
17226 
17336 
17388 
17325 
17331 
17352 
17465 
17551 
17685 
17462 
17590 
17618 
17632 
17759 
17693 
17579 
17630 
17646 
17603 
17708 
17536 
17526 
17448 
17431 
17586 
17616 
17488 
17357 
17570 
17624 
17465 
17244 
17183 
17298 
17297 
17200 
17108 
16904 
16887 
16932 
17050 
16953 
17047 
17001 
17042 
16967 
16926 
16984 
16926 
16914 
16848 
16870 
17039 
17017 
16843 
16878 
16841 
16786 
16926 
16965 
16936 
16943 
16930 
16823 
16746 
16860 
16977 
16949 
17004 
16938 
17062 
16977 
16743 
16878 
16888 
17018 
16934 
16883 
16971 
17015 
16853 
17046 
17075 
16898 
16674 
16961 
17324 
17281 
17169 
17102 
17137 
17182 
17225 
17046 
17047 
17075 
17041 
16880 
16954 
17106 
16975 
17086 
17263 
17069 
16938 
17213 
17025 
17072 
17159 
17014 
16941 
17056 
17269 
17152 
17043 
17169 
17249 
17263 
17307 
17213 
17324 
17345 
17429 
17322 
17250 
17239 
17312 
17412 
17464 
17227 
17106 
17145 
17106 
17167 
17471 
17528 
17416 
17640 
17307 
17280 
17315 
17302 
17362 
17713 
17743 
17714 
17473 
17392 
17306 
17384 
17499 
17504 
17396 
17440 
17482 
17447 
17328 
17160 
17031 
16923 
16826 
16718 
16485 
16415 
16416 
16414 
16270 
15867 
15577 
15713 
15862 
15930 
15913 
15770 
15663 
15708 
15939 
16206 
16513 
16874 
17057 
17080 
17146 
17191 
16789 
16410 
16415 
16278 
16269 
16142 
16201 
16137 
15927 
15663 
15292 
15006 
14520 
14255 
13911 
13461 
13601 
13762 
13799 
14095 
14756 
15079 
15341 
15535 
15758 
15992 
16187 
16354 
16546 
16834 
17039 
17291 
17144 
17084 
16945 
16906 
16910 
16961 
16999 
16950 
16867 
16973 
17207 
17299 
17258 
17380 
17499 
17588 
17620 
17565 
17596 
17582 
17507 
17503 
17475 
17528 
17525 
17694 
17808 
17841 
17915 
18088 
18148 
18191 
18274 
18230 
18207 
18084 
18066 
18043 
18012 
18032 
17922 
17846 
17721 
17618 
17551 
17516 
17693 
17828 
17843 
17766 
17760 
17667 
17801 
17780 
17779 
17770 
17663 
17531 
17464 
17499 
17451 
17303 
17149 
17089 
17081 
17244 
17531 
17706 
17750 
17791 
17819 
17914 
18061 
18128 
18200 
18225 
18282 
18235 
18136 
18197 
18313 
18322 
18268 
18156 
18209 
18222 
18148 
18203 
18139 
18089 
18177 
18145 
18208 
18245 
18258 
18270 
18297 
18334 
18322 
18293 
18409 
18383 
18276 
18266 
18194 
18240 
18209 
18190 
18176 
18153 
18087 
18107 
18064 
18036 
17971 
17874 
17825 
17869 
17870 
17820 
17862 
17803 
17732 
17752 
17722 
17733 
17839 
17963 
17891 
17768 
17565 
17641 
17713 
17595 
17482 
17371 
17313 
17302 
17249 
17213 
17123 
17049 
17061 
17007 
17034 
17046 
17049 
17029 
17039 
17005 
17042 
17153 
17366 
17717 
17967 
17975 
17757 
17572 
17476 
17215 
17125 
17049 
17061 
17159 
17097 
17114 
17124 
17265 
17123 
17084 
17136 
17121 
17165 
17192 
17170 
17260 
17377 
17335 
17361 
17364 
17395 
17334 
17334 
17307 
17366 
17480 
17417 
17353 
17376 
17407 
17519 
17514 
17443 
17465 
17544 
17572 
17557 
17539 
17572 
17504 
17546 
17521 
17538 
17662 
17653 
17591 
17698 
17771 
17881 
17933 
17886 
17828 
17897 
17947 
17997 
18092 
18120 
18191 
18148 
18042 
18169 
18245 
18173 
18102 
17990 
18047 
18045 
17941 
17886 
17921 
17956 
17750 
17707 
17859 
17885 
17861 
17797 
17791 
17835 
17824 
17857 
17896 
17924 
17956 
17942 
17961 
17904 
17937 
17963 
17931 
17951 
18005 
17984 
18050 
18003 
17821 
17899 
17929 
17954 
17964 
17925 
17912 
17938 
17959 
17939 
17970 
18065 
18034 
17958 
17871 
17890 
17896 
17879 
17853 
17900 
17853 
17795 
17747 
17756 
17728 
17747 
17709 
17720 
17712 
17680 
17632 
17633 
17661 
17723 
17679 
17729 
17715 
17681 
17735 
17720 
17793 
17736 
17679 
17731 
17738 
17689 
17737 
17720 
17813 
17747 
17696 
17730 
17741 
17782 
17737 
17804 
17791 
17774 
17794 
17825 
17784 
17795 
17777 
17786 
17814 
17832 
17839 
17816 
17823 
17852 
17862 
17871 
17780 
17772 
17868 
17941 
17900 
17942 
17965 
17922 
17889 
17890 
17948 
18008 
17976 
17918 
17887 
17888 
17920 
17938 
17854 
17948 
17922 
17921 
17928 
17926 
17878 
17911 
17882 
17894 
17923 
17889 
17915 
17877 
17810 
17772 
17805 
17883 
18035 
18311 
18593 
18695 
18712 
18611 
18417 
18089 
17972 
17929 
17953 
17963 
17917 
17879 
17835 
17814 
17832 
17828 
17845 
17804 
17809 
17783 
17778 
17768 
17779 
17811 
17801 
17841 
17839 
17860 
17838 
17753 
17764 
17790 
17799 
17828 
17784 
17783 
17771 
17810 
17786 
17786 
17820 
17785 
17822 
17824 
17849 
17869 
17904 
17884 
17879 
17911 
17893 
17857 
17899 
17918 
17914 
17978 
18011 
18034 
18058 
18012 
18034 
18112 
18154 
18123 
18125 
18162 
18143 
18102 
18086 
18060 
18034 
17988 
17953 
17928 
17851 
17825 
17785 
17768 
17726 
17648 
17608 
17615 
17601 
17640 
17622 
17591 
17521 
17532 
17520 
17531 
17557 
17605 
17561 
17597 
17641 
17584 
17555 
17579 
17585 
17578 
17555 
17562 
17545 
17453 
17583 
17590 
17566 
17547 
17524 
17521 
17542 
17506 
17539 
17529 
17498 
17509 
17527 
17542 
17505 
17500 
17536 
17518 
17491 
17477 
17499 
17440 
17442 
17495 
17477 
17485 
17465 
17484 
17453 
17452 
17477 
17437 
17433 
17386 
17366 
17402 
17372 
17372 
17340 
17375 
17350 
17360 
17310 
17345 
17326 
17333 
17309 
17298 
17346 
17326 
17299 
17283 
17310 
17323 
17347 
17307 
17301 
17296 
17312 
17259 
17326 
17320 
17279 
17295 
17314 
17316 
17249 
17266 
17271 
17287 
17253 
17246 
17247 
17290 
17281 
17294 
17265 
17247 
17243 
17258 
17258 
17261 
17286 
17295 
17291 
17297 
17324 
17260 
17321 
17286 
17277 
17274 
17229 
17244 
17271 
17241 
17211 
17189 
17195 
17186 
17172 
17133 
17124 
17128 
17128 
17093 
17087 
17100 
17108 
17062 
17044 
17006 
17021 
17075 
17186 
17466 
17799 
17890 
17909 
17867 
17731 
17442 
17204 
17213 
17197 
17155 
17128 
17153 
17133 
17129 
17137 
17082 
17117 
17132 
17079 
17129 
17113 
17125 
17132 
17134 
17146 
17122 
17115 
17138 
17182 
17148 
17171 
17161 
17192 
17217 
17196 
17152 
17153 
17216 
17213 
17212 
17192 
17276 
17259 
17266 
17231 
17261 
17309 
17305 
17317 
17330 
17357 
17362 
17379 
17400 
17416 
17430 
17482 
17501 
17485 
17475 
17501 
17550 
17581 
17600 
17563 
17593 
17598 
17578 
17565 
17562 
17563 
17514 
17405 
17395 
17374 
17335 
17276 
17289 
17291 
17258 
17211 
17206 
17199 
17172 
17193 
17212 
17206 
17152 
17150 
17119 
17163 
17157 
17155 
17134 
17152 
17160 
17157 
17125 
17089 
17142 
17139 
17113 
17101 
17119 
17099 
17094 
17101 
17084 
17125 
17130 
17133 
17126 
17152 
17190 
17197 
17147 
17122 
17125 
17114 
17080 
17083 
17101 
17104 
17088 
17090 
17097 
17078 
17038 
17053 
17084 
17056 
17057 
17033 
17050 
17120 
17083 
17031 
17041 
17083 
17060 
17063 
17027 
17029 
17062 
17031 
17069 
17064 
17017 
17010 
17008 
17015 
17011 
17046 
16980 
16957 
17038 
16991 
17036 
17031 
17019 
17059 
17085 
17065 
17082 
17050 
17065 
17066 
17062 
17045 
17040 
17060 
17091 
16967 
16961 
17005 
17025 
17067 
17014 
16951 
16986 
16982 
16948 
16990 
16999 
16975 
16974 
16995 
17019 
17126 
17010 
16909 
16890 
16949 
17072 
17230 
17443 
17667 
17700 
17642 
17493 
17360 
17093 
16915 
16940 
16956 
16975 
16958 
17005 
16994 
16954 
16968 
16948 
16978 
16958 
16979 
17001 
17020 
17009 
17005 
17014 
17009 
16973 
16993 
16970 
16970 
16993 
16976 
16952 
16936 
16992 
16987 
16999 
17010 
17044 
17088 
17013 
17010 
17052 
17079 
17077 
17078 
17143 
17172 
17109 
17133 
17149 
17151 
17106 
17147 
17118 
17103 
17139 
17145 
17194 
17204 
17219 
17197 
17183 
17146 
17199 
17221 
17179 
17173 
17161 
17125 
17099 
17098 
17104 
17042 
16961 
16943 
16891 
16913 
16907 
16882 
16873 
16890 
16806 
16825 
16833 
16849 
16827 
16835 
16862 
16835 
16822 
16787 
16777 
16798 
16849 
16824 
16801 
16796 
16874 
16855 
16857 
16816 
16809 
16833 
16816 
16809 
16769 
16728 
16792 
16771 
16728 
16780 
16759 
16768 
16787 
16762 
16748 
16783 
16798 
16776 
16752 
16753 
16720 
16766 
16764 
16760 
16764 
16758 
16754 
16827 
16863 
16822 
16840 
16859 
16873 
16928 
16976 
16917 
16887 
16920 
16893 
16938 
16913 
16935 
16924 
16930 
16931 
16959 
16890 
16889 
16914 
16886 
16885 
16926 
16900 
16858 
16920 
16853 
16859 
16864 
16846 
16759 
16798 
16815 
16836 
16829 
16827 
16814 
16808 
16810 
16839 
16847 
16830 
16814 
16751 
16772 
16817 
16865 
16860 
16811 
16777 
16766 
16746 
16763 
16758 
16741 
16795 
16743 
16776 
16721 
16743 
16765 
16760 
16763 
16773 
16762 
16719 
16688 
16657 
16642 
16756 
16933 
17078 
17297 
17503 
17640 
17555 
17402 
17184 
16964 
16902 
16890 
16804 
16798 
16831 
16798 
16780 
16814 
16751 
16729 
16719 
16708 
16734 
16778 
16759 
16758 
16801 
16729 
16751 
16794 
16839 
16833 
16763 
16772 
16796 
16791 
16818 
16772 
16773 
16770 
16795 
16811 
16808 
16872 
16807 
16816 
16904 
16883 
16818 
16816 
16849 
16852 
16960 
16920 
16906 
16928 
17005 
17006 
16993 
17029 
17055 
17041 
17074 
17099 
17155 
17145 
17156 
17245 
17172 
17186 
17164 
17183 
17181 
17157 
17113 
17144 
17065 
17038 
16989 
16958 
16927 
16892 
16823 
16809 
16805 
16788 
16761 
16736 
16744 
16806 
16806 
16748 
16738 
16795 
16762 
16731 
16685 
16681 
16680 
16765 
16707 
16733 
16746 
16727 
16739 
16752 
16727 
16699 
16743 
16800 
16774 
16742 
16688 
16682 
16767 
16713 
16648 
16712 
16752 
16739 
16701 
16650 
16698 
16732 
16656 
16675 
16743 
16766 
16726 
16721 
16744 
16727 
16702 
16738 
16744 
16715 
16692 
16717 
16668 
16673 
16716 
16667 
16707 
16676 
16689 
16729 
16749 
16687 
16685 
16733 
16721 
16723 
16696 
16732 
16753 
16695 
16718 
16727 
16700 
16731 
16696 
16728 
16737 
16751 
16757 
16711 
16709 
16725 
16730 
16715 
16748 
16773 
16754 
16778 
16806 
16852 
16820 
16789 
16804 
16908 
16838 
16804 
16840 
16868 
16775 
16812 
16815 
16733 
16755 
16769 
16785 
16763 
16766 
16782 
16795 
16789 
16767 
16804 
16786 
16743 
16718 
16739 
16733 
16690 
16641 
16689 
16875 
17151 
17358 
17540 
17646 
17555 
17357 
17102 
16843 
16836 
16809 
16809 
16826 
16829 
16794 
16782 
16765 
16782 
16755 
16786 
16783 
16799 
16780 
16746 
16776 
16810 
16786 
16844 
16834 
16800 
16827 
16807 
16813 
16810 
16839 
16831 
16849 
16864 
16813 
16802 
16886 
16897 
16884 
16880 
16919 
16947 
16941 
16942 
16901 
16975 
17018 
17033 
17103 
17077 
17091 
17085 
17141 
17163 
17180 
17188 
17187 
17208 
17248 
17261 
17308 
17326 
17293 
17333 
17303 
17284 
17275 
17308 
17275 
17256 
17186 
17123 
17083 
17054 
16989 
16950 
16934 
16914 
16906 
16865 
16814 
16837 
16844 
16841 
16894 
16826 
16826 
16774 
16806 
16791 
16814 
16871 
16846 
16800 
16815 
16885 
16868 
16857 
16819 
16798 
16842 
16883 
16857 
16813 
16883 
16912 
16936 
16873 
16875 
16844 
16843 
16901 
16948 
16871 
16850 
16864 
16867 
16900 
16902 
16885 
16889 
16885 
16869 
16855 
16857 
16855 
16869 
16845 
16912 
16911 
16922 
16896 
16909 
16882 
16822 
16890 
16941 
16890 
16880 
16916 
16929 
16903 
16879 
16850 
16888 
16925 
16898 
16897 
16901 
16902 
16860 
16841 
16893 
16912 
16928 
16910 
16860 
16920 
16951 
16914 
16899 
16941 
16988 
16968 
16956 
16955 
16962 
16957 
16891 
16888 
16896 
16909 
16876 
16833 
16854 
16875 
16836 
16849 
16856 
16907 
16931 
16817 
16893 
16878 
16849 
16866 
16839 
16830 
16806 
16904 
17084 
17308 
17533 
17607 
17605 
17478 
17269 
16995 
16851 
16895 
16912 
16905 
16936 
16990 
16958 
16951 
16932 
16903 
16933 
16913 
16931 
16907 
16898 
16922 
16927 
16921 
16913 
16914 
16891 
16907 
16902 
16973 
16922 
16950 
16970 
16939 
16910 
16922 
16940 
16956 
16982 
16945 
16960 
16942 
16971 
17021 
16988 
16991 
16978 
17005 
17047 
17041 
16985 
17030 
17108 
17168 
17198 
17175 
17166 
17192 
17247 
17327 
17282 
17263 
17266 
17277 
17290 
17358 
17325 
17306 
17283 
17302 
17252 
17207 
17139 
17082 
17064 
17035 
16988 
16977 
16953 
16919 
16914 
16898 
16923 
16882 
16860 
16858 
16853 
16868 
16844 
16798 
16852 
16844 
16858 
16821 
16809 
16816 
16804 
16806 
16829 
16819 
16823 
16869 
16857 
16829 
16823 
16862 
16896 
16921 
16891 
16892 
16895 
16932 
16925 
16873 
16853 
16889 
16948 
16929 
16897 
16905 
16906 
16896 
16918 
16920 
16926 
16979 
16952 
16892 
16893 
16949 
16935 
16879 
16890 
16894 
16934 
16928 
16958 
16933 
16909 
16912 
16911 
16902 
16873 
16843 
16912 
16895 
16819 
16843 
16898 
16973 
17009 
16974 
16943 
16962 
16999 
16944 
16968 
16973 
16987 
16952 
16932 
16914 
16919 
16821 
16835 
16846 
16831 
16799 
16754 
16768 
16814 
16783 
16729 
16701 
16762 
16748 
16718 
16750 
16764 
16759 
16666 
16671 
16789 
16953 
17159 
17412 
17526 
17541 
17446 
17279 
16964 
16749 
16792 
16808 
16788 
16847 
16858 
16768 
16761 
16735 
16759 
16787 
16748 
16758 
16783 
16764 
16746 
16770 
16738 
16775 
16798 
16804 
16810 
16811 
16789 
16812 
16821 
16839 
16869 
16834 
16841 
16912 
16919 
16878 
16902 
16906 
16938 
17005 
16921 
16922 
17002 
16977 
17002 
17005 
17061 
17054 
17023 
17027 
17092 
17174 
17149 
17133 
17216 
17265 
17266 
17232 
17277 
17367 
17388 
17388 
17309 
17301 
17271 
17156 
17090 
17092 
16987 
16944 
16958 
16904 
16885 
16885 
16803 
16849 
16831 
16755 
16734 
16845 
16825 
16751 
16737 
16754 
16825 
16833 
16750 
16771 
16842 
16853 
16823 
16831 
16886 
16910 
16823 
16821 
16887 
16921 
16821 
16825 
16907 
16932 
16847 
16835 
16947 
16996 
16933 
16863 
16932 
17089 
17008 
16929 
16927 
17056 
17023 
16907 
16913 
17017 
16949 
16904 
16882 
16965 
16944 
16853 
16823 
16843 
16876 
16785 
16677 
16705 
16793 
16714 
16606 
16621 
16715 
16688 
16616 
16633 
16686 
16671 
16642 
16613 
16667 
16733 
16675 
16650 
16695 
16720 
16741 
16710 
16755 
16838 
16770 
16680 
16705 
16786 
16747 
16662 
16717 
16835 
16781 
16722 
16743 
16825 
16825 
16772 
16767 
16843 
16761 
16667 
16608 
16583 
16638 
16564 
16493 
16538 
16538 
16511 
16530 
16573 
16688 
16683 
16651 
16713 
16800 
16802 
16935 
17141 
17508 
17759 
17824 
17800 
17798 
17562 
17167 
17001 
17134 
17177 
17067 
17008 
16983 
17014 
16984 
16935 
16912 
16995 
16900 
16853 
16892 
16983 
16942 
16851 
16798 
16897 
16884 
16799 
16737 
16824 
16850 
16834 
16787 
16921 
16937 
16875 
16836 
16890 
16947 
16969 
16914 
16955 
17072 
16998 
16964 
16929 
17060 
17041 
16941 
16929 
16960 
16962 
16953 
16927 
17053 
17099 
17051 
17044 
17155 
17190 
17202 
17216 
17229 
17322 
17269 
17223 
17197 
17270 
17224 
17111 
17127 
17155 
17105 
16962 
16928 
17047 
16966 
16756 
16720 
16807 
16837 
16718 
16664 
16752 
16803 
16746 
16702 
16703 
16795 
16678 
16631 
16671 
16777 
16764 
16650 
16616 
16752 
16767 
16685 
16703 
16786 
16757 
16726 
16714 
16799 
16861 
16724 
16718 
16761 
16812 
16782 
16748 
16753 
16799 
16761 
16707 
16734 
16783 
16761 
16705 
16714 
16799 
16809 
16752 
16759 
16854 
16872 
16771 
16723 
16805 
16851 
16753 
16650 
16705 
16789 
16730 
16665 
16703 
16709 
16677 
16658 
16667 
16714 
16677 
16630 
16595 
16665 
16650 
16609 
16622 
16676 
16707 
16620 
16540 
16568 
16651 
16560 
16390 
16448 
16504 
16445 
16340 
16396 
16458 
16452 
16443 
16462 
16582 
16570 
16521 
16514 
16640 
16696 
16726 
16725 
16777 
16834 
16750 
16743 
16798 
16825 
16744 
16687 
16712 
16776 
16700 
16639 
16602 
16625 
16586 
16458 
16381 
16449 
16406 
16375 
16284 
16332 
16449 
16557 
16755 
17186 
17451 
17480 
17349 
17246 
17054 
16746 
16678 
16741 
16832 
16793 
16716 
16705 
16716 
16683 
16649 
16648 
16749 
16777 
16709 
16671 
16742 
16806 
16795 
16803 
16834 
16906 
16822 
16811 
16823 
16877 
16858 
16825 
16831 
16927 
16869 
16757 
16774 
16875 
16858 
16769 
16777 
16861 
16847 
16801 
16814 
16924 
16950 
16908 
16859 
16965 
17080 
17005 
16989 
17129 
17235 
17261 
17255 
17303 
17382 
17360 
17200 
17226 
17290 
17274 
17212 
17101 
17223 
17205 
17092 
17057 
17039 
17045 
16929 
16851 
16807 
16839 
16739 
16650 
16617 
16679 
16645 
16581 
16551 
16666 
16656 
16569 
16547 
16608 
16640 
16557 
16537 
16642 
16672 
16592 
16536 
16587 
16604 
16509 
16483 
16527 
16548 
16537 
16473 
16408 
16430 
16348 
16305 
16312 
16401 
16391 
16338 
16428 
16517 
16493 
16398 
16395 
16507 
16497 
16447 
16453 
16524 
16581 
16527 
16517 
16580 
16661 
16609 
16526 
16558 
16638 
16672 
16577 
16500 
16592 
16586 
16492 
16523 
16588 
16574 
16561 
16504 
16550 
16570 
16525 
16527 
16597 
16636 
16578 
16518 
16566 
16625 
16611 
16536 
16509 
16628 
16602 
16562 
16556 
16608 
16646 
16644 
16625 
16666 
16688 
16585 
16606 
16634 
16641 
16632 
16634 
16615 
16662 
16685 
16689 
16699 
16700 
16685 
16644 
16655 
16694 
16734 
16694 
16609 
16598 
16530 
16488 
16556 
16619 
16515 
16548 
16595 
16587 
16547 
16539 
16584 
16610 
16632 
16616 
16601 
16626 
16613 
16544 
16470 
16485 
16541 
16665 
16866 
17154 
17340 
17343 
17200 
17071 
16786 
16592 
16561 
16634 
16670 
16683 
16650 
16607 
16641 
16629 
16608 
16582 
16590 
16574 
16572 
16565 
16538 
16548 
16538 
16555 
16580 
16574 
16561 
16584 
16672 
16646 
16655 
16657 
16600 
16657 
16642 
16679 
16708 
16688 
16737 
16699 
16663 
16675 
16700 
16731 
16720 
16705 
16726 
16770 
16816 
16814 
16795 
16799 
16834 
16886 
16880 
16872 
16857 
16868 
16891 
16920 
16890 
16880 
16947 
16962 
16953 
16944 
16977 
16985 
16984 
16926 
16911 
16874 
16783 
16726 
16661 
16685 
16627 
16622 
16566 
16528 
16514 
16476 
16431 
16446 
16379 
16373 
16436 
16555 
16535 
16515 
16516 
16513 
16546 
16583 
16589 
16556 
16551 
16545 
16543 
16592 
16588 
16580 
16565 
16592 
16592 
16580 
16610 
16572 
16535 
16472 
16467 
16507 
16572 
16547 
16520 
16552 
16569 
16486 
16489 
16529 
16552 
16557 
16583 
16562 
16562 
16618 
16574 
16528 
16556 
16555 
16527 
16466 
16458 
16563 
16632 
16657 
16674 
16610 
16593 
16568 
16668 
16621 
16618 
16567 
16557 
16500 
16428 
16409 
16369 
16413 
16342 
16295 
16399 
16431 
16417 
16478 
16504 
16525 
16552 
16515 
16445 
16431 
16403 
16429 
16448 
16422 
16432 
16349 
16284 
16190 
16104 
16179 
16179 
16143 
16116 
16058 
15990 
15818 
15755 
15901 
16014 
15987 
15885 
15812 
15754 
15716 
15756 
15657 
15533 
15318 
15148 
15006 
14991 
15020 
15007 
15011 
15293 
15365 
15036 
14661 
14557 
14308 
14057 
14004 
14116 
14226 
14304 
14416 
14490 
14655 
14691 
14957 
15084 
15193 
15304 
15370 
15625 
15694 
15746 
15959 
15947 
15893 
15875 
15798 
15802 
15872 
15895 
15986 
15973 
15990 
16020 
16069 
16099 
16171 
16179 
16211 
16184 
16139 
16101 
15998 
15955 
15882 
15883 
15845 
15609 
15440 
15476 
15516 
15470 
15448 
15375 
15248 
15165 
15095 
15067 
15053 
14877 
14965 
15031 
14967 
14801 
14820 
14855 
14691 
14422 
14299 
14176 
13939 
13637 
13317 
13249 
13411 
13413 
13322 
13400 
13392 
13485 
13440 
13395 
13342 
13335 
13241 
13263 
13346 
13346 
13288 
13311 
13235 
13104 
13002 
12850 
12753 
12705 
12636 
12621 
12525 
12094 
11649 
11634 
11564 
11518 
11646 
11819 
11964 
12119 
12267 
12369 
12515 
12651 
12806 
12958 
13139 
13301 
13387 
13550 
13703 
13844 
13990 
14119 
14254 
14444 
14606 
14669 
14699 
14772 
14910 
15034 
15153 
15185 
15237 
15410 
15511 
15509 
15538 
15606 
15685 
15693 
15708 
15755 
15791 
15811 
15816 
15817 
15869 
15900 
15946 
15993 
16046 
15973 
16045 
16017 
16019 
16037 
16026 
16069 
16154 
16183 
16191 
16192 
16197 
16241 
16262 
16264 
16243 
16243 
16184 
16183 
16195 
16157 
16126 
16100 
16067 
16119 
16131 
16126 
16136 
16253 
16265 
16258 
16372 
16541 
16541 
16578 
16657 
16742 
16803 
16858 
16870 
16885 
16925 
17079 
17293 
17579 
17831 
17956 
17962 
17859 
17703 
17414 
17356 
17430 
17440 
17456 
17514 
17492 
17471 
17554 
17582 
17555 
17582 
17646 
17683 
17657 
17658 
17695 
17734 
17728 
17703 
17731 
17716 
17799 
17884 
17853 
17861 
17875 
17909 
18002 
18022 
18065 
18069 
18110 
18230 
18364 
18345 
18329 
18327 
18404 
18597 
18507 
18572 
18753 
18811 
18937 
19083 
19275 
19512 
19602 
19640 
19697 
19799 
19785 
19747 
19742 
19780 
19748 
19751 
19896 
19910 
19955 
20059 
20128 
20174 
20127 
20137 
20099 
20040 
19944 
19923 
19857 
19750 
19701 
19642 
19512 
19454 
19419 
19370 
19325 
19300 
19296 
19273 
19308 
19303 
19325 
19353 
19367 
19391 
19450 
19487 
19504 
19484 
19435 
19445 
19487 
19565 
19522 
19545 
19559 
19558 
19564 
19531 
19555 
19493 
19465 
19443 
19492 
19476 
19415 
19291 
19262 
19207 
19169 
19157 
19120 
19172 
19153 
19128 
19090 
19050 
19047 
18963 
18964 
18946 
18875 
18858 
18857 
18894 
18867 
18797 
18792 
18880 
18911 
18950 
18987 
18980 
19005 
19044 
18999 
18964 
18917 
18911 
18958 
19144 
19556 
19255 
18993 
18826 
18790 
18825 
18884 
18834 
18732 
18607 
18587 
18592 
18502 
18427 
18545 
18465 
18588 
18444 
18458 
18403 
18424 
18485 
18461 
18396 
18375 
18327 
18396 
18378 
18412 
18445 
18397 
18298 
18254 
18279 
18327 
18317 
18367 
18313 
18277 
18250 
18299 
18280 
18168 
18155 
18128 
18198 
18187 
18135 
18174 
18160 
18138 
18100 
18157 
18219 
18444 
18772 
18974 
18987 
18895 
18751 
18526 
18231 
18205 
18249 
18296 
18214 
18208 
18152 
18189 
18200 
18183 
18179 
18194 
18153 
18169 
18190 
18154 
18102 
18118 
18116 
18116 
18070 
18042 
18032 
17986 
17978 
17967 
18018 
18015 
17979 
18013 
18019 
18027 
18004 
17981 
17890 
17839 
17782 
17720 
17730 
17687 
17656 
17616 
17563 
17564 
17597 
17641 
17653 
17732 
17828 
17809 
17852 
17948 
18039 
18045 
18084 
18119 
18156 
18187 
18221 
18234 
18270 
18292 
18238 
18188 
17906 
17835 
17837 
17797 
17817 
17838 
17818 
17847 
17816 
17764 
17775 
17697 
17604 
17579 
17496 
17393 
17427 
17398 
17364 
17337 
17334 
17334 
17392 
17386 
17377 
17412 
17362 
17332 
17372 
17417 
17436 
17444 
17454 
17476 
17511 
17548 
17543 
17600 
17664 
17694 
17726 
17780 
17814 
17950 
18187 
18137 
18110 
18106 
18072 
18060 
18042 
18058 
18066 
18071 
18063 
18064 
18021 
18016 
18017 
18008 
17975 
17970 
18002 
18035 
18070 
17978 
17975 
17993 
18044 
18012 
17986 
17993 
17951 
17949 
17972 
17973 
17941 
17923 
17919 
17995 
18040 
18027 
18008 
18049 
18053 
18039 
18040 
18056 
18059 
18064 
18096 
18129 
18158 
18158 
18181 
18170 
18221 
18183 
18196 
18171 
18173 
18166 
18145 
18105 
18051 
18033 
18061 
18082 
18019 
18008 
17988 
17923 
17941 
17922 
17895 
17882 
17877 
17861 
17837 
17787 
17726 
17753 
17744 
17716 
17678 
17687 
17645 
17618 
17716 
17671 
17665 
17697 
17673 
17709 
17769 
17758 
17696 
17686 
17678 
17747 
17894 
18117 
18414 
18590 
18596 
18549 
18414 
18087 
17884 
17874 
17906 
17950 
17951 
17871 
17863 
17891 
17800 
17786 
17799 
17822 
17796 
17774 
17764 
17758 
17773 
17713 
17718 
17769 
17745 
17782 
17750 
17757 
17780 
17795 
17747 
17788 
17842 
17816 
17785 
17823 
17875 
17874 
17860 
17871 
17878 
17943 
17943 
17974 
17980 
17972 
18000 
18037 
17996 
18058 
18062 
18060 
18095 
18116 
18063 
18187 
18203 
18193 
18213 
18219 
18216 
18272 
18283 
18305 
18319 
18307 
18315 
18283 
18268 
18236 
18178 
18118 
18130 
18076 
18032 
18020 
17974 
17931 
17933 
17916 
17926 
17922 
17879 
17885 
17875 
17922 
17923 
17940 
17886 
17911 
17941 
17927 
17917 
17911 
17933 
17966 
17948 
17929 
17949 
17961 
17958 
17949 
17966 
17975 
17945 
17924 
17938 
17978 
17957 
17948 
17968 
17916 
17947 
17933 
17927 
17935 
17958 
17930 
17946 
17938 
17928 
17888 
17883 
17906 
17917 
17931 
17914 
17932 
17942 
17940 
17903 
17932 
17957 
17933 
17936 
17934 
17923 
17922 
17917 
17903 
17933 
17954 
17954 
17961 
17939 
17938 
17953 
17988 
17965 
17976 
17978 
17935 
17973 
17958 
17968 
17951 
17952 
18015 
18015 
17977 
17962 
17993 
18017 
18005 
18007 
18055 
18077 
18044 
18039 
18023 
18017 
18009 
17977 
17995 
18000 
17993 
17972 
17986 
18009 
17984 
17976 
17966 
17969 
17979 
17987 
17977 
18014 
17939 
17919 
17987 
18085 
18252 
18447 
18622 
18583 
18530 
18362 
18191 
17931 
17903 
17991 
18017 
18043 
18083 
18097 
18053 
18077 
18065 
18082 
18095 
18047 
18059 
18074 
18061 
18045 
18049 
18069 
18082 
18053 
18072 
18134 
18117 
18101 
18107 
18116 
18117 
18118 
18147 
18194 
18205 
18164 
18200 
18211 
18198 
18183 
18198 
18260 
18274 
18269 
18262 
18250 
18272 
18305 
18309 
18289 
18329 
18323 
18353 
18387 
18393 
18414 
18422 
18440 
18456 
18472 
18452 
18494 
18506 
18483 
18462 
18475 
18472 
18437 
18388 
18346 
18309 
18265 
18245 
18212 
18187 
18183 
18162 
18113 
18123 
18090 
18111 
18069 
18074 
18085 
18102 
18078 
18116 
18086 
18076 
18016 
18031 
18046 
18056 
18040 
18063 
18045 
18065 
18077 
18052 
18055 
18076 
18091 
18059 
18074 
18086 
18102 
18085 
18058 
18088 
18006 
17992 
18031 
18019 
18029 
18080 
18049 
18055 
18042 
18028 
18054 
18040 
18063 
18055 
18036 
18079 
18073 
18060 
18010 
18063 
18064 
18051 
18029 
18012 
18031 
18061 
18028 
18018 
18070 
18038 
18019 
18019 
18027 
18010 
18011 
18016 
18036 
18034 
18008 
17994 
18012 
18034 
18009 
17989 
18040 
18043 
18057 
18036 
18041 
18064 
18102 
18082 
18070 
18087 
18089 
18055 
18032 
18045 
18073 
18058 
18058 
18045 
18012 
18071 
18022 
18007 
18040 
18032 
17976 
17966 
17985 
17991 
17977 
17996 
17992 
18025 
18001 
17951 
17925 
17966 
17977 
18014 
18130 
18355 
18586 
18671 
18672 
18611 
18505 
18200 
17996 
18051 
18072 
18056 
18078 
18054 
18079 
18059 
18025 
18033 
18054 
18074 
18058 
18039 
18071 
18058 
18019 
18007 
18023 
18064 
18048 
18055 
18049 
18035 
18023 
18028 
18078 
18097 
18044 
18063 
18085 
18047 
18079 
18098 
18123 
18132 
18104 
18099 
18117 
18119 
18132 
18137 
18122 
18163 
18176 
18174 
18196 
18223 
18254 
18261 
18231 
18262 
18351 
18308 
18304 
18305 
18332 
18379 
18342 
18391 
18395 
18385 
18356 
18342 
18340 
18309 
18244 
18157 
17879 
17851 
17888 
17906 
17885 
17931 
17921 
17885 
17934 
17962 
17943 
17917 
17967 
17929 
17934 
17950 
17956 
17982 
17975 
17970 
17968 
18001 
18000 
17959 
17966 
17986 
17997 
17968 
17977 
18020 
18021 
18030 
18272 
18339 
18281 
18257 
18232 
18205 
18148 
18110 
18131 
18111 
18101 
18118 
18087 
18087 
18115 
18105 
18101 
18088 
18075 
18096 
18080 
18085 
18079 
18061 
18042 
18073 
18060 
18069 
18055 
18103 
18043 
18093 
18068 
18045 
18051 
18075 
18081 
18036 
18004 
18039 
18039 
18057 
18087 
18066 
18064 
18048 
18053 
18056 
18103 
18093 
18073 
18111 
18094 
18091 
18096 
18125 
18103 
18101 
18165 
18181 
18186 
18164 
18143 
18146 
18176 
18151 
18143 
18204 
18150 
18177 
18158 
18084 
18107 
18081 
18093 
18065 
18042 
18086 
18050 
18041 
18059 
18065 
18069 
18027 
18011 
18009 
18030 
18018 
17966 
17991 
18126 
18244 
18465 
18727 
18825 
18785 
18634 
18435 
18186 
18071 
18109 
18153 
18169 
18163 
18120 
18105 
18135 
18150 
18129 
18086 
18111 
18138 
18118 
18107 
18105 
18123 
18082 
18102 
18126 
18122 
18098 
18122 
18113 
18158 
18123 
18097 
18151 
18177 
18147 
18133 
18157 
18207 
18195 
18124 
18179 
18194 
18199 
18174 
18224 
18207 
18218 
18208 
18220 
18278 
18307 
18305 
18269 
18275 
18317 
18316 
18365 
18398 
18388 
18400 
18422 
18424 
18392 
18488 
18445 
18444 
18465 
18463 
18446 
18388 
18349 
18335 
18257 
18237 
18211 
18194 
18118 
18066 
18076 
18074 
18068 
18034 
18019 
18023 
18021 
18009 
18003 
17986 
17996 
17952 
17954 
17961 
17962 
17992 
17957 
17910 
17957 
17931 
17873 
17924 
17936 
17919 
17907 
17881 
17922 
17934 
17949 
17953 
17950 
17963 
17961 
17954 
17969 
17957 
17932 
17931 
17918 
17899 
17889 
17889 
17886 
17937 
17902 
17879 
17904 
17902 
17884 
17915 
17937 
17931 
17945 
17949 
17944 
17932 
17937 
17902 
17907 
17951 
17944 
17922 
17941 
17931 
17898 
17926 
17917 
17908 
17940 
17948 
17920 
17984 
17949 
17909 
17900 
17920 
17979 
17948 
17926 
17938 
17961 
17972 
17940 
17939 
17956 
17935 
18001 
18016 
18005 
18026 
17997 
17970 
17985 
17962 
17902 
17888 
17921 
17936 
17913 
17852 
17891 
17879 
17865 
17879 
17884 
17901 
17914 
17904 
17902 
17931 
17944 
17965 
17980 
17980 
18004 
17979 
17939 
17948 
18064 
18215 
18395 
18698 
18807 
18745 
18630 
18455 
18197 
18018 
18006 
18112 
18105 
18108 
18065 
18070 
18055 
18064 
18030 
18012 
18051 
18065 
18014 
18028 
18002 
18012 
18051 
18052 
18023 
18059 
18092 
18075 
18094 
18073 
18088 
18108 
18105 
18128 
18118 
18078 
18106 
18127 
18163 
18151 
18135 
18119 
18135 
18163 
18141 
18174 
18199 
18229 
18245 
18212 
18282 
18316 
18350 
18359 
18400 
18427 
18428 
18483 
18508 
18552 
18580 
18600 
18608 
18650 
18673 
18675 
18684 
18682 
18660 
18618 
18575 
18584 
18495 
18428 
18422 
18394 
18345 
18291 
18311 
18329 
18306 
18261 
18266 
18254 
18262 
18223 
18211 
18197 
18175 
18170 
18164 
18167 
18186 
18163 
18139 
18132 
18139 
18159 
18148 
18134 
18124 
18159 
18196 
18149 
18177 
18183 
18160 
18183 
18142 
18150 
18149 
18155 
18177 
18179 
18162 
18166 
18146 
18178 
18161 
18146 
18162 
18177 
18151 
18163 
18160 
18174 
18181 
18179 
18124 
18150 
18183 
18159 
18124 
18118 
18135 
18147 
18148 
18150 
18145 
18151 
18157 
18149 
18189 
18179 
18164 
18176 
18203 
18180 
18171 
18177 
18164 
18184 
18183 
18201 
18215 
18242 
18203 
18194 
18198 
18190 
18195 
18188 
18179 
18178 
18209 
18222 
18205 
18242 
18227 
18234 
18225 
18244 
18239 
18220 
18231 
18241 
18242 
18216 
18183 
18142 
18167 
18149 
18150 
18128 
18111 
18095 
18126 
18110 
18104 
18051 
18067 
18065 
18033 
18070 
18055 
18062 
18045 
18005 
18062 
18128 
18278 
18484 
18693 
18769 
18758 
18624 
18446 
18189 
18026 
18058 
18114 
18168 
18144 
18128 
18118 
18098 
18096 
18118 
18110 
18113 
18095 
18071 
18098 
18124 
18111 
18099 
18112 
18121 
18105 
18088 
18125 
18111 
18091 
18089 
18095 
18135 
18149 
18164 
18157 
18163 
18172 
18149 
18173 
18243 
18237 
18225 
18251 
18292 
18296 
18319 
18326 
18364 
18349 
18368 
18388 
18429 
18414 
18397 
18445 
18507 
18509 
18507 
18529 
18574 
18587 
18550 
18577 
18595 
18609 
18594 
18540 
18518 
18548 
18502 
18434 
18394 
18387 
18343 
18284 
18251 
18241 
18223 
18205 
18170 
18170 
18188 
18169 
18159 
18175 
18152 
18125 
18145 
18191 
18155 
18155 
18119 
18157 
18193 
18139 
18154 
18179 
18192 
18160 
18151 
18155 
18154 
18168 
18142 
18168 
18205 
18204 
18187 
18196 
18186 
18204 
18230 
18217 
18186 
18195 
18197 
18198 
18180 
18203 
18235 
18188 
18198 
18218 
18250 
18203 
18179 
18190 
18197 
18218 
18221 
18223 
18229 
18266 
18224 
18221 
18195 
18201 
18231 
18218 
18202 
18237 
18233 
18247 
18223 
18201 
18241 
18257 
18258 
18256 
18314 
18296 
18250 
18258 
18267 
18272 
18285 
18255 
18225 
18239 
18212 
18197 
18217 
18192 
18226 
18238 
18239 
18210 
18200 
18230 
18210 
18232 
18196 
18234 
18241 
18218 
18201 
18184 
18169 
18239 
18397 
18554 
18767 
18927 
18892 
18831 
18713 
18442 
18258 
18269 
18344 
18332 
18343 
18311 
18314 
18301 
18338 
18298 
18310 
18300 
18343 
18336 
18316 
18324 
18311 
18285 
18314 
18327 
18348 
18331 
18335 
18358 
18361 
18362 
18336 
18340 
18373 
18371 
18395 
18398 
18373 
18369 
18447 
18476 
18459 
18478 
18500 
18445 
18470 
18500 
18514 
18547 
18561 
18553 
18565 
18607 
18625 
18646 
18650 
18692 
18730 
18742 
18728 
18764 
18797 
18797 
18837 
18805 
18815 
18822 
18789 
18775 
18743 
18740 
18684 
18614 
18597 
18588 
18508 
18456 
18456 
18481 
18448 
18420 
18401 
18403 
18415 
18396 
18414 
18405 
18385 
18369 
18378 
18382 
18411 
18395 
18405 
18393 
18404 
18387 
18384 
18412 
18429 
18387 
18375 
18376 
18404 
18380 
18396 
18421 
18399 
18431 
18416 
18418 
18451 
18480 
18453 
18440 
18455 
18437 
18440 
18453 
18496 
18477 
18469 
18480 
18525 
18526 
18514 
18474 
18513 
18556 
18528 
18523 
18527 
18600 
18581 
18580 
18590 
18601 
18544 
18511 
18578 
18606 
18609 
18566 
18576 
18631 
18601 
18558 
18589 
18650 
18645 
18608 
18576 
18641 
18646 
18627 
18629 
18653 
18698 
18680 
18644 
18655 
18709 
18710 
18685 
18655 
18709 
18714 
18661 
18639 
18657 
18637 
18644 
18666 
18636 
18666 
18688 
18691 
18739 
18714 
18697 
18663 
18673 
18754 
18744 
18686 
18615 
18656 
18750 
18862 
19093 
19379 
19507 
19455 
19361 
19227 
18969 
18716 
18744 
18794 
18811 
18774 
18742 
18723 
18743 
18701 
18702 
18700 
18714 
18697 
18663 
18636 
18706 
18727 
18673 
18663 
18732 
18712 
18685 
18631 
18687 
18665 
18655 
18679 
18670 
18697 
18679 
18675 
18666 
18701 
18711 
18702 
18680 
18751 
18779 
18775 
18777 
18817 
18843 
18820 
18786 
18863 
18918 
18887 
18921 
18959 
19018 
18995 
19030 
19062 
19109 
19115 
19108 
19118 
19141 
19173 
19181 
19164 
19160 
19149 
19073 
19064 
19065 
18949 
18865 
18837 
18829 
18791 
18739 
18716 
18747 
18736 
18699 
18707 
18682 
18706 
18686 
18678 
18673 
18696 
18681 
18682 
18686 
18728 
18725 
18700 
18716 
18764 
18793 
18721 
18719 
18806 
18848 
18749 
18713 
18801 
18792 
18767 
18792 
18800 
18815 
18784 
18764 
18784 
18799 
18777 
18750 
18759 
18812 
18769 
18741 
18765 
18779 
18790 
18762 
18771 
18794 
18833 
18774 
18793 
18828 
18811 
18782 
18778 
18816 
18869 
18811 
18791 
18796 
18818 
18821 
18740 
18754 
18813 
18775 
18796 
18799 
18843 
18811 
18788 
18798 
18812 
18806 
18792 
18814 
18814 
18852 
18812 
18776 
18824 
18861 
18830 
18797 
18804 
18850 
18893 
18852 
18861 
18884 
18926 
18918 
18899 
18921 
18954 
18878 
18855 
18859 
18888 
18845 
18820 
18833 
18878 
18842 
18838 
18843 
18876 
18851 
18799 
18827 
18865 
18878 
18820 
18833 
18819 
18774 
18798 
18863 
19015 
19288 
19516 
19616 
19627 
19569 
19346 
19073 
18905 
18993 
19000 
18961 
18967 
18964 
18961 
18971 
18961 
18934 
18932 
18905 
18916 
18939 
18962 
18957 
18930 
18951 
18954 
18941 
18915 
18943 
18996 
18968 
18976 
18970 
19004 
19021 
19021 
19047 
19065 
19038 
19022 
19015 
19066 
19098 
19102 
19107 
19130 
19166 
19118 
19144 
19186 
19196 
19206 
19210 
19237 
19283 
19266 
19270 
19306 
19378 
19389 
19382 
19409 
19464 
19454 
19441 
19476 
19504 
19482 
19431 
19449 
19444 
19415 
19353 
19314 
19320 
19263 
19209 
19138 
19158 
19167 
19117 
19040 
19037 
19109 
19097 
19042 
19053 
19114 
19098 
19052 
19033 
19077 
19096 
19033 
19040 
19080 
19073 
19011 
19040 
19080 
19103 
19051 
19054 
19093 
19111 
19093 
19057 
19068 
19112 
19104 
19064 
19094 
19131 
19116 
19091 
19093 
19123 
19103 
19076 
19113 
19130 
19137 
19104 
19073 
19113 
19122 
19070 
19135 
19148 
19157 
19139 
19125 
19115 
19135 
19089 
19070 
19105 
19125 
19114 
19080 
19060 
19088 
19094 
19066 
19054 
19062 
19088 
19044 
19040 
19068 
19093 
19066 
19088 
19053 
19070 
19071 
19062 
19096 
19099 
19089 
19053 
19061 
19070 
19098 
19059 
19068 
19089 
19127 
19120 
19120 
19151 
19183 
19171 
19159 
19169 
19229 
19236 
19209 
19182 
19212 
19178 
19176 
19184 
19210 
19215 
19188 
19163 
19171 
19185 
19165 
19155 
19176 
19167 
19137 
19166 
19201 
19172 
19094 
19084 
19174 
19335 
19489 
19756 
19942 
19990 
19863 
19706 
19458 
19259 
19251 
19285 
19259 
19319 
19300 
19261 
19234 
19254 
19279 
19235 
19258 
19243 
19266 
19261 
19227 
19224 
19272 
19274 
19273 
19266 
19287 
19284 
19266 
19269 
19339 
19342 
19275 
19282 
19312 
19346 
19332 
19308 
19348 
19367 
19372 
19345 
19358 
19439 
19406 
19368 
19440 
19466 
19481 
19430 
19478 
19533 
19496 
19520 
19564 
19610 
19646 
19659 
19652 
19642 
19683 
19677 
19708 
19705 
19728 
19712 
19752 
19733 
19695 
19647 
19602 
19582 
19601 
19534 
19474 
19462 
19444 
19388 
19364 
19351 
19359 
19369 
19349 
19328 
19363 
19331 
19292 
19300 
19326 
19347 
19257 
19283 
19310 
19357 
19348 
19321 
19294 
19326 
19330 
19333 
19322 
19377 
19383 
19333 
19347 
19359 
19375 
19368 
19381 
19419 
19375 
19336 
19351 
19325 
19393 
19397 
19323 
19346 
19398 
19367 
19371 
19367 
19428 
19352 
19332 
19357 
19385 
19387 
19366 
19345 
19370 
19415 
19356 
19333 
19352 
19407 
19356 
19329 
19365 
19399 
19386 
19356 
19351 
19406 
19370 
19337 
19360 
19403 
19357 
19355 
19362 
19368 
19366 
19333 
19349 
19389 
19395 
19341 
19357 
19368 
19384 
19377 
19360 
19374 
19386 
19394 
19368 
19370 
19393 
19403 
19367 
19403 
19454 
19469 
19384 
19410 
19487 
19457 
19422 
19457 
19493 
19443 
19425 
19446 
19434 
19422 
19385 
19405 
19396 
19430 
19382 
19369 
19380 
19388 
19354 
19379 
19400 
19373 
19361 
19389 
19341 
19322 
19343 
19429 
19540 
19767 
20036 
20177 
20173 
20085 
19922 
19619 
19465 
19494 
19499 
19504 
19528 
19497 
19447 
19471 
19488 
19497 
19457 
19436 
19461 
19485 
19503 
19471 
19449 
19475 
19471 
19493 
19500 
19501 
19491 
19509 
19505 
19484 
19531 
19526 
19522 
19534 
19564 
19530 
19558 
19557 
19574 
19641 
19616 
19616 
19598 
19611 
19640 
19656 
19674 
19672 
19722 
19727 
19730 
19768 
19812 
19793 
19835 
19838 
19872 
19917 
19892 
19893 
19924 
19936 
19959 
19979 
19977 
19976 
19911 
19923 
19906 
19854 
19812 
19777 
19733 
19718 
19673 
19636 
19625 
19626 
19565 
19596 
19617 
19578 
19573 
19555 
19546 
19563 
19591 
19538 
19538 
19523 
19521 
19564 
19595 
19567 
19534 
19583 
19575 
19547 
19578 
19575 
19563 
19586 
19595 
19587 
19596 
19569 
19584 
19591 
19605 
19582 
19594 
19601 
19603 
19554 
19631 
19625 
19591 
19595 
19589 
19589 
19601 
19617 
19609 
19593 
19589 
19659 
19589 
19590 
19575 
19579 
19597 
19578 
19618 
19638 
19606 
19605 
19646 
19605 
19602 
19615 
19602 
19619 
19620 
19642 
19608 
19604 
19591 
19592 
19620 
19614 
19607 
19654 
19646 
19621 
19596 
19632 
19624 
19652 
19643 
19601 
19634 
19639 
19663 
19662 
19653 
19626 
19625 
19658 
19659 
19671 
19665 
19664 
19660 
19677 
19704 
19724 
19720 
19721 
19710 
19757 
19739 
19775 
19763 
19741 
19737 
19706 
19699 
19691 
19668 
19661 
19663 
19643 
19656 
19651 
19676 
19667 
19631 
19651 
19666 
19672 
19667 
19668 
19682 
19639 
19568 
19587 
19707 
19882 
20107 
20366 
20471 
20467 
20363 
20133 
19834 
19722 
19744 
19810 
19823 
19794 
19749 
19743 
19743 
19763 
19753 
19723 
19762 
19763 
19745 
19768 
19751 
19752 
19755 
19765 
19794 
19790 
19764 
19777 
19781 
19788 
19794 
19799 
19791 
19824 
19839 
19811 
19825 
19846 
19872 
19853 
19861 
19874 
19895 
19918 
19900 
19944 
19951 
19958 
19960 
19990 
20007 
20018 
20064 
20085 
20114 
20130 
20144 
20198 
20191 
20218 
20241 
20278 
20288 
20292 
20300 
20332 
20298 
20277 
20257 
20234 
20211 
20182 
20145 
20095 
20015 
19980 
20006 
19962 
19951 
19952 
19951 
19928 
19935 
19944 
19945 
19924 
19916 
19929 
19915 
19914 
19911 
19939 
19956 
19935 
19922 
19971 
19951 
19957 
19953 
19954 
19963 
19963 
19977 
19975 
19992 
20001 
19997 
20018 
20015 
19995 
19973 
20000 
20015 
20027 
19991 
19974 
20048 
20042 
20003 
20016 
20027 
20027 
20031 
20036 
20058 
20057 
20036 
20017 
20028 
20008 
20016 
20034 
20009 
20038 
20048 
20025 
20057 
20023 
20073 
20078 
20088 
20069 
20069 
20084 
20063 
20070 
20078 
20084 
20086 
20082 
20056 
20071 
20077 
20082 
20078 
20072 
20096 
20102 
20152 
20171 
20158 
20139 
20172 
20163 
20163 
20211 
20216 
20222 
20222 
20206 
20200 
20238 
20245 
20216 
20220 
20212 
20177 
20149 
20159 
20147 
20211 
20194 
20203 
20185 
20219 
20202 
20179 
20171 
20194 
20198 
20196 
20200 
20209 
20186 
20139 
20178 
20311 
20409 
20565 
20809 
20846 
20776 
20682 
20508 
20255 
20196 
20248 
20273 
20293 
20305 
20281 
20282 
20278 
20272 
20268 
20254 
20287 
20276 
20284 
20286 
20309 
20292 
20263 
20291 
20263 
20307 
20336 
20330 
20320 
20328 
20344 
20334 
20372 
20371 
20395 
20407 
20404 
20419 
20424 
20421 
20414 
20440 
20441 
20450 
20478 
20508 
20514 
20517 
20528 
20546 
20562 
20611 
20617 
20600 
20636 
20685 
20714 
20723 
20739 
20753 
20771 
20805 
20820 
20812 
20850 
20834 
20816 
20783 
20770 
20748 
20729 
20670 
20590 
20569 
20592 
20539 
20467 
20486 
20485 
20464 
20444 
20422 
20406 
20410 
20432 
20417 
20389 
20429 
20426 
20384 
20418 
20434 
20427 
20403 
20401 
20395 
20419 
20447 
20402 
20423 
20404 
20432 
20425 
20410 
20421 
20451 
20453 
20460 
20460 
20434 
20436 
20436 
20437 
20462 
20471 
20442 
20449 
20449 
20461 
20459 
20466 
20476 
20512 
20484 
20508 
20468 
20470 
20491 
20492 
20490 
20488 
20505 
20481 
20497 
20509 
20528 
20513 
20500 
20517 
20505 
20513 
20515 
20498 
20511 
20498 
20528 
20500 
20507 
20551 
20532 
20523 
20531 
20478 
20472 
20508 
20539 
20482 
20515 
20514 
20512 
20496 
20505 
20528 
20536 
20545 
20503 
20527 
20547 
20527 
20524 
20595 
20614 
20637 
20618 
20608 
20616 
20660 
20643 
20663 
20655 
20637 
20575 
20582 
20571 
20610 
20583 
20582 
20562 
20568 
20577 
20577 
20551 
20595 
20543 
20549 
20564 
20582 
20593 
20582 
20525 
20471 
20545 
20709 
20884 
21137 
21334 
21369 
21302 
21148 
20929 
20700 
20688 
20690 
20678 
20700 
20681 
20662 
20640 
20649 
20675 
20668 
20680 
20675 
20666 
20670 
20660 
20673 
20667 
20652 
20683 
20704 
20688 
20743 
20724 
20720 
20712 
20698 
20725 
20754 
20730 
20728 
20750 
20777 
20778 
20770 
20779 
20797 
20805 
20827 
20828 
20847 
20851 
20873 
20893 
20889 
20908 
20926 
20934 
20979 
21007 
21017 
21034 
21058 
21080 
21098 
21101 
21130 
21135 
21179 
21180 
21173 
21156 
21156 
21110 
21094 
21080 
21057 
20992 
20931 
20908 
20928 
20875 
20840 
20838 
20784 
20747 
20774 
20772 
20767 
20760 
20762 
20754 
20750 
20766 
20758 
20761 
20747 
20772 
20784 
20746 
20745 
20755 
20776 
20749 
20781 
20772 
20819 
20788 
20807 
20808 
20779 
20786 
20807 
20800 
20812 
20778 
20784 
20823 
20844 
20813 
20812 
20801 
20822 
20838 
20831 
20814 
20823 
20844 
20818 
20833 
20839 
20836 
20812 
20826 
20831 
20850 
20843 
20831 
20826 
20856 
20828 
20829 
20869 
20855 
20842 
20825 
20842 
20848 
20852 
20844 
20881 
20868 
20864 
20874 
20870 
20871 
20864 
20817 
20836 
20854 
20842 
20844 
20912 
20913 
20893 
20886 
20896 
20921 
20926 
20909 
20890 
20912 
20930 
20902 
20892 
20892 
20882 
20899 
20883 
20918 
20914 
20940 
20913 
20954 
20994 
20990 
20973 
20998 
20984 
20988 
21006 
21013 
20986 
20975 
20989 
20959 
20938 
20947 
20937 
20906 
20924 
20928 
20927 
20919 
20884 
20928 
20937 
20917 
20918 
20936 
20947 
20928 
20869 
20843 
20903 
21038 
21204 
21476 
21686 
21737 
21693 
21559 
21324 
21072 
21035 
21030 
21041 
21040 
21032 
21044 
20996 
20955 
21010 
20993 
21000 
20989 
20966 
20996 
21021 
21019 
21025 
21012 
21011 
21046 
21008 
21009 
21040 
21072 
21037 
21083 
21041 
21068 
21099 
21103 
21107 
21125 
21108 
21105 
21131 
21145 
21151 
21143 
21188 
21175 
21223 
21222 
21232 
21230 
21260 
21266 
21287 
21316 
21349 
21377 
21397 
21433 
21442 
21421 
21474 
21535 
21527 
21499 
21512 
21534 
21530 
21516 
21519 
21479 
21424 
21406 
21382 
21318 
21321 
21290 
21223 
21190 
21226 
21202 
21192 
21153 
21155 
21168 
21171 
21155 
21120 
21103 
21171 
21178 
21135 
21118 
21125 
21127 
21119 
21104 
21138 
21140 
21123 
21128 
21133 
21128 
21132 
21135 
21130 
21151 
21129 
21161 
21179 
21163 
21152 
21171 
21191 
21208 
21199 
21219 
21180 
21194 
21180 
21219 
21182 
21183 
21186 
21193 
21187 
21166 
21179 
21202 
21198 
21170 
21171 
21178 
21176 
21165 
21178 
21196 
21205 
21205 
21218 
21181 
21211 
21209 
21196 
21216 
21187 
21187 
21223 
21228 
21208 
21229 
21256 
21234 
21206 
21219 
21247 
21226 
21198 
21229 
21221 
21222 
21235 
21238 
21218 
21253 
21235 
21215 
21225 
21239 
21215 
21240 
21239 
21256 
21234 
21237 
21223 
21238 
21262 
21261 
21228 
21253 
21280 
21271 
21289 
21322 
21336 
21324 
21326 
21365 
21338 
21313 
21318 
21299 
21290 
21292 
21278 
21276 
21267 
21231 
21266 
21252 
21274 
21246 
21276 
21282 
21212 
21270 
21246 
21267 
21253 
21271 
21253 
21202 
21154 
21221 
21312 
21462 
21736 
21996 
22070 
22019 
21898 
21668 
21372 
21266 
21363 
21385 
21328 
21364 
21356 
21316 
21287 
21299 
21311 
21290 
21288 
21286 
21295 
21293 
21287 
21321 
21359 
21340 
21346 
21311 
21343 
21366 
21341 
21323 
21320 
21377 
21388 
21362 
21406 
21410 
21425 
21381 
21376 
21409 
21431 
21442 
21439 
21454 
21476 
21498 
21503 
21502 
21495 
21523 
21551 
21571 
21590 
21583 
21646 
21638 
21662 
21676 
21687 
21750 
21791 
21824 
21785 
21782 
21809 
21800 
21792 
21776 
21750 
21755 
21691 
21642 
21594 
21569 
21540 
21507 
21477 
21441 
21411 
21408 
21392 
21385 
21372 
21389 
21353 
21351 
21332 
21378 
21348 
21351 
21364 
21384 
21386 
21357 
21343 
21340 
21338 
21369 
21373 
21347 
21342 
21369 
21375 
21394 
21408 
21400 
21392 
21381 
21380 
21407 
21392 
21423 
21441 
21384 
21383 
21396 
21396 
21392 
21407 
21405 
21409 
21395 
21391 
21395 
21407 
21390 
21386 
21411 
21412 
21370 
21379 
21387 
21411 
21400 
21395 
21384 
21381 
21393 
21394 
21398 
21398 
21420 
21388 
21395 
21404 
21416 
21400 
21389 
21390 
21417 
21422 
21439 
21388 
21417 
21426 
21395 
21407 
21415 
21412 
21385 
21400 
21397 
21391 
21398 
21390 
21378 
21383 
21412 
21444 
21426 
21394 
21398 
21406 
21404 
21451 
21439 
21441 
21431 
21452 
21455 
21443 
21515 
21499 
21507 
21507 
21485 
21497 
21501 
21494 
21526 
21494 
21463 
21471 
21430 
21413 
21455 
21440 
21447 
21417 
21401 
21415 
21428 
21435 
21441 
21406 
21431 
21451 
21402 
21448 
21368 
21324 
21369 
21488 
21606 
21823 
22097 
22217 
22197 
22097 
21868 
21565 
21451 
21486 
21516 
21532 
21535 
21510 
21490 
21477 
21456 
21471 
21433 
21464 
21475 
21465 
21451 
21481 
21477 
21490 
21489 
21515 
21506 
21487 
21481 
21497 
21509 
21498 
21545 
21526 
21564 
21551 
21541 
21544 
21532 
21567 
21580 
21603 
21566 
21591 
21612 
21611 
21659 
21658 
21648 
21664 
21681 
21706 
21747 
21774 
21755 
21831 
21816 
21807 
21853 
21872 
21901 
21903 
21915 
21932 
21937 
21983 
21968 
21986 
21957 
21937 
21871 
21835 
21803 
21770 
21712 
21691 
21672 
21649 
21613 
21607 
21546 
21532 
21547 
21530 
21527 
21543 
21540 
21524 
21510 
21510 
21508 
21557 
21529 
21510 
21497 
21513 
21522 
21527 
21566 
21547 
21509 
21527 
21527 
21549 
21540 
21539 
21563 
21549 
21574 
21598 
21589 
21565 
21558 
21587 
21565 
21559 
21583 
21576 
21592 
21570 
21584 
21557 
21574 
21567 
21578 
21565 
21585 
21572 
21555 
21556 
21566 
21557 
21550 
21558 
21570 
21570 
21542 
21547 
21571 
21576 
21557 
21578 
21560 
21571 
21626 
21614 
21538 
21530 
21575 
21571 
21590 
21557 
21554 
21572 
21552 
21571 
21568 
21558 
21568 
21560 
21564 
21538 
21527 
21545 
21596 
21569 
21601 
21619 
21624 
21623 
21582 
21580 
21592 
21586 
21571 
21559 
21594 
21584 
21565 
21598 
21599 
21600 
21581 
21587 
21624 
21674 
21655 
21646 
21647 
21656 
21702 
21711 
21711 
21671 
21625 
21641 
21613 
21618 
21602 
21572 
21570 
21568 
21539 
21555 
21601 
21571 
21579 
21564 
21549 
21541 
21571 
21559 
21533 
21513 
21535 
21598 
21704 
21944 
22245 
22369 
22357 
22255 
22097 
21848 
21640 
21653 
21679 
21695 
21667 
21665 
21680 
21631 
21592 
21642 
21667 
21666 
21625 
21629 
21636 
21652 
21621 
21626 
21654 
21682 
21651 
21654 
21635 
21659 
21663 
21661 
21674 
21684 
21687 
21712 
21698 
21712 
21698 
21753 
21745 
21747 
21752 
21758 
21757 
21796 
21799 
21804 
21811 
21867 
21839 
21836 
21855 
21903 
21934 
21934 
21965 
21954 
22006 
22047 
22055 
22060 
22093 
22106 
22100 
22099 
22127 
22129 
22097 
22083 
22055 
22037 
21989 
21935 
21920 
21865 
21803 
21800 
21731 
21720 
21715 
21701 
21690 
21684 
21681 
21670 
21683 
21660 
21680 
21655 
21664 
21654 
21652 
21621 
21639 
21635 
21632 
21646 
21617 
21619 
21633 
21662 
21625 
21638 
21623 
21632 
21635 
21636 
21652 
21639 
21603 
21635 
21663 
21646 
21596 
21619 
21635 
21652 
21596 
21563 
21593 
21582 
21605 
21582 
21588 
21595 
21592 
21553 
21598 
21606 
21598 
21608 
21591 
21596 
21610 
21605 
21604 
21625 
21633 
21613 
21613 
21648 
21642 
21643 
21647 
21659 
21662 
21644 
21654 
21664 
21670 
21679 
21659 
21650 
21675 
21710 
21681 
21706 
21718 
21693 
21653 
21665 
21715 
21751 
21731 
21709 
21741 
21731 
21694 
21709 
21712 
21754 
21753 
21720 
21714 
21758 
21769 
21758 
21727 
21740 
21753 
21786 
21789 
21849 
21847 
21800 
21824 
21833 
21850 
21839 
21833 
21833 
21853 
21813 
21788 
21781 
21794 
21754 
21741 
21730 
21762 
21772 
21726 
21753 
21737 
21772 
21712 
21715 
21753 
21768 
21717 
21671 
21671 
21703 
21773 
21945 
22210 
22507 
22572 
22495 
22412 
22242 
21938 
21755 
21784 
21838 
21853 
21817 
21801 
21823 
21830 
21762 
21764 
21774 
21818 
21768 
21741 
21759 
21849 
21810 
21790 
21810 
21900 
21841 
21824 
21820 
21859 
21860 
21803 
21800 
21881 
21922 
21845 
21850 
21950 
21955 
21897 
21872 
21932 
21996 
21919 
21944 
21977 
21988 
22012 
21986 
22022 
22090 
22060 
22022 
22051 
22149 
22187 
22123 
22152 
22222 
22264 
22218 
22251 
22283 
22317 
22300 
22274 
22305 
22311 
22281 
22255 
22256 
22231 
22177 
22088 
22049 
22090 
21978 
21628 
21538 
21656 
21685 
21657 
21682 
21749 
21766 
21736 
21699 
21756 
21793 
21763 
21754 
21799 
21845 
21790 
21768 
21825 
21908 
21865 
21781 
21820 
21890 
21856 
21809 
21828 
21929 
21903 
21802 
21838 
21917 
21944 
21893 
21877 
22019 
22327 
22214 
22133 
22199 
22197 
22079 
22032 
22047 
22077 
22029 
21977 
22017 
22046 
21995 
21920 
21946 
22010 
21979 
21940 
21922 
21994 
21985 
21895 
21894 
21953 
21983 
21903 
21851 
21925 
21951 
21896 
21842 
21903 
21945 
21885 
21870 
21922 
21938 
21915 
21852 
21894 
21959 
21955 
21898 
21898 
21972 
21982 
21914 
21911 
21966 
22007 
21925 
21905 
21984 
22029 
21982 
21901 
21937 
21975 
21978 
21926 
21965 
21998 
21964 
21920 
21955 
22056 
22080 
21959 
21981 
22048 
22071 
21985 
21978 
22050 
22083 
22034 
21969 
21939 
21978 
21944 
21906 
21931 
21992 
21948 
21898 
21910 
21933 
21914 
21859 
21871 
21950 
21954 
21874 
21866 
21854 
21888 
21894 
22008 
22228 
22515 
22643 
22678 
22646 
22552 
22266 
21969 
21969 
22057 
22053 
22018 
22017 
22054 
22025 
21961 
21967 
22013 
22053 
21967 
21964 
22029 
22022 
21938 
21929 
21991 
22024 
21987 
21944 
21970 
22046 
22036 
21974 
21992 
22060 
22038 
21961 
21995 
22066 
22084 
22043 
22024 
22096 
22156 
22100 
22099 
22131 
22146 
22138 
22143 
22170 
22212 
22149 
22240 
22265 
22315 
22299 
22274 
22286 
22369 
22359 
22324 
22348 
22424 
22435 
22381 
22405 
22470 
22462 
22386 
22370 
22395 
22400 
22275 
22055 
21859 
21902 
21861 
21857 
21873 
21932 
21872 
21821 
21912 
21953 
21940 
21886 
21892 
21954 
21929 
21898 
21903 
21944 
21965 
21911 
21887 
21944 
22001 
21963 
21961 
21990 
22009 
21953 
21940 
21977 
22035 
21973 
22001 
22029 
22045 
22053 
22299 
22362 
22322 
22277 
22195 
22186 
22197 
22187 
22118 
22114 
22144 
22144 
22087 
22082 
22118 
22117 
22074 
22051 
22055 
22094 
22074 
22062 
22053 
22137 
22095 
22029 
21996 
22063 
22061 
22039 
22065 
22079 
22076 
22023 
22019 
22074 
22099 
22037 
22031 
22056 
22085 
22064 
22045 
22034 
22074 
22048 
22003 
22052 
22122 
22089 
22011 
22013 
22078 
22113 
22056 
22014 
22079 
22095 
22043 
22018 
22077 
22104 
22043 
22034 
22046 
22104 
22073 
22069 
22068 
22137 
22119 
22131 
22162 
22173 
22149 
22124 
22143 
22180 
22207 
22143 
22125 
22139 
22141 
22042 
22047 
22086 
22101 
22057 
22029 
22019 
22038 
22089 
22037 
22069 
22104 
22066 
22033 
22040 
22062 
22025 
21941 
21979 
22113 
22274 
22456 
22702 
22872 
22852 
22694 
22464 
22218 
22123 
22118 
22112 
22115 
22154 
22164 
22119 
22085 
22128 
22117 
22120 
22107 
22106 
22128 
22097 
22097 
22130 
22159 
22095 
22086 
22166 
22165 
22118 
22130 
22169 
22143 
22117 
22181 
22191 
22199 
22186 
22199 
22196 
22190 
22196 
22253 
22273 
22245 
22258 
22273 
22242 
22283 
22319 
22306 
22308 
22375 
22408 
22389 
22415 
22445 
22450 
22486 
22482 
22525 
22542 
22534 
22550 
22574 
22545 
22573 
22546 
22543 
22567 
22543 
22501 
22425 
22186 
22031 
22029 
22046 
22050 
22048 
22024 
22011 
21999 
22011 
22032 
22032 
22049 
22039 
22039 
22007 
21965 
21986 
22024 
21997 
22025 
21992 
21982 
22001 
22005 
22021 
22008 
21974 
21968 
21966 
21962 
21979 
21978 
21986 
22008 
22052 
22295 
22377 
22310 
22247 
22214 
22170 
22145 
22147 
22093 
22096 
22071 
22067 
22105 
22109 
22101 
22113 
22107 
22069 
22066 
22091 
22097 
22061 
22073 
22083 
22094 
22110 
22088 
22101 
22103 
22078 
22072 
22125 
22109 
22087 
22109 
22082 
22114 
22085 
22088 
22103 
22118 
22100 
22088 
22103 
22109 
22064 
22070 
22080 
22089 
22106 
22120 
22083 
22106 
22129 
22117 
22099 
22124 
22140 
22153 
22099 
22153 
22138 
22122 
22142 
22162 
22181 
22180 
22180 
22198 
22213 
22229 
22256 
22256 
22261 
22303 
22286 
22256 
22285 
22261 
22188 
22198 
22183 
22181 
22175 
22129 
22164 
22169 
22152 
22156 
22185 
22143 
22145 
22147 
22129 
22145 
22157 
22142 
22111 
22127 
22185 
22279 
22504 
22788 
22928 
22924 
22825 
22667 
22393 
22141 
22169 
22225 
22234 
22251 
22221 
22224 
22243 
22201 
22190 
22201 
22210 
22231 
22229 
22221 
22263 
22231 
22230 
22266 
22260 
22275 
22265 
22272 
22276 
22320 
22362 
22340 
22351 
22354 
22321 
22320 
22356 
22344 
22365 
22364 
22361 
22413 
22428 
22402 
22405 
22434 
22434 
22428 
22440 
22447 
22460 
22482 
22486 
22504 
22517 
22547 
22555 
22584 
22600 
22588 
22614 
22634 
22650 
22663 
22666 
22715 
22715 
22716 
22705 
22624 
22307 
22228 
22214 
22207 
22251 
22215 
22193 
22173 
22152 
22172 
22174 
22115 
22123 
22143 
22126 
22131 
22134 
22131 
22175 
22159 
22152 
22195 
22188 
22147 
22165 
22205 
22191 
22206 
22219 
22221 
22237 
22223 
22232 
22230 
22397 
22606 
22529 
22520 
22532 
22467 
22457 
22445 
22446 
22420 
22406 
22393 
22420 
22411 
22402 
22409 
22397 
22405 
22393 
22354 
22333 
22339 
22326 
22331 
22312 
22335 
22294 
22257 
22306 
22282 
22285 
22282 
22283 
22300 
22314 
22291 
22286 
22321 
22290 
22296 
22270 
22250 
22282 
22252 
22261 
22252 
22292 
22272 
22270 
22285 
22283 
22279 
22302 
22297 
22339 
22303 
22280 
22300 
22324 
22329 
22313 
22325 
22354 
22362 
22307 
22293 
22345 
22367 
22383 
22382 
22387 
22400 
22392 
22396 
22399 
22435 
22399 
22394 
22390 
22367 
22351 
22316 
22312 
22321 
22301 
22285 
22283 
22313 
22306 
22284 
22284 
22324 
22332 
22312 
22318 
22322 
22264 
22208 
22224 
22326 
22517 
22725 
22946 
23085 
23061 
22930 
22722 
22423 
22303 
22346 
22369 
22341 
22344 
22343 
22283 
22267 
22268 
22261 
22272 
22289 
22283 
22271 
22256 
22258 
22279 
22289 
22303 
22297 
22301 
22329 
22335 
22336 
22347 
22364 
22369 
22395 
22375 
22376 
22389 
22406 
22419 
22428 
22480 
22484 
22446 
22429 
22484 
22504 
22491 
22516 
22559 
22569 
22561 
22610 
22631 
22618 
22640 
22698 
22722 
22727 
22763 
22806 
22785 
22819 
22825 
22869 
22833 
22866 
22859 
22858 
22783 
22491 
22371 
22420 
22432 
22430 
22413 
22421 
22387 
22339 
22356 
22342 
22334 
22350 
22339 
22336 
22334 
22331 
22349 
22357 
22363 
22367 
22334 
22346 
22328 
22365 
22397 
22335 
22353 
22351 
22374 
22406 
22370 
22340 
22346 
22374 
22358 
22359 
22386 
22403 
22456 
22721 
22733 
22676 
22647 
22631 
22584 
22542 
22535 
22575 
22578 
22545 
22493 
22514 
22516 
22527 
22538 
22534 
22507 
22517 
22504 
22506 
22506 
22536 
22490 
22511 
22550 
22517 
22499 
22502 
22509 
22510 
22485 
22491 
22522 
22485 
22505 
22503 
22516 
22520 
22538 
22519 
22542 
22513 
22493 
22507 
22524 
22555 
22551 
22542 
22567 
22561 
22573 
22597 
22592 
22597 
22625 
22652 
22665 
22707 
22719 
22757 
22763 
22727 
22744 
22764 
22795 
22809 
22857 
22829 
22825 
22891 
22896 
22895 
22876 
22884 
22877 
22831 
22824 
22778 
22743 
22752 
22697 
22643 
22661 
22640 
22602 
22570 
22607 
22549 
22554 
22542 
22509 
22462 
22455 
22427 
22375 
22308 
22359 
22485 
22630 
22887 
23131 
23199 
23116 
23029 
22808 
22542 
22440 
22505 
22488 
22503 
22487 
22468 
22429 
22452 
22479 
22460 
22481 
22479 
22470 
22472 
22448 
22500 
22507 
22540 
22542 
22559 
22587 
22598 
22610 
22663 
22684 
22678 
22727 
22649 
22664 
22624 
22620 
22607 
22607 
22563 
22532 
22523 
22540 
22565 
22517 
22516 
22574 
22577 
22574 
22588 
22616 
22667 
22670 
22704 
22720 
22716 
22749 
22785 
22783 
22806 
22826 
22824 
22853 
22878 
22917 
22948 
22784 
22533 
22591 
22655 
22672 
22707 
22724 
22710 
22684 
22672 
22636 
22623 
22607 
22588 
22576 
22572 
22587 
22610 
22604 
22584 
22591 
22610 
22600 
22596 
22620 
22614 
22615 
22639 
22667 
22673 
22640 
22668 
22643 
22647 
22652 
22638 
22599 
22615 
22619 
22635 
22634 
22700 
22986 
22947 
22881 
22856 
22816 
22785 
22739 
22703 
22723 
22673 
22695 
22679 
22651 
22692 
22654 
22692 
22632 
22635 
22626 
22613 
22597 
22608 
22611 
22592 
22578 
22581 
22568 
22541 
22559 
22532 
22519 
22547 
22536 
22502 
22534 
22512 
22574 
22553 
22561 
22586 
22591 
22576 
22542 
22555 
22554 
22537 
22531 
22541 
22532 
22546 
22561 
22546 
22529 
22556 
22543 
22528 
22527 
22530 
22532 
22546 
22561 
22544 
22544 
22561 
22548 
22586 
22554 
22590 
22610 
22592 
22566 
22583 
22608 
22596 
22616 
22626 
22621 
22617 
22626 
22620 
22627 
22653 
22625 
22609 
22584 
22557 
22512 
22560 
22547 
22547 
22535 
22558 
22568 
22499 
22493 
22500 
22495 
22484 
22494 
22532 
22509 
22455 
22397 
22443 
22541 
22715 
22945 
23202 
23313 
23273 
23164 
22986 
22730 
22544 
22527 
22559 
22549 
22528 
22480 
22507 
22496 
22471 
22458 
22445 
22463 
22475 
22447 
22441 
22436 
22439 
22444 
22396 
22449 
22434 
22429 
22445 
22443 
22451 
22429 
22431 
22439 
22441 
22446 
22433 
22442 
22438 
22443 
22458 
22450 
22450 
22462 
22451 
22434 
22459 
22482 
22471 
22499 
22521 
22531 
22536 
22602 
22625 
22613 
22665 
22677 
22716 
22750 
22764 
22770 
22773 
22870 
22856 
22839 
22841 
22649 
22462 
22490 
22508 
22568 
22532 
22515 
22499 
22472 
22467 
22401 
22412 
22420 
22429 
22425 
22428 
22473 
22447 
22494 
22534 
22507 
22531 
22549 
22593 
22612 
22648 
22668 
22676 
22729 
22761 
22778 
22790 
22793 
22771 
22777 
22788 
22788 
22795 
22845 
22942 
23236 
23171 
23130 
23113 
23058 
23048 
23027 
23029 
23032 
22975 
22929 
22958 
22964 
22964 
22919 
22894 
22917 
22912 
22888 
22869 
22901 
22900 
22846 
22848 
22849 
22898 
22830 
22830 
22857 
22861 
22846 
22790 
22801 
22816 
22785 
22740 
22765 
22804 
22780 
22750 
22718 
22777 
22740 
22753 
22753 
22784 
22793 
22750 
22716 
22775 
22802 
22780 
22756 
22782 
22866 
22803 
22752 
22808 
22846 
22826 
22769 
22802 
22849 
22841 
22833 
22850 
22860 
22898 
22840 
22854 
22885 
22872 
22873 
22889 
22876 
22858 
22846 
22829 
22810 
22765 
22724 
22712 
22719 
22707 
22651 
22666 
22672 
22632 
22594 
22584 
22622 
22588 
22547 
22532 
22505 
22489 
22447 
22400 
22430 
22568 
22723 
22938 
23174 
23259 
23229 
23050 
22801 
22526 
22473 
22491 
22541 
22578 
22600 
22615 
22617 
22633 
22687 
22734 
22743 
22789 
22794 
22819 
22826 
22818 
22841 
22809 
22793 
22797 
22794 
22790 
22791 
22799 
22777 
22804 
22808 
22807 
22854 
22839 
22829 
22828 
22836 
22866 
22904 
22889 
22900 
22945 
22975 
22988 
22994 
23043 
23035 
23073 
23095 
23121 
23130 
23136 
23146 
23157 
23177 
23210 
23230 
23256 
23258 
23274 
23268 
23304 
23325 
23342 
23291 
23261 
23104 
22883 
22938 
22952 
22915 
22912 
22908 
22898 
22850 
22838 
22813 
22800 
22805 
22807 
22819 
22804 
22852 
22870 
22836 
22820 
22841 
22835 
22840 
22803 
22841 
22839 
22874 
22854 
22854 
22886 
22867 
22859 
22869 
22866 
22854 
22859 
22886 
22861 
22833 
22856 
22917 
23215 
23218 
23137 
23061 
22943 
22847 
22811 
22785 
22746 
22692 
22675 
22635 
22610 
22556 
22524 
22524 
22496 
22488 
22482 
22455 
22467 
22478 
22490 
22511 
22510 
22498 
22525 
22537 
22564 
22579 
22597 
22584 
22613 
22633 
22604 
22586 
22590 
22517 
22457 
22470 
22592 
22673 
22712 
22724 
22708 
22708 
22735 
22754 
22748 
22760 
22758 
22795 
22813 
22782 
22800 
22804 
22826 
22791 
22819 
22803 
22813 
22837 
22784 
22731 
22734 
22715 
22749 
22787 
22796 
22763 
22769 
22830 
22853 
22904 
22907 
22945 
22939 
22744 
22534 
22578 
22634 
22722 
22756 
22770 
22807 
22860 
22839 
22844 
22882 
22847 
22835 
22845 
22854 
22824 
22830 
22821 
22838 
22822 
22821 
22795 
22805 
22778 
22742 
22700 
22712 
22839 
22963 
23135 
23401 
23492 
23441 
23315 
23155 
22907 
22720 
22729 
22773 
22816 
22827 
22786 
22765 
22776 
22767 
22754 
22744 
22764 
22760 
22785 
22760 
22778 
22789 
22761 
22748 
22728 
22761 
22775 
22747 
22742 
22765 
22768 
22766 
22805 
22824 
22865 
22817 
22847 
22901 
22927 
22909 
22905 
22939 
23019 
23004 
22993 
23002 
23020 
23036 
23057 
23122 
23121 
23105 
23144 
23191 
23222 
23233 
23225 
23249 
23325 
23301 
23338 
23319 
23376 
23353 
23347 
23350 
23376 
23373 
23324 
23301 
23070 
22841 
22870 
22887 
22878 
22876 
22886 
22848 
22841 
22895 
22877 
22803 
22838 
22897 
22872 
22880 
22849 
22874 
22868 
22880 
22878 
22891 
22872 
22853 
22873 
22858 
22853 
22868 
22836 
22832 
22846 
22839 
22768 
22766 
22763 
22729 
22652 
22667 
22719 
22732 
22706 
22782 
23100 
23047 
22951 
22914 
22902 
22853 
22845 
22824 
22821 
22813 
22799 
22779 
22774 
22815 
22791 
22772 
22779 
22809 
22802 
22740 
22771 
22798 
22813 
22741 
22754 
22804 
22772 
22756 
22790 
22799 
22788 
22807 
22770 
22782 
22777 
22746 
22697 
22720 
22771 
22737 
22699 
22750 
22780 
22767 
22749 
22747 
22834 
22823 
22787 
22800 
22879 
22886 
22887 
22863 
22885 
22940 
22956 
22935 
22984 
22972 
22956 
22945 
22934 
22981 
22989 
22944 
22945 
22932 
22874 
22847 
22865 
22849 
22813 
22794 
22791 
22797 
22761 
22740 
22731 
22773 
22779 
22747 
22712 
22726 
22774 
22713 
22628 
22674 
22788 
22925 
23154 
23409 
23529 
23503 
23415 
23225 
22994 
22857 
22869 
22894 
22930 
22951 
22923 
22940 
22979 
22972 
22954 
22957 
22994 
23017 
23015 
23038 
23044 
23062 
23104 
23077 
23088 
23115 
23127 
23115 
23110 
23113 
23161 
23189 
23220 
23261 
23199 
23237 
23239 
23214 
23283 
23290 
23269 
23292 
23288 
23324 
23309 
23313 
23363 
23385 
23362 
23364 
23396 
23402 
23452 
23470 
23495 
23561 
23595 
23621 
23686 
23710 
23735 
23734 
23742 
23746 
23757 
23749 
23718 
23735 
23691 
23409 
23198 
23246 
23246 
23231 
23218 
23214 
23166 
23203 
23180 
23182 
23210 
23214 
23181 
23222 
23187 
23158 
23213 
23165 
23210 
23203 
23193 
23200 
23197 
23154 
23178 
23196 
23162 
23164 
23151 
23123 
23154 
23165 
23154 
23154 
23149 
23135 
23138 
23135 
23111 
23138 
23130 
23130 
23184 
23449 
23511 
23401 
23378 
23387 
23350 
23329 
23263 
23241 
23229 
23205 
23155 
23172 
23180 
23144 
23105 
23116 
23182 
23181 
23234 
23264 
23329 
23374 
23384 
23460 
23426 
23387 
23328 
23311 
23294 
23246 
23215 
23214 
23198 
23171 
23140 
23112 
23069 
23106 
23110 
23069 
23072 
23050 
23054 
23015 
23039 
23047 
23033 
23042 
23041 
23078 
23045 
23037 
23078 
23081 
23083 
23083 
23036 
23061 
23028 
23001 
23007 
22979 
22985 
22972 
22953 
22933 
22952 
22944 
22942 
22943 
22954 
22927 
22902 
22908 
22939 
22941 
22921 
22934 
22950 
22958 
22941 
22909 
22911 
22972 
23080 
23282 
23577 
23782 
23808 
23743 
23681 
23463 
23206 
23119 
23154 
23190 
23206 
23208 
23187 
23188 
23174 
23155 
23152 
23147 
23098 
23097 
23116 
23084 
23075 
23098 
23136 
23206 
23182 
23184 
23193 
23226 
23228 
23257 
23248 
23268 
23298 
23301 
23306 
23310 
23346 
23352 
23359 
23377 
23403 
23397 
23412 
23447 
23455 
23497 
23491 
23491 
23527 
23549 
23569 
23546 
23645 
23672 
23678 
23680 
23702 
23717 
23739 
23751 
23764 
23796 
23793 
23778 
23818 
23807 
23794 
23769 
23735 
23572 
23271 
23288 
23272 
23294 
23286 
23279 
23247 
23248 
23270 
23264 
23257 
23277 
23273 
23219 
23214 
23255 
23277 
23276 
23262 
23277 
23297 
23292 
23304 
23275 
23273 
23290 
23267 
23266 
23289 
23277 
23265 
23265 
23274 
23266 
23238 
23227 
23271 
23281 
23282 
23312 
23248 
23247 
23253 
23325 
23670 
23685 
23598 
23546 
23511 
23488 
23496 
23468 
23465 
23478 
23452 
23412 
23402 
23433 
23432 
23408 
23379 
23382 
23398 
23366 
23343 
23350 
23416 
23408 
23311 
23356 
23383 
23320 
23352 
23351 
23358 
23379 
23343 
23309 
23297 
23277 
23292 
23227 
23233 
23247 
23202 
23180 
23194 
23194 
23168 
23155 
23144 
23218 
23206 
23152 
23178 
23210 
23198 
23199 
23230 
23252 
23299 
23296 
23269 
23297 
23307 
23317 
23330 
23322 
23331 
23298 
23280 
23284 
23298 
23286 
23283 
23294 
23311 
23276 
23236 
23290 
23318 
23288 
23278 
23306 
23300 
23257 
23266 
23210 
23191 
23245 
23385 
23580 
23860 
24095 
24155 
24094 
23958 
23750 
23498 
23427 
23466 
23495 
23473 
23465 
23457 
23469 
23445 
23395 
23414 
23415 
23440 
23456 
23444 
23484 
23462 
23477 
23462 
23504 
23528 
23501 
23524 
23560 
23554 
23572 
23543 
23560 
23551 
23568 
23573 
23553 
23589 
23589 
23602 
23602 
23604 
23622 
23645 
23648 
23691 
23702 
23682 
23684 
23712 
23785 
23786 
23812 
23834 
23886 
23894 
23896 
23925 
23952 
24027 
24051 
24052 
24112 
24115 
24158 
24179 
24179 
24226 
24257 
24195 
24139 
23835 
23736 
23715 
23773 
23736 
23712 
23702 
23696 
23718 
23679 
23661 
23667 
23674 
23681 
23688 
23690 
23731 
23723 
23742 
23731 
23707 
23700 
23716 
23698 
23691 
23718 
23714 
23714 
23695 
23701 
23725 
23774 
23745 
23736 
23762 
23741 
23726 
23746 
23732 
23729 
23720 
23677 
23597 
23514 
23599 
23953 
24048 
23919 
23923 
23915 
23883 
23857 
23850 
23840 
23812 
23802 
23808 
23770 
23762 
23744 
23733 
23737 
23732 
23732 
23701 
23665 
23702 
23702 
23681 
23645 
23620 
23666 
23636 
23607 
23615 
23636 
23614 
23575 
23608 
23608 
23601 
23597 
23594 
23610 
23578 
23585 
23610 
23616 
23575 
23597 
23569 
23578 
23593 
23571 
23582 
23585 
23567 
23556 
23494 
23528 
23533 
23510 
23452 
23497 
23526 
23531 
23502 
23459 
23480 
23495 
23497 
23490 
23490 
23516 
23517 
23524 
23581 
23564 
23581 
23572 
23589 
23590 
23614 
23633 
23645 
23659 
23661 
23644 
23607 
23630 
23621 
23630 
23581 
23592 
23640 
23640 
23621 
23617 
23600 
23592 
23607 
23678 
23677 
23622 
23624 
23651 
23630 
23628 
23717 
23858 
24112 
24410 
24548 
24583 
24506 
24303 
24031 
23832 
23821 
23836 
23795 
23821 
23808 
23776 
23740 
23749 
23760 
23769 
23755 
23713 
23735 
23788 
23774 
23714 
23746 
23778 
23774 
23761 
23777 
23787 
23801 
23823 
23805 
23826 
23868 
23870 
23816 
23845 
23843 
23899 
23887 
23888 
23879 
23907 
23925 
23950 
24013 
23963 
23976 
24008 
24009 
24032 
24034 
24053 
24105 
24089 
24106 
24160 
24168 
24178 
24202 
24225 
24243 
24253 
24256 
24270 
24259 
24283 
24279 
24284 
24299 
24259 
24222 
24152 
24159 
24128 
24029 
24007 
23964 
23959 
23937 
23905 
23901 
23911 
23908 
23877 
23848 
23877 
23911 
23867 
23820 
23862 
23886 
23876 
23879 
23865 
23891 
23867 
23858 
23847 
23889 
23883 
23891 
23874 
23947 
23878 
23906 
23932 
23917 
23921 
23930 
23915 
23958 
23946 
23925 
23917 
23900 
23921 
23932 
23929 
23950 
23941 
23918 
23891 
23934 
23966 
23939 
23945 
23964 
23969 
23935 
23922 
23945 
23931 
23915 
23938 
23947 
23939 
23978 
24006 
23981 
24009 
24024 
24007 
23949 
23979 
24018 
23951 
23942 
24003 
24013 
23988 
23945 
23988 
24006 
23968 
23971 
23972 
23980 
23976 
23963 
23943 
23990 
23980 
23950 
23943 
23988 
23997 
23972 
23972 
23968 
23993 
23972 
23957 
23980 
24015 
24064 
24000 
24017 
24062 
24058 
24035 
24052 
24104 
24124 
24103 
24104 
24140 
24158 
24109 
24104 
24095 
24097 
24098 
24067 
24068 
24083 
24056 
24064 
24057 
24043 
24031 
23997 
23974 
23965 
23975 
24029 
23993 
24017 
24010 
23976 
23890 
23921 
24056 
24175 
24363 
24622 
24752 
24725 
24636 
24479 
24253 
24045 
24027 
24086 
24089 
24117 
24088 
24058 
24079 
24085 
24089 
24098 
24097 
24080 
24088 
24069 
24057 
24102 
24120 
24110 
24151 
24135 
24113 
24124 
24107 
24157 
24144 
24130 
24139 
24138 
24135 
24133 
24159 
24172 
24190 
24194 
24186 
24206 
24255 
24225 
24195 
24285 
24293 
24290 
24272 
24324 
24328 
24351 
24339 
24383 
24412 
24433 
24421 
24470 
24522 
24512 
24486 
24506 
24613 
24583 
24550 
24577 
24593 
24569 
24553 
24477 
24452 
24458 
24394 
24326 
24341 
24307 
24282 
24219 
24208 
24208 
24164 
24134 
24151 
24150 
24149 
24129 
24113 
24108 
24140 
24107 
24076 
24118 
24096 
24104 
24108 
24141 
24133 
24083 
24092 
24137 
24119 
24122 
24104 
24125 
24171 
24147 
24121 
24139 
24152 
24119 
24119 
24154 
24164 
24200 
24167 
24194 
24202 
24169 
24152 
24171 
24169 
24154 
24144 
24113 
24190 
24183 
24154 
24130 
24160 
24198 
24147 
24143 
24148 
24160 
24152 
24144 
24152 
24187 
24167 
24127 
24144 
24137 
24168 
24176 
24153 
24192 
24142 
24133 
24137 
24160 
24164 
24116 
24134 
24154 
24177 
24149 
24136 
24154 
24197 
24189 
24147 
24146 
24196 
24209 
24171 
24191 
24191 
24195 
24166 
24189 
24200 
24190 
24164 
24211 
24220 
24189 
24210 
24224 
24240 
24289 
24289 
24261 
24253 
24273 
24257 
24288 
24213 
24233 
24203 
24165 
24149 
24172 
24182 
24123 
24107 
24158 
24154 
24136 
24119 
24167 
24194 
24165 
24137 
24145 
24173 
24182 
24058 
24044 
24149 
24294 
24411 
24704 
24921 
24939 
24869 
24715 
24481 
24242 
24221 
24214 
24253 
24285 
24227 
24165 
24188 
24234 
24213 
24203 
24202 
24208 
24217 
24191 
24158 
24187 
24213 
24197 
24204 
24231 
24235 
24214 
24190 
24217 
24254 
24219 
24224 
24234 
24245 
24236 
24259 
24262 
24264 
24247 
24275 
24284 
24312 
24342 
24326 
24340 
24382 
24409 
24403 
24412 
24474 
24463 
24450 
24454 
24515 
24548 
24547 
24579 
24619 
24613 
24622 
24604 
24653 
24679 
24665 
24659 
24684 
24693 
24701 
24651 
24593 
24591 
24555 
24460 
24421 
24386 
24360 
24343 
24265 
24282 
24290 
24226 
24195 
24235 
24239 
24183 
24178 
24194 
24244 
24240 
24210 
24200 
24218 
24237 
24241 
24214 
24239 
24239 
24207 
24216 
24237 
24232 
24228 
24221 
24246 
24238 
24216 
24212 
24243 
24258 
24221 
24233 
24263 
24289 
24275 
24241 
24267 
24306 
24285 
24279 
24269 
24306 
24296 
24273 
24265 
24274 
24293 
24252 
24261 
24302 
24293 
24250 
24277 
24279 
24275 
24221 
24245 
24266 
24277 
24272 
24208 
24189 
24198 
24214 
24219 
24219 
24241 
24222 
24246 
24205 
24210 
24241 
24242 
24183 
24197 
24216 
24211 
24186 
24194 
24208 
24189 
24195 
24151 
24149 
24128 
24103 
24076 
24111 
24115 
24075 
24050 
24057 
24062 
24034 
24049 
24115 
24121 
24109 
24065 
24107 
24160 
24193 
24195 
24212 
24249 
24273 
24280 
24286 
24334 
24259 
24266 
24261 
24343 
24331 
24293 
24292 
24275 
24263 
24250 
24185 
24220 
24269 
24249 
24238 
24224 
24235 
24221 
24194 
24251 
24278 
24268 
24272 
24249 
24268 
24213 
24160 
24214 
24396 
24566 
24823 
25025 
25109 
25053 
24951 
24725 
24498 
24437 
24429 
24395 
24431 
24455 
24440 
24358 
24372 
24419 
24378 
24383 
24387 
24368 
24334 
24339 
24354 
24356 
24362 
24327 
24322 
24367 
24396 
24350 
24361 
24405 
24390 
24371 
24409 
24402 
24421 
24382 
24418 
24456 
24435 
24474 
24416 
24449 
24475 
24485 
24477 
24494 
24536 
24557 
24510 
24504 
24533 
24556 
24544 
24554 
24605 
24656 
24631 
24668 
24697 
24730 
24733 
24730 
24761 
24785 
24759 
24765 
24746 
24773 
24774 
24677 
24650 
24598 
24560 
24506 
24452 
24477 
24445 
24391 
24357 
24359 
24370 
24347 
24317 
24326 
24336 
24329 
24307 
24319 
24367 
24362 
24320 
24326 
24365 
24332 
24323 
24348 
24366 
24348 
24334 
24362 
24344 
24354 
24328 
24300 
24327 
24355 
24336 
24327 
24337 
24370 
24322 
24309 
24341 
24367 
24317 
24300 
24330 
24355 
24352 
24361 
24350 
24393 
24431 
24413 
24404 
24426 
24436 
24432 
24391 
24394 
24403 
24397 
24391 
24369 
24398 
24418 
24401 
24405 
24385 
24373 
24378 
24350 
24399 
24373 
24373 
24357 
24404 
24407 
24373 
24362 
24383 
24380 
24340 
24311 
24345 
24369 
24352 
24375 
24378 
24372 
24303 
24307 
24307 
24303 
24287 
24249 
24310 
24372 
24338 
24292 
24293 
24339 
24329 
24295 
24291 
24329 
24310 
24319 
24304 
24330 
24356 
24367 
24346 
24380 
24406 
24380 
24369 
24367 
24388 
24424 
24366 
24349 
24366 
24310 
24290 
24297 
24303 
24300 
24274 
24273 
24307 
24298 
24265 
24237 
24240 
24285 
24258 
24233 
24271 
24299 
24229 
24184 
24209 
24352 
24473 
24673 
24889 
24989 
24951 
24839 
24627 
24386 
24279 
24277 
24284 
24345 
24324 
24345 
24286 
24301 
24339 
24310 
24273 
24298 
24326 
24309 
24290 
24293 
24341 
24316 
24294 
24295 
24375 
24339 
24321 
24332 
24355 
24347 
24348 
24344 
24390 
24411 
24387 
24379 
24412 
24406 
24395 
24423 
24430 
24470 
24431 
24433 
24451 
24523 
24517 
24518 
24533 
24572 
24550 
24561 
24589 
24638 
24699 
24668 
24676 
24707 
24729 
24752 
24724 
24758 
24788 
24785 
24775 
24779 
24795 
24766 
24721 
24688 
24653 
24591 
24515 
24488 
24515 
24466 
24401 
24361 
24369 
24363 
24331 
24292 
24366 
24355 
24335 
24321 
24319 
24292 
24278 
24313 
24344 
24311 
24300 
24293 
24305 
24327 
24324 
24303 
24305 
24306 
24300 
24294 
24315 
24330 
24339 
24323 
24299 
24321 
24350 
24346 
24339 
24368 
24367 
24324 
24315 
24341 
24379 
24330 
24309 
24329 
24370 
24352 
24308 
24334 
24394 
24361 
24329 
24337 
24344 
24324 
24312 
24329 
24347 
24334 
24305 
24335 
24354 
24371 
24307 
24310 
24323 
24337 
24329 
24323 
24338 
24344 
24338 
24327 
24316 
24347 
24372 
24334 
24322 
24344 
24323 
24281 
24282 
24320 
24344 
24299 
24299 
24322 
24323 
24299 
24321 
24330 
24363 
24340 
24317 
24325 
24382 
24358 
24317 
24314 
24333 
24349 
24353 
24357 
24388 
24386 
24366 
24344 
24364 
24384 
24378 
24343 
24335 
24345 
24312 
24283 
24317 
24356 
24308 
24289 
24314 
24353 
24330 
24310 
24276 
24343 
24337 
24296 
24294 
24329 
24371 
24328 
24246 
24233 
24290 
24405 
24556 
24800 
25082 
25134 
25049 
24915 
24703 
24452 
24363 
24369 
24407 
24426 
24372 
24340 
24334 
24330 
24293 
24278 
24328 
24351 
24318 
24293 
24343 
24341 
24320 
24280 
24313 
24350 
24315 
24320 
24357 
24417 
24405 
24370 
24408 
24428 
24397 
24418 
24434 
24443 
24473 
24464 
24482 
24524 
24534 
24498 
24527 
24534 
24560 
24522 
24539 
24558 
24611 
24635 
24636 
24665 
24713 
24713 
24755 
24769 
24802 
24892 
24947 
24914 
24952 
24954 
24918 
24891 
24921 
24922 
24868 
24820 
24820 
24791 
24704 
24653 
24591 
24602 
24541 
24481 
24438 
24441 
24412 
24401 
24396 
24380 
24379 
24328 
24326 
24334 
24349 
24310 
24292 
24359 
24390 
24347 
24308 
24329 
24325 
24333 
24306 
24323 
24303 
24303 
24329 
24329 
24318 
24344 
24329 
24353 
24370 
24411 
24411 
24426 
24500 
24494 
24510 
24524 
24549 
24535 
24586 
24574 
24527 
24551 
24563 
24541 
24545 
24550 
24507 
24486 
24501 
24472 
24472 
24476 
24416 
24439 
24440 
24416 
24381 
24356 
24336 
24330 
24313 
24339 
24316 
24292 
24298 
24302 
24337 
24324 
24344 
24365 
24443 
24471 
24500 
24554 
24572 
24625 
24717 
24709 
24761 
24792 
24776 
24770 
24790 
24806 
24859 
24846 
24834 
24859 
24863 
24824 
24801 
24778 
24697 
24661 
24597 
24539 
24514 
24478 
24483 
24440 
24424 
24431 
24419 
24414 
24421 
24388 
24362 
24349 
24389 
24409 
24401 
24428 
24444 
24483 
24444 
24472 
24501 
24484 
24473 
24432 
24467 
24484 
24476 
24521 
24539 
24511 
24513 
24513 
24563 
24577 
24548 
24535 
24554 
24584 
24578 
24564 
24536 
24526 
24563 
24631 
24816 
25011 
25252 
25351 
25310 
25274 
25124 
24820 
24614 
24644 
24681 
24684 
24627 
24644 
24675 
24664 
24597 
24612 
24602 
24602 
24590 
24586 
24620 
24635 
24606 
24595 
24596 
24564 
24568 
24607 
24617 
24633 
24625 
24633 
24638 
24598 
24617 
24614 
24659 
24646 
24643 
24635 
24661 
24653 
24661 
24664 
24684 
24650 
24665 
24623 
24667 
24710 
24705 
24698 
24694 
24741 
24787 
24774 
24774 
24815 
24812 
24836 
24815 
24846 
24896 
24856 
24867 
24891 
24909 
24876 
24844 
24814 
24837 
24791 
24714 
24686 
24631 
24580 
24580 
24536 
24493 
24463 
24445 
24400 
24420 
24442 
24418 
24369 
24356 
24382 
24422 
24403 
24383 
24406 
24370 
24328 
24395 
24421 
24401 
24401 
24398 
24431 
24455 
24446 
24458 
24430 
24422 
24431 
24418 
24436 
24472 
24468 
24444 
24450 
24516 
24518 
24480 
24460 
24489 
24456 
24430 
24449 
24484 
24483 
24450 
24450 
24474 
24462 
24478 
24462 
24485 
24485 
24488 
24454 
24466 
24453 
24412 
24426 
24441 
24431 
24444 
24445 
24429 
24427 
24420 
24438 
24405 
24445 
24467 
24453 
24447 
24482 
24487 
24489 
24471 
24478 
24509 
24487 
24445 
24447 
24488 
24483 
24485 
24504 
24506 
24494 
24515 
24549 
24558 
24549 
24541 
24559 
24556 
24570 
24542 
24548 
24556 
24564 
24516 
24446 
24493 
24512 
24487 
24441 
24457 
24495 
24480 
24467 
24482 
24492 
24457 
24456 
24478 
24458 
24432 
24424 
24422 
24390 
24373 
24397 
24548 
24712 
24918 
25084 
25098 
25021 
24938 
24711 
24456 
24411 
24452 
24490 
24499 
24522 
24530 
24494 
24460 
24472 
24483 
24483 
24466 
24459 
24459 
24437 
24473 
24446 
24472 
24489 
24485 
24482 
24497 
24497 
24495 
24475 
24479 
24500 
24535 
24515 
24551 
24543 
24565 
24537 
24534 
24552 
24559 
24567 
24592 
24638 
24684 
24678 
24662 
24673 
24688 
24715 
24741 
24749 
24802 
24785 
24793 
24816 
24830 
24836 
24848 
24900 
24914 
24922 
24911 
24939 
24959 
24931 
24905 
24883 
24878 
24867 
24797 
24752 
24680 
24638 
24629 
24619 
24576 
24539 
24540 
24507 
24505 
24520 
24502 
24475 
24458 
24476 
24473 
24443 
24446 
24456 
24462 
24446 
24455 
24483 
24439 
24446 
24435 
24400 
24431 
24448 
24390 
24426 
24425 
24346 
24296 
24345 
24388 
24419 
24378 
24372 
24377 
24377 
24332 
24308 
24391 
24393 
24397 
24425 
24400 
24456 
24458 
24447 
24454 
24455 
24439 
24433 
24424 
24435 
24462 
24465 
24457 
24428 
24486 
24464 
24412 
24428 
24412 
24422 
24452 
24461 
24480 
24480 
24467 
24476 
24488 
24489 
24462 
24463 
24464 
24463 
24428 
24442 
24461 
24479 
24452 
24444 
24472 
24450 
24452 
24460 
24497 
24481 
24456 
24446 
24470 
24502 
24489 
24498 
24531 
24481 
24460 
24470 
24518 
24544 
24540 
24596 
24615 
24627 
24626 
24633 
24658 
24702 
24683 
24642 
24673 
24722 
24711 
24642 
24650 
24614 
24665 
24694 
24652 
24640 
24675 
24649 
24628 
24638 
24645 
24646 
24635 
24591 
24626 
24650 
24612 
24587 
24607 
24698 
24791 
24973 
25197 
25371 
25344 
25241 
25146 
24857 
24595 
24553 
24550 
24575 
24595 
24585 
24677 
24690 
24673 
24718 
24699 
24694 
24724 
24679 
24673 
24678 
24684 
24680 
24654 
24654 
24654 
24632 
24613 
24643 
24666 
24662 
24629 
24642 
24642 
24646 
24649 
24666 
24653 
24648 
24688 
24727 
24697 
24707 
24710 
24724 
24777 
24768 
24762 
24799 
24834 
24840 
24859 
24886 
24889 
24926 
24944 
24947 
24957 
25007 
25026 
25023 
25029 
25065 
25045 
25030 
24984 
25013 
25020 
25006 
24976 
24939 
24890 
24824 
24788 
24780 
24728 
24661 
24621 
24623 
24627 
24595 
24633 
24708 
24712 
24777 
24795 
24816 
24879 
24898 
24898 
24904 
24966 
24979 
24976 
24985 
25011 
24993 
25002 
25001 
25052 
25065 
25079 
25082 
25139 
25152 
25145 
25169 
25188 
25203 
25203 
25182 
25232 
25208 
25183 
25169 
25166 
25158 
25098 
25045 
25011 
24991 
24992 
24956 
24916 
24941 
24945 
24980 
24939 
24924 
24912 
24923 
24884 
24929 
24902 
24908 
24892 
24912 
24880 
24884 
24845 
24852 
24842 
24836 
24803 
24785 
24815 
24771 
24738 
24742 
24743 
24737 
24731 
24734 
24703 
24715 
24721 
24744 
24731 
24736 
24748 
24715 
24726 
24725 
24712 
24707 
24729 
24711 
24708 
24658 
24642 
24659 
24676 
24675 
24629 
24639 
24688 
24701 
24712 
24729 
24754 
24755 
24755 
24794 
24837 
24860 
24836 
24872 
24906 
24864 
24824 
24833 
24841 
24818 
24794 
24794 
24804 
24793 
24785 
24774 
24764 
24769 
24764 
24734 
24766 
24784 
24780 
24722 
24759 
24765 
24772 
24715 
24684 
24744 
24805 
25007 
25252 
25508 
25576 
25510 
25467 
25289 
25008 
24868 
24944 
24915 
24901 
24853 
24849 
24895 
24855 
24871 
24857 
24836 
24824 
24845 
24850 
24872 
24875 
24809 
24797 
24841 
24873 
24822 
24824 
24842 
24830 
24831 
24822 
24800 
24811 
24829 
24815 
24801 
24827 
24838 
24819 
24834 
24826 
24850 
24862 
24842 
24851 
24885 
24914 
24897 
24944 
24966 
24971 
25011 
24990 
25058 
25088 
25089 
25108 
25116 
25149 
25148 
25165 
25184 
25217 
25217 
25183 
25213 
25203 
25193 
25147 
25144 
25116 
25096 
25083 
25077 
25066 
25018 
24963 
24919 
24937 
24935 
24933 
24890 
24870 
24866 
24856 
24851 
24873 
24878 
24885 
24876 
24874 
24945 
24938 
24907 
24924 
24963 
24962 
24968 
24982 
24987 
25008 
24950 
24949 
24979 
25009 
25033 
25037 
25087 
25069 
25054 
25024 
25049 
25059 
25061 
25034 
25059 
25110 
25109 
25061 
25108 
25088 
25071 
25074 
25048 
25090 
25057 
24995 
25050 
25068 
25083 
25038 
24993 
25043 
25043 
25022 
25046 
25032 
25021 
25045 
25028 
25085 
25040 
25052 
25044 
25047 
25056 
25021 
25023 
25045 
25045 
25045 
25006 
25025 
25046 
25031 
25035 
25035 
25011 
25012 
25002 
25008 
25029 
25026 
25028 
25024 
25020 
25026 
25017 
25031 
25055 
25081 
25060 
25030 
25035 
25064 
25067 
25025 
25062 
25090 
25066 
25048 
25048 
25074 
25070 
25008 
25027 
25053 
25059 
25077 
25095 
25129 
25101 
25072 
25049 
25113 
25126 
25091 
25094 
25098 
25082 
25078 
25042 
25062 
25062 
25036 
24996 
24986 
25023 
25044 
25005 
25019 
25095 
25076 
25063 
25071 
25107 
25067 
25028 
24991 
25053 
25161 
25324 
25584 
25794 
25852 
25796 
25713 
25521 
25232 
25130 
25121 
25104 
25151 
25077 
25054 
25062 
25054 
25036 
25012 
24965 
24971 
25003 
24979 
24967 
25027 
25034 
24999 
24992 
25017 
25051 
25048 
25045 
25030 
25093 
25133 
25074 
25045 
25138 
25122 
25114 
25132 
25168 
25183 
25217 
25222 
25244 
25280 
25261 
25242 
25272 
25290 
25292 
25287 
25311 
25338 
25326 
25257 
25240 
25333 
25312 
25284 
25392 
25424 
25411 
25491 
25496 
25527 
25550 
25514 
25489 
25490 
25483 
25467 
25412 
25390 
25379 
25372 
25255 
25201 
25248 
25200 
25135 
25102 
25082 
25079 
25101 
25116 
25051 
25100 
25089 
25061 
25078 
25088 
25079 
25094 
25115 
25093 
25122 
25153 
25138 
25152 
25135 
25110 
25115 
25137 
25176 
25120 
25093 
25170 
25138 
25099 
25104 
25120 
25162 
25157 
25172 
25195 
25206 
25186 
25162 
25235 
25220 
25194 
25194 
25191 
25174 
25203 
25194 
25179 
25226 
25194 
25159 
25153 
25189 
25184 
25202 
25207 
25232 
25247 
25165 
25167 
25212 
25199 
25185 
25171 
25177 
25150 
25160 
25167 
25182 
25228 
25165 
25174 
25224 
25218 
25196 
25165 
25164 
25215 
25231 
25227 
25227 
25261 
25252 
25221 
25205 
25242 
25213 
25257 
25205 
25235 
25277 
25242 
25228 
25263 
25307 
25294 
25267 
25293 
25304 
25289 
25310 
25299 
25303 
25293 
25280 
25285 
25286 
25289 
25310 
25274 
25295 
25321 
25343 
25335 
25333 
25365 
25388 
25331 
25374 
25384 
25371 
25328 
25303 
25303 
25260 
25264 
25276 
25262 
25311 
25276 
25247 
25294 
25278 
25256 
25218 
25240 
25251 
25274 
25237 
25257 
25215 
25205 
25234 
25373 
25548 
25844 
26006 
26077 
26035 
25859 
25577 
25337 
25321 
25365 
25341 
25340 
25351 
25357 
25312 
25271 
25280 
25314 
25271 
25292 
25315 
25305 
25264 
25295 
25303 
25296 
25321 
25309 
25292 
25333 
25327 
25274 
25316 
25346 
25329 
25320 
25301 
25335 
25405 
25366 
25333 
25337 
25371 
25358 
25382 
25408 
25414 
25427 
25435 
25454 
25455 
25514 
25495 
25516 
25528 
25531 
25574 
25593 
25613 
25642 
25646 
25653 
25686 
25709 
25699 
25701 
25705 
25719 
25701 
25680 
25724 
25722 
25661 
25620 
25580 
25550 
25516 
25429 
25424 
25403 
25384 
25334 
25325 
25346 
25320 
25298 
25265 
25277 
25304 
25220 
25213 
25222 
25233 
25212 
25254 
25245 
25265 
25189 
25115 
25221 
25239 
25212 
25200 
25215 
25239 
25224 
25146 
25192 
25235 
25237 
25174 
25185 
25230 
25211 
25161 
25162 
25226 
25275 
25207 
25191 
25201 
25236 
25196 
25164 
25212 
25244 
25199 
25164 
25190 
25242 
25234 
25129 
25192 
25252 
25219 
25162 
25184 
25272 
25234 
25185 
25177 
25276 
25281 
25215 
25179 
25273 
25256 
25215 
25246 
25288 
25289 
25245 
25224 
25248 
25263 
25267 
25223 
25244 
25286 
25259 
25218 
25222 
25275 
25291 
25247 
25248 
25305 
25323 
25303 
25241 
25330 
25360 
25262 
25214 
25277 
25277 
25215 
25162 
25170 
25210 
25178 
25118 
25118 
25145 
25193 
25134 
25137 
25171 
25152 
25148 
25162 
25136 
25170 
25143 
25135 
25157 
25165 
25258 
25308 
25481 
25715 
25801 
25722 
25679 
25576 
25316 
25078 
25115 
25206 
25233 
25250 
25280 
25288 
25239 
25199 
25219 
25229 
25257 
25234 
25212 
25243 
25269 
25221 
25192 
25231 
25238 
25254 
25232 
25253 
25294 
25262 
25252 
25257 
25311 
25316 
25285 
25272 
25320 
25338 
25324 
25329 
25338 
25371 
25360 
25311 
25366 
25468 
25457 
25415 
25478 
25460 
25458 
25423 
25467 
25545 
25569 
25551 
25577 
25650 
25657 
25621 
25600 
25675 
25695 
25654 
25655 
25718 
25731 
25666 
25600 
25622 
25635 
25571 
25462 
25454 
25459 
25381 
25299 
25301 
25299 
25252 
25189 
25219 
25249 
25219 
25199 
25164 
25244 
25254 
25180 
25140 
25220 
25323 
25268 
25188 
25256 
25271 
25212 
25209 
25281 
25314 
25273 
25219 
25247 
25301 
25269 
25206 
25265 
25309 
25307 
25278 
25253 
25305 
25326 
25302 
25313 
25354 
25370 
25313 
25302 
25294 
25283 
25282 
25237 
25317 
25340 
25314 
25274 
25319 
25368 
25320 
25280 
25314 
25341 
25334 
25339 
25336 
25341 
25368 
25369 
25328 
25350 
25326 
25351 
25377 
25370 
25399 
25396 
25382 
25390 
25393 
25337 
25310 
25317 
25336 
25388 
25359 
25329 
25374 
25376 
25330 
25362 
25433 
25401 
25362 
25385 
25420 
25410 
25394 
25383 
25446 
25479 
25430 
25400 
25450 
25478 
25438 
25413 
25434 
25416 
25337 
25293 
25291 
25334 
25331 
25291 
25284 
25305 
25288 
25259 
25251 
25270 
25267 
25192 
25170 
25173 
25165 
25117 
25048 
25002 
25058 
25129 
25246 
25503 
25771 
25892 
25827 
25718 
25561 
25337 
25158 
25173 
25232 
25250 
25224 
25176 
25263 
25251 
25229 
25191 
25280 
25269 
25280 
25226 
25250 
25305 
25305 
25270 
25268 
25350 
25321 
25275 
25293 
25351 
25373 
25334 
25312 
25379 
25405 
25363 
25347 
25424 
25465 
25408 
25400 
25472 
25514 
25472 
25429 
25436 
25509 
25533 
25491 
25516 
25553 
25559 
25510 
25568 
25654 
25660 
25647 
25679 
25759 
25750 
25722 
25750 
25822 
25860 
25812 
25804 
25867 
25849 
25785 
25713 
25747 
25777 
25666 
25552 
25513 
25544 
25527 
25443 
25416 
25463 
25449 
25369 
25340 
25394 
25392 
25352 
25303 
25351 
25384 
25353 
25334 
25357 
25393 
25373 
25328 
25383 
25416 
25400 
25346 
25338 
25405 
25473 
25403 
25397 
25447 
25445 
25405 
25402 
25447 
25472 
25450 
25415 
25426 
25456 
25432 
25398 
25508 
25556 
25517 
25490 
25525 
25541 
25539 
25491 
25510 
25556 
25562 
25504 
25475 
25494 
25488 
25439 
25433 
25527 
25504 
25415 
25395 
25421 
25454 
25426 
25341 
25397 
25393 
25376 
25334 
25344 
25372 
25348 
25298 
25288 
25340 
25340 
25292 
25302 
25353 
25320 
25274 
25304 
25380 
25375 
25346 
25289 
25376 
25442 
25383 
25302 
25342 
25429 
25381 
25281 
25328 
25392 
25370 
25266 
25267 
25355 
25381 
25250 
25268 
25399 
25401 
25321 
25323 
25342 
25384 
25349 
25311 
25360 
25415 
25349 
25271 
25294 
25396 
25530 
25655 
25902 
26144 
26122 
26007 
25900 
25681 
25423 
25381 
25445 
25533 
25512 
25433 
25371 
25429 
25442 
25376 
25382 
25412 
25405 
25356 
25329 
25336 
25416 
25366 
25318 
25334 
25436 
25428 
25363 
25369 
25386 
25377 
25385 
25359 
25413 
25458 
25379 
25358 
25412 
25456 
25410 
25411 
25478 
25487 
25444 
25385 
25409 
25543 
25512 
25474 
25536 
25601 
25577 
25547 
25562 
25655 
25677 
25642 
25666 
25735 
25735 
25715 
25727 
25804 
25835 
25776 
25818 
25791 
25821 
25793 
25701 
25665 
25645 
25598 
25537 
25566 
25568 
25500 
25399 
25397 
25415 
25410 
25350 
25334 
25389 
25404 
25336 
25284 
25346 
25326 
25313 
25307 
25322 
25311 
25304 
25296 
25312 
25394 
25331 
25305 
25335 
25372 
25342 
25305 
25299 
25385 
25372 
25340 
25325 
25407 
25389 
25309 
25312 
25360 
25389 
25351 
25325 
25335 
25366 
25347 
25307 
25292 
25365 
25356 
25282 
25294 
25364 
25343 
25271 
25299 
25351 
25373 
25323 
25312 
25367 
25358 
25317 
25286 
25332 
25351 
25294 
25287 
25323 
25338 
25314 
25252 
25293 
25345 
25323 
25334 
25301 
25351 
25345 
25311 
25333 
25368 
25371 
25307 
25281 
25363 
25396 
25341 
25324 
25386 
25414 
25405 
25349 
25368 
25395 
25379 
25368 
25357 
25410 
25407 
25372 
25309 
25310 
25347 
25291 
25286 
25343 
25357 
25280 
25260 
25342 
25360 
25306 
25277 
25328 
25374 
25365 
25317 
25326 
25360 
25286 
25250 
25352 
25599 
25803 
25973 
26079 
26139 
26020 
25760 
25465 
25438 
25478 
25404 
25345 
25479 
25464 
25355 
25298 
25404 
25465 
25377 
25256 
25368 
25442 
25386 
25271 
25319 
25415 
25446 
25328 
25357 
25440 
25455 
25368 
25337 
25453 
25468 
25387 
25340 
25447 
25494 
25406 
25354 
25491 
25564 
25494 
25402 
25502 
25611 
25563 
25485 
25492 
25645 
25621 
25521 
25578 
25696 
25714 
25668 
25651 
25774 
25782 
25677 
25647 
25754 
25806 
25757 
25750 
25831 
25884 
25836 
25788 
25798 
25832 
25785 
25673 
25679 
25700 
25637 
25586 
25502 
25538 
25511 
25434 
25408 
25472 
25480 
25395 
25368 
25401 
25452 
25401 
25335 
25382 
25436 
25412 
25362 
25429 
25461 
25425 
25387 
25406 
25443 
25375 
25380 
25429 
25450 
25446 
25379 
25384 
25459 
25469 
25428 
25387 
25434 
25462 
25417 
25388 
25492 
25495 
25446 
25392 
25404 
25474 
25454 
25409 
25449 
25495 
25457 
25402 
25416 
25459 
25500 
25447 
25395 
25478 
25477 
25415 
25374 
25449 
25434 
25390 
25359 
25390 
25436 
25412 
25366 
25389 
25415 
25405 
25354 
25370 
25418 
25428 
25359 
25362 
25415 
25448 
25376 
25363 
25421 
25433 
25365 
25348 
25417 
25449 
25389 
25334 
25369 
25436 
25446 
25374 
25409 
25451 
25451 
25435 
25474 
25480 
25505 
25494 
25486 
25515 
25571 
25509 
25475 
25557 
25555 
25495 
25416 
25449 
25506 
25439 
25375 
25401 
25449 
25453 
25385 
25405 
25432 
25401 
25356 
25390 
25475 
25422 
25359 
25312 
25351 
25341 
25395 
25525 
25810 
26054 
26192 
26121 
26068 
25923 
25633 
25410 
25468 
25524 
25498 
25462 
25448 
25493 
25429 
25399 
25384 
25434 
25460 
25416 
25385 
25461 
25493 
25418 
25372 
25448 
25496 
25469 
25420 
25514 
25528 
25496 
25446 
25471 
25483 
25502 
25486 
25504 
25581 
25574 
25494 
25517 
25601 
25599 
25550 
25535 
25596 
25617 
25579 
25580 
25649 
25724 
25659 
25619 
25720 
25747 
25760 
25735 
25805 
25868 
25869 
25828 
25838 
25902 
25897 
25867 
25887 
25886 
25948 
25891 
25834 
25866 
25869 
25801 
25755 
25722 
25699 
25618 
25589 
25626 
25595 
25530 
25489 
25503 
25545 
25563 
25483 
25474 
25540 
25527 
25433 
25445 
25499 
25527 
25493 
25477 
25541 
25542 
25507 
25439 
25500 
25518 
25528 
25465 
25498 
25557 
25547 
25482 
25496 
25541 
25522 
25459 
25497 
25534 
25536 
25486 
25485 
25529 
25513 
25486 
25489 
25512 
25561 
25540 
25458 
25508 
25569 
25564 
25508 
25539 
25573 
25531 
25479 
25505 
25574 
25559 
25523 
25506 
25553 
25551 
25472 
25481 
25546 
25548 
25506 
25479 
25506 
25524 
25495 
25429 
25498 
25573 
25533 
25474 
25491 
25564 
25533 
25467 
25520 
25564 
25537 
25515 
25499 
25556 
25574 
25516 
25504 
25586 
25552 
25510 
25499 
25553 
25588 
25528 
25536 
25603 
25639 
25622 
25594 
25629 
25690 
25646 
25589 
25612 
25657 
25617 
25530 
25530 
25561 
25587 
25507 
25478 
25524 
25570 
25502 
25452 
25549 
25570 
25485 
25475 
25512 
25536 
25514 
25498 
25467 
25467 
25461 
25518 
25684 
25980 
26220 
26292 
26297 
26264 
26059 
25710 
25534 
25635 
25632 
25556 
25586 
25641 
25609 
25622 
25529 
25530 
25597 
25571 
25564 
25586 
25588 
25600 
25564 
25584 
25644 
25628 
25570 
25587 
25654 
25665 
25604 
25583 
25647 
25659 
25632 
25602 
25668 
25711 
25647 
25633 
25672 
25735 
25765 
25684 
25715 
25782 
25792 
25782 
25807 
25850 
25858 
25866 
25853 
25924 
25934 
25884 
25934 
26005 
26018 
26021 
26021 
26061 
26098 
26078 
26049 
26085 
26114 
26088 
26046 
26038 
26069 
26034 
25948 
25908 
25942 
25882 
25786 
25729 
25815 
25776 
25689 
25666 
25700 
25734 
25652 
25594 
25669 
25686 
25623 
25596 
25678 
25690 
25649 
25641 
25658 
25669 
25687 
25627 
25632 
25667 
25669 
25647 
25647 
25730 
25698 
25640 
25625 
25687 
25673 
25652 
25609 
25640 
25673 
25636 
25582 
25616 
25678 
25626 
25559 
25597 
25640 
25595 
25549 
25604 
25656 
25633 
25590 
25567 
25602 
25627 
25568 
25531 
25571 
25619 
25562 
25527 
25579 
25635 
25592 
25504 
25589 
25607 
25632 
25562 
25574 
25592 
25602 
25573 
25563 
25610 
25597 
25558 
25543 
25624 
25645 
25622 
25595 
25606 
25673 
25636 
25597 
25651 
25721 
25708 
25649 
25654 
25711 
25706 
25625 
25620 
25673 
25626 
25549 
25558 
25573 
25573 
25532 
25494 
25525 
25564 
25515 
25497 
25528 
25530 
25510 
25474 
25514 
25545 
25510 
25437 
25449 
25561 
25701 
25786 
25978 
26147 
26164 
26033 
25879 
25675 
25427 
25382 
25445 
25517 
25522 
25502 
25490 
25525 
25544 
25519 
25514 
25587 
25586 
25552 
25508 
25518 
25566 
25587 
25556 
25560 
25616 
25576 
25546 
25589 
25623 
25683 
25623 
25585 
25635 
25666 
25652 
25671 
25667 
25704 
25724 
25695 
25732 
25794 
25787 
25754 
25783 
25841 
25855 
25813 
25834 
25904 
25930 
25906 
25919 
25948 
26002 
25971 
25964 
26026 
26092 
26072 
26044 
26108 
26108 
26115 
26064 
26069 
26131 
26072 
26012 
25999 
25987 
25943 
25820 
25788 
25820 
25797 
25691 
25660 
25700 
25662 
25590 
25593 
25685 
25671 
25598 
25581 
25626 
25623 
25571 
25595 
25614 
25662 
25614 
25584 
25598 
25621 
25621 
25589 
25607 
25665 
25651 
25612 
25604 
25635 
25635 
25672 
25621 
25677 
25665 
25652 
25638 
25686 
25694 
25647 
25631 
25640 
25706 
25674 
25610 
25645 
25672 
25667 
25601 
25593 
25671 
25647 
25590 
25619 
25672 
25676 
25691 
25638 
25673 
25678 
25611 
25602 
25638 
25657 
25643 
25589 
25608 
25641 
25668 
25624 
25614 
25677 
25671 
25615 
25622 
25658 
25678 
25631 
25641 
25707 
25723 
25687 
25662 
25735 
25742 
25691 
25653 
25743 
25781 
25720 
25688 
25681 
25673 
25639 
25600 
25647 
25648 
25644 
25616 
25611 
25653 
25693 
25631 
25611 
25673 
25668 
25633 
25622 
25626 
25592 
25544 
25583 
25756 
25934 
26141 
26318 
26380 
26392 
26236 
25995 
25708 
25664 
25674 
25661 
25682 
25741 
25725 
25678 
25661 
25691 
25715 
25680 
25626 
25667 
25710 
25655 
25620 
25665 
25676 
25662 
25674 
25703 
25717 
25709 
25663 
25670 
25722 
25716 
25709 
25712 
25722 
25746 
25720 
25727 
25777 
25809 
25755 
25742 
25753 
25806 
25810 
25789 
25834 
25853 
25855 
25846 
25893 
25932 
25931 
25887 
25977 
26019 
26048 
25991 
26005 
26033 
26090 
26085 
26063 
26086 
26115 
26092 
26047 
26005 
26062 
25986 
25968 
25926 
25933 
25870 
25783 
25749 
25751 
25724 
25712 
25680 
25702 
25700 
25645 
25623 
25677 
25678 
25656 
25620 
25641 
25645 
25627 
25644 
25652 
25722 
25664 
25632 
25685 
25680 
25665 
25661 
25668 
25663 
25701 
25671 
25651 
25696 
25685 
25657 
25657 
25677 
25719 
25641 
25665 
25710 
25712 
25679 
25647 
25685 
25688 
25688 
25655 
25671 
25723 
25715 
25672 
25638 
25697 
25683 
25656 
25660 
25637 
25687 
25645 
25668 
25722 
25673 
25639 
25655 
25694 
25690 
25652 
25624 
25662 
25682 
25680 
25653 
25652 
25670 
25665 
25625 
25669 
25707 
25660 
25662 
25678 
25717 
25711 
25719 
25689 
25748 
25762 
25739 
25703 
25754 
25796 
25726 
25642 
25680 
25744 
25719 
25619 
25607 
25668 
25670 
25581 
25610 
25650 
25617 
25610 
25601 
25647 
25629 
25608 
25593 
25628 
25611 
25545 
25468 
25581 
25752 
25870 
26016 
26346 
26444 
26342 
26188 
25968 
25757 
25648 
25628 
25644 
25732 
25735 
25643 
25657 
25698 
25684 
25619 
25607 
25697 
25650 
25640 
25578 
25660 
25689 
25668 
25622 
25691 
25751 
25746 
25618 
25653 
25720 
25704 
25666 
25671 
25724 
25748 
25682 
25689 
25734 
25720 
25702 
25688 
25759 
25808 
25787 
25734 
25796 
25840 
25804 
25789 
25834 
25865 
25848 
25854 
25879 
25965 
25927 
25931 
25973 
26020 
26039 
26017 
26021 
26038 
26071 
26042 
26022 
26090 
26089 
26024 
25927 
25897 
25937 
25871 
25773 
25760 
25776 
25771 
25696 
25643 
25696 
25708 
25625 
25613 
25645 
25656 
25651 
25598 
25653 
25661 
25624 
25641 
25637 
25662 
25628 
25638 
25685 
25742 
25647 
25612 
25676 
25735 
25701 
25621 
25648 
25711 
25703 
25654 
25638 
25707 
25723 
25691 
25656 
25681 
25687 
25685 
25671 
25679 
25712 
25693 
25651 
25694 
25709 
25697 
25652 
25685 
25734 
25729 
25676 
25666 
25674 
25747 
25660 
25641 
25689 
25693 
25677 
25647 
25679 
25718 
25688 
25656 
25663 
25659 
25659 
25632 
25658 
25657 
25654 
25654 
25639 
25667 
25652 
25608 
25618 
25646 
25644 
25604 
25633 
25659 
25678 
25648 
25608 
25638 
25656 
25626 
25636 
25665 
25723 
25722 
25713 
25733 
25727 
25726 
25726 
25757 
25734 
25754 
25721 
25712 
25709 
25695 
25653 
25635 
25674 
25654 
25659 
25628 
25641 
25681 
25674 
25610 
25630 
25674 
25636 
25603 
25618 
25668 
25618 
25569 
25575 
25666 
25767 
25930 
26203 
26446 
26426 
26332 
26180 
25920 
25703 
25701 
25716 
25695 
25734 
25721 
25669 
25669 
25662 
25693 
25673 
25666 
25691 
25696 
25696 
25683 
25630 
25635 
25664 
25620 
25662 
25682 
25684 
25683 
25688 
25670 
25693 
25699 
25678 
25689 
25728 
25682 
25677 
25730 
25720 
25702 
25701 
25715 
25737 
25783 
25724 
25766 
25796 
25810 
25762 
25817 
25875 
25866 
25868 
25922 
25926 
25942 
25956 
25987 
26028 
26045 
26051 
26060 
26098 
26122 
26113 
26106 
26127 
26112 
26112 
25986 
25712 
25574 
25582 
25587 
25602 
25642 
25620 
25589 
25576 
25652 
25653 
25665 
25662 
25658 
25660 
25652 
25603 
25654 
25694 
25698 
25657 
25671 
25671 
25696 
25656 
25685 
25689 
25657 
25651 
25692 
25687 
25696 
25663 
25672 
25732 
25705 
25716 
25721 
25749 
25734 
25734 
25708 
25808 
26191 
26217 
26114 
26092 
26065 
26057 
25963 
25956 
25942 
25949 
25926 
25896 
25879 
25869 
25844 
25861 
25881 
25858 
25813 
25822 
25897 
25831 
25818 
25821 
25817 
25810 
25796 
25786 
25759 
25760 
25752 
25748 
25716 
25707 
25734 
25711 
25722 
25720 
25701 
25657 
25668 
25719 
25673 
25677 
25658 
25728 
25670 
25667 
25699 
25680 
25673 
25660 
25634 
25632 
25674 
25687 
25635 
25653 
25664 
25638 
25652 
25673 
25714 
25706 
25711 
25705 
25705 
25684 
25687 
25703 
25701 
25691 
25703 
25689 
25711 
25659 
25628 
25623 
25601 
25625 
25623 
25624 
25622 
25636 
25614 
25601 
25587 
25581 
25591 
25581 
25596 
25601 
25575 
25495 
25437 
25509 
25643 
25809 
26060 
26267 
26351 
26278 
26144 
25889 
25628 
25599 
25611 
25563 
25579 
25565 
25521 
25519 
25537 
25493 
25463 
25478 
25493 
25461 
25439 
25422 
25460 
25472 
25447 
25451 
25477 
25483 
25504 
25524 
25537 
25566 
25583 
25517 
25532 
25594 
25602 
25621 
25644 
25673 
25682 
25685 
25722 
25735 
25757 
25731 
25723 
25766 
25762 
25734 
25734 
25794 
25801 
25815 
25813 
25853 
25898 
25884 
25901 
25922 
25985 
25988 
26005 
26012 
26015 
26044 
26070 
26037 
26063 
26033 
25843 
25573 
25603 
25639 
25624 
25620 
25615 
25643 
25640 
25623 
25650 
25617 
25630 
25616 
25647 
25647 
25649 
25601 
25580 
25643 
25691 
25645 
25639 
25660 
25651 
25640 
25609 
25631 
25608 
25596 
25586 
25652 
25649 
25626 
25623 
25640 
25647 
25633 
25612 
25643 
25659 
25863 
26060 
25981 
25952 
25901 
25902 
25817 
25837 
25796 
25779 
25741 
25720 
25718 
25709 
25692 
25725 
25718 
25703 
25698 
25696 
25686 
25627 
25616 
25665 
25666 
25666 
25655 
25678 
25699 
25670 
25724 
25703 
25677 
25696 
25686 
25659 
25693 
25706 
25694 
25710 
25694 
25689 
25669 
25660 
25680 
25694 
25697 
25649 
25663 
25707 
25708 
25690 
25678 
25729 
25728 
25658 
25646 
25703 
25726 
25710 
25708 
25689 
25682 
25642 
25670 
25689 
25694 
25661 
25661 
25704 
25738 
25739 
25736 
25737 
25724 
25712 
25723 
25723 
25765 
25717 
25667 
25660 
25666 
25645 
25620 
25579 
25600 
25599 
25616 
25634 
25646 
25656 
25635 
25626 
25643 
25659 
25621 
25647 
25629 
25633 
25575 
25527 
25616 
25770 
25983 
26261 
26414 
26484 
26400 
26259 
25981 
25741 
25715 
25726 
25718 
25746 
25754 
25721 
25678 
25692 
25695 
25687 
25683 
25691 
25718 
25751 
25747 
25709 
25731 
25742 
25715 
25749 
25756 
25755 
25731 
25709 
25763 
25749 
25772 
25781 
25762 
25798 
25811 
25821 
25852 
25876 
25874 
25857 
25867 
25893 
25927 
25923 
25902 
25957 
25955 
25970 
25995 
26019 
26058 
26053 
26040 
26057 
26093 
26131 
26141 
26201 
26201 
26231 
26229 
26228 
26283 
26269 
26214 
26198 
26236 
26209 
26152 
26109 
25981 
25618 
25620 
25602 
25670 
25679 
25670 
25666 
25652 
25682 
25683 
25681 
25727 
25750 
25710 
25736 
25768 
25741 
25725 
25733 
25735 
25736 
25738 
25745 
25727 
25750 
25732 
25753 
25765 
25769 
25782 
25798 
25804 
25791 
25802 
25803 
25810 
25817 
25814 
25801 
26039 
26238 
26175 
26098 
26015 
25998 
25988 
25962 
25914 
25896 
25908 
25909 
25894 
25860 
25848 
25820 
25834 
25820 
25818 
25836 
25836 
25799 
25780 
25825 
25842 
25846 
25824 
25818 
25814 
25812 
25764 
25755 
25798 
25848 
25836 
25810 
25831 
25824 
25817 
25805 
25817 
25781 
25773 
25823 
25822 
25804 
25761 
25764 
25815 
25790 
25799 
25728 
25762 
25793 
25737 
25732 
25788 
25835 
25820 
25774 
25789 
25812 
25774 
25757 
25758 
25787 
25768 
25788 
25788 
25839 
25823 
25828 
25878 
25853 
25833 
25808 
25829 
25853 
25843 
25795 
25768 
25770 
25756 
25784 
25727 
25724 
25723 
25706 
25678 
25700 
25714 
25708 
25703 
25732 
25753 
25728 
25681 
25722 
25706 
25656 
25611 
25694 
25870 
26094 
26370 
26531 
26514 
26417 
26277 
25942 
25792 
25815 
25807 
25820 
25814 
25797 
25810 
25755 
25756 
25792 
25772 
25749 
25727 
25762 
25734 
25712 
25755 
25793 
25793 
25787 
25722 
25721 
25773 
25762 
25729 
25776 
25769 
25768 
25751 
25741 
25751 
25795 
25775 
25777 
25787 
25819 
25790 
25819 
25825 
25831 
25842 
25859 
25890 
25907 
25929 
25939 
25991 
25995 
26015 
26006 
26060 
26160 
26163 
26142 
26179 
26199 
26223 
26217 
26269 
26292 
26289 
26280 
26301 
26301 
26264 
26211 
26165 
26141 
26118 
26076 
25988 
25966 
25941 
25911 
25850 
25892 
25893 
25851 
25845 
25859 
25850 
25860 
25846 
25786 
25821 
25873 
25804 
25792 
25833 
25843 
25858 
25830 
25839 
25876 
25890 
25855 
25891 
25918 
25919 
25880 
25887 
25918 
25914 
25871 
25833 
25870 
25895 
25865 
25871 
25932 
25863 
25858 
25870 
25892 
25906 
25895 
25881 
25898 
25874 
25885 
25863 
25883 
25885 
25887 
25810 
25889 
25858 
25838 
25843 
25831 
25838 
25822 
25834 
25802 
25778 
25792 
25783 
25763 
25793 
25808 
25806 
25843 
25840 
25863 
25843 
25815 
25823 
25843 
25858 
25836 
25883 
25882 
25872 
25898 
25869 
25912 
25881 
25862 
25853 
25884 
25872 
25854 
25849 
25859 
25872 
25859 
25857 
25864 
25870 
25869 
25859 
25860 
25914 
25940 
25886 
25896 
25949 
25951 
25907 
25996 
25994 
25940 
25958 
25935 
25932 
25939 
25909 
25860 
25856 
25821 
25764 
25800 
