-7040.732448188359,-6941.066019662145,-6924.615135743039,-7002.890944825524,-7096.991788982366,-7108.16766121002,-7133.916870822534,-7270.15075327763,-7325.001934170954,-7197.731101242435,-7181.3919760456065,-7220.708694542492,-7262.081773529265,-7203.341389100718,-7222.04979920981,-7245.362668676695,-7292.055462843831,-7230.766979547379,-7216.014828206877,-7248.693078600536,-7300.996160625954,-7256.538540904348,-7225.223746922464,-7249.408334423106,-7264.249892741429,-7250.548273390326,-7208.951676959,-7224.016752721876,-7274.397584724139,-7256.203264737519,-7199.921572199056,-7206.940019958022,-7228.241232423929,-7276.923331847589,-7214.159633417086,-7205.174232146053,-7249.184816978553,-7287.853334886234,-7241.406409908106,-7244.647412854125,-7231.169310947575,-7299.163317580619,-7259.511322916905,-7244.6697645985805,-7245.273261698874,-7298.3810065246835,-7232.599822592714,-7236.6901918280355,-7247.508436144404,-7270.217808510996,-7264.562817163804,-7203.050816422799,-7221.6027643207035,-7553.213245059639,-7651.963252063186,-7316.821195700311,-7242.836921553246,-7283.673558673091,-7326.387742327183,-7230.141130702631,-7194.490098296416,-7231.929270259056,-7280.209038282519,-7196.680569253036,-7191.85259245069,-7210.650409537603,-7259.332508961262,-7194.7136157409695,-7191.7855372173235,-7190.243266849908,-7229.917613258078,-7192.366682573162,-7162.03536534731,-7172.026595118832,-7217.802967763301,-7221.37924687615,-7161.700089180481,-7143.259900004852,-7201.262676866374,-7239.864139540689,-7209.018732192366,-7225.693133556025,-7234.6338313381475,-7253.00696528041,-7204.302514112296,-7232.510415614894,-7282.712433661513,-7343.7550477689565,-7280.63372142717,-7291.653131443636,-7312.149681109153,-7334.4790738200045,-7252.224654224474,-7270.664843400103,-7288.054500586331,-7344.559710569348,-7298.49276524696,-7254.638642625648,-7259.421915939083,-7304.281867060884,-7294.670616945103,-7227.816549279279,-7237.539558117338,-7293.73184367798,-7318.899907934655,-7245.362668676695,-7239.931194774055,-7285.037015084865,-7305.511213005926,-7255.979747292966,-7276.990387080955,-7284.187648795563,-7335.954288954054,-7245.250909954419,-7257.477314171471,-7282.444212728049,-7319.59281201277,-7235.460845882994,-7206.850612980201,-7233.113912715186,-7295.140003578664,-7275.157544035619,-7249.251872211918,-7257.857293827212,-7196.211182619475,-6877.520010175706,-7031.657639939504,-7163.979967114922,-7249.765962334391,-7308.841622929767,-7220.641639309125,-7234.522072615871,-7287.115727319208,-7287.6968726750465,-7219.077017197254,-7280.410203982617,-7291.9213523770995,-7335.820178487323,-7276.208076025018,-7217.758264274391,-7225.491967855927,-7316.597678255758,-7277.638587670159,-7244.133322731653,-7252.269357713385,-7297.084605346276,-7305.488861261471,-7284.612331940214,-7308.171070596108,-7348.717135038035,-7341.274004134418,-7273.950549835033,-7247.463732655494,-7316.105939877742,-7377.394423174193,-7306.628800228692,-7292.837773899767,-7344.269137891429,-7361.971719500032,-7296.637570457169,-7305.667675217113,-7352.472228106526,-7405.17764153214,-7288.590942453259,-7297.174012324097,-7313.915468921122,-7358.462495620549,-7310.696817719558,-7267.982634065465,-7287.138079063664,-7359.1330479542075,-7345.6325943032025,-7310.11567236372,-7309.333361307784,-7342.928033224111,-7354.640347318691,-7300.884401903678,-7311.680294475591,-7340.178768656107,-7365.190370701596,-7320.062198646331,-7347.308975137351,-7377.461478407559,-7401.824879863844,-7343.956213469054,-7356.428486875116,-7363.5363416119035,-7415.124167814752,-7355.489713607993,-7329.40522782865,-7359.557731098858,-7431.440941267127,-7378.377899930228,-7311.054445630843,-7322.811463214334,-7405.825842121344,-7367.604359102769,-7289.507363975927,-7259.310157216806,-7271.961244578511,-7220.4851770979385,-7103.831422785691,-7091.426204612995,-7129.312411464741,-7236.310212172296,-7233.4044853931055,-7247.419029166584,-7347.0407542038865,-7496.752738565534,-7391.9454088145985,-7360.36239389925,-7416.018237592964,-7438.146464603718,-7344.246786146973,-7331.394533085172,-7348.158341426652,-7423.908403385688,-7405.17764153214,-7351.64521356168,-7366.039736990898,-7425.718894686568,-7400.953161830087,-7330.098131906764,-7327.348867338761,-7419.259240538984,-7438.32527855936,-7351.64521356168,-7362.016422988942,-7402.517783941959,-7437.431208781149,-7362.55286485587,-7345.8114082588445,-7373.773440572434,-7451.669269999179,-7400.707292641079,-7426.456502253593,-7443.37677280626,-7453.23389211105,-7391.721891370045,-7355.109733952253,-7363.491638122993,-7411.972571846554,-7385.239885478007,-7362.999899744976,-7367.626710847225,-7422.544946973914,-7398.919153084655,-7346.727829781513,-7359.691841565591,-7410.095025312308,-7409.603286934292,-7366.665585835646,-7353.45570486256,-7373.818144061344,-7453.099781644319,-7318.989314912476,-7444.0696768843745,-7754.2895381795815,-7589.423071077236,-7447.7130112305895,-7375.226303962029,-7376.880333051722,-7425.651839453201,-7354.036850218398,-7317.357637567239,-7324.689009748579,-7373.907551039166,-7330.500463306959,-7302.82900367129,-7321.403303313649,-7365.45859163506,-7361.636443333202,-7280.209038282519,-7298.470413502505,-7360.02711773242,-7359.378917143216,-7303.790128682867,-7338.390629099683,-7335.082570920297,-7364.922149768133,-7295.989369867965,-7299.208021069529,-7346.213739659041,-7403.165984531162,-7329.516986550926,-7330.008724928943,-7384.614036633258,-7461.90636895971,-7418.521632971959,-7390.626655891736,-7409.066845067364,-7494.115232719807,-7444.896691429221,-7386.290417467406,-7421.874394640255,-7473.216351654095,-7481.19592442464,-7435.106627357796,-7435.866586669277,-7470.489438830547,-7500.8207560564,-7446.66247924119,-7439.979307649053,-7431.530348244947,-7479.653654057223,-7419.818034150367,-7432.133845345241,-7427.484682498537,-7491.835354785366,-7444.561415262391,-7401.8025281193895,-7436.783008191945,-7510.096730005352,-7450.305813587405,-7406.719911899557,-7414.61007769228,-7464.163895149696,-7453.457409555604,-7405.065882809864,-7394.895839082699,-7477.329072633872,-7493.176459452684,-7387.117432012253,-7411.145557301707,-7480.704186046623,-7394.113528026764,-6981.947360270901,-7207.4541100804945,-7382.758841843467,-7484.727500048578,-7392.258333236973,-7399.477946696037,-7444.896691429221,-7518.366875453816,-7441.342764060827,-7424.646010952713,-7443.041496639431,-7492.4388518856595,-7427.417627265171,-7383.004711032476,-7412.263144524472,-7494.472860631092,-7462.711031760101,-7397.376882717238,-7420.577993461847,-7479.653654057223,-7517.159881253229,-7471.115287675297,-7465.169723650185,-7478.200790667629,-7522.010209800031,-7467.740174262545,-7444.337897817839,-7463.783915493956,-7511.974276539598,-7454.709107245101,-7454.99967992302,-7483.6322645702685,-7534.8177593729215,-7465.817924239389,-7443.913214673187,-7472.277578386972,-7537.768189641022,-7494.517564120003,-7467.471953329081,-7481.419441869193,-7523.597183656358,-7503.05593050193,-7457.927758446665,-7451.602214765813,-7489.264904173006,-7518.478634176092,-7464.7897439944445,-7484.056947714919,-7477.507886589514,-7474.803325510422,-7434.458426768592,-7458.777124735967,-7476.435002855659,-7537.343506496371,-7486.269770415995,-7472.434040598159,-7484.794555281945,-7532.11319829383,-7445.991926907531,-7424.780121419445,-7432.178548834151,-7493.265866430505,-7469.550665563424,-7441.052191382908,-7452.742153733034,-7502.966523524109,-7460.699374759123,-7414.766539903467,-7443.488531528536,-7532.448474460659,-7525.810006357433,-7491.0306919849745,-7492.14827920774,-7470.1318109192625,-7500.574886867391,-7459.537084047447,-7485.308645404416,-7509.672046860701,-7539.265756519528,-7478.848991256833,-7494.450508886637,-7529.25217500355,-7594.273399624039,-7512.15309049524,-7486.470936116092,-7522.926631322698,-7559.628195718312,-7508.777977082489,-7449.255281598006,-7425.651839453201,-7389.978455302532,-7350.237053660996,-7254.10220075872,-7234.790293549335,-7313.736654965479,-7362.374050900227,-7335.7084197650465,-7326.655963260647,-7480.078337201874,-7629.253879696594,-7510.9237445501985,-7493.779956552978,-7501.379549667782,-7557.907111395253,-7477.016148211497,-7424.333086530339,-7473.7751452654775,-7571.184047601706,-7527.821663358411,-7509.8732125607985,-7521.898451077754,-7580.303559339472,-7544.7419339110775,-7473.90925573221,-7471.338805119849,-7549.122875824318,-7550.620442702823,-7521.317305721916,-7534.795407628466,-7542.842035632377,-7550.240463047084,-7487.253247172028,-7519.462110932125,-7538.572852441413,-7581.756422729066,-7514.455320174136,-7512.0413317729635,-7539.332811752894,-7586.0032541755745,-7532.87315760531,-7515.81877658591,-7507.660389859723,-7572.279283080016,-7557.147152083773,-7506.967485781609,-7514.455320174136,-7590.183030388717,-7565.462001021147,-7503.122985735296,-7522.30078247795,-7576.21319010415,-7585.64562626429,-7484.48163085957,-7652.477342185658,-7979.10338391106,-7741.526692095601,-7573.933312169709,-7537.768189641022,-7536.0471053179635,-7587.545524542991,-7499.814927555911,-7477.7090522896115,-7513.740064351567,-7551.290995036483,-7464.7897439944445,-7476.300892388927,-7491.611837340813,-7545.278375778005,-7464.052136427419,-7460.766429992489,-7482.402918625226,-7492.349444907838,-7462.465162571092,-7439.308755315395,-7439.420514037671,-7481.397090124738,-7472.523447575981,-7421.025028350953,-7461.347575348327,-7477.57494182288,-7488.48259311707,-7429.585746477336,-7457.324261346372,-7498.160898466218,-7533.7001721501565,-7470.981177208564,-7464.47681957207,-7480.10068894633,-7573.083945880408,-7519.707980121134,-7510.1637852387175,-7547.088867078885,-7594.40751009077,-7532.448474460659,-7531.7108668936335,-7543.870215877321,-7594.452213579681,-7571.8545999353655,-7499.278485688983,-7488.370834394794,-7561.908073652754,-7563.9867858870975,-7523.708942378634,-7549.815779902432,-7581.912884940253,-7584.081004152418,-7527.262869747027,-7526.748779624556,-7536.717657651622,-7607.282114897027,-7513.069512017908,-7536.829416373899,-7554.084963093396,-7628.806844807487,-7585.735033242111,-7567.563064999947,-7563.159771342251,-7582.315216340449,-7565.1043731098625,-7520.289125476972,-7502.251267701539,-7571.586379001901,-7568.323024311427,-7480.10068894633,-7466.309662617406,-7463.493342816037,-7160.135467068609,-7299.7891664253675,-7446.058982140897,-7490.382491395771,-7518.9703725541085,-7442.795627450422,-7464.186246894151,-7513.494195162559,-7555.359012527349,-7514.120044007307,-7522.837224344877,-7489.331959406371,-7571.631082490812,-7573.978015658619,-7509.314418949416,-7542.819683887921,-7616.781606290532,-7543.736105410589,-7499.256133944528,-7500.373721167293,-7573.106297624862,-7569.574722000924,-7491.321264662894,-7491.388319896259,-7559.82936141841,-7593.155812401273,-7502.497136890547,-7495.478689131581,-7537.723486152111,-7595.7486147580885,-7503.4135584132155,-7502.899468290743,-7539.399866986259,-7599.190783404206,-7558.197684073172,-7510.320247449905,-7514.634134129779,-7564.411469031748,-7528.492215692069,-7505.514622392014,-7533.476654705603,-7614.993466734108,-7550.151056069262,-7511.795462583955,-7512.197793984151,-7577.464887793647,-7541.456227476147,-7478.692529045646,-7470.757659764012,-7519.551517909947,-7567.898341166776,-7493.109404219318,-7495.791613553955,-7513.896526562754,-7580.504725039569,-7512.220145728606,-7492.997645497042,-7506.185174725673,-7511.616648628313,-7467.315491117894,-7463.582749793858,-7460.028822425464,-7538.170521041217,-7498.250305444039,-7460.654671270213,-7464.409764338704,-7542.663221676734,-7527.240518002573,-7463.04630792693,-7457.8607032132995,-7491.6788925741785,-7490.270732673494,-7436.224214580562,-7441.365115805283,-7479.027805212475,-7531.174425026707,-7471.338805119849,-7453.122133388774,-7505.4699189031035,-7563.897378909276,-7454.396182822727,-7442.683868728146,-7472.076412686874,-7514.969410296609,-7424.713066186079,-7442.102723372308,-7486.470936116092,-7548.7875996574885,-7504.978180525087,-7450.328165331861,-7473.931607476665,-7543.981974599597,-7512.913049806721,-7467.829581240366,-7481.95588373612,-7511.661352117223,-7517.159881253229,-7470.645901041735,-7454.28442410045,-7465.460296328104,-7477.798459267433,-7397.913324584166,-7328.064123161331,-7298.090433846764,-7302.247858315452,-7219.859328253189,-7211.276258382351,-7261.500628173427,-7344.202082658063,-7316.552974766848,-7447.578900763858,-7549.6816694357,-7587.947855943186,-7499.9490380226425,-7455.469066556581,-7459.9170637031875,-7514.5670788964135,-7481.374738380282,-7456.988985179542,-7469.818886496889,-7500.843107800854,-7498.853802544332,-7447.467142041582,-7472.188171409151,-7508.15212823774,-7526.033523801986,-7463.694508516134,-7446.707182730101,-7481.732366291567,-7573.151001113773,-7486.6273983272795,-7458.643014269235,-7470.6011975528245,-7507.079244503885,-7499.546706622447,-7456.9219299461765,-7461.839313726344,-7551.06747759193,-7492.662369330213,-7446.528368774459,-7465.4379445836485,-7515.259982974528,-7489.644883828746,-7458.128924146763,-7465.683813772656,-7509.6943986051565,-7527.821663358411,-7473.95395922112,-7477.686700545157,-7533.029619816497,-7563.539750997991,-7445.679002485157,-7431.865624411777,-7474.468049343593,-7533.8789861057985,-7782.184515259804,-7778.608236146955,-7597.603809547879,-7601.984751461119,-7477.284369144961,-7439.889900671233,-7466.9578632066095,-7507.861555559821,-7459.872360214277,-7410.475004968048,-7421.6508771957015,-7485.91214250471,-7461.392278837237,-7365.905626524166,-7376.701519096079,-7430.435112766638,-7461.14640964823,-7400.774347874445,-7365.637405590703,-7387.966798301554,-7438.369982048272,-7367.380841658216,-7383.988187788509,-7437.721781459068,-7464.6779852721675,-7379.361376686261,-7412.330199757839,-7409.357417745283,-7454.887921200743,-7368.565484114348,-7356.249672919474,-7384.658740122169,-7469.0142236964975,-7466.466124828592,-7431.6868104561345,-7436.023048880465,-7474.5351045769585,-7479.832468012866,-7415.437092237126,-7459.71589800309,-7511.013151528019,-7561.461038763648,-7495.702206576134,-7483.945188992642,-7512.0413317729635,-7551.11218108084,-7483.296988403438,-7512.48836666207,-7512.287200961972,-7566.110201610351,-7515.371741696805,-7493.332921663871,-7491.611837340813,-7542.797332143466,-7491.857706529821,-7463.605101538313,-7462.599273037824,-7550.128704324807,-7517.048122530952,-7442.259185583495,-7452.205711866107,-7513.24832597355,-7510.856689316833,-7453.412706066693,-7458.911235202699,-7485.532162848969,-7506.766320081511,-7464.543874805436,-7481.508848847014,-7483.095822703341,-7553.1908933151835,-7463.962729449598,-7401.266086252462,-7098.444652371962,-7234.231499937952,-7359.7812485434115,-7425.316563286372,-7421.583821962336,-7475.42917435517,-7472.232874898062,-7449.098819386819,-7456.966633435087,-7529.922727337209,-7500.8878112897655,-7436.403028536204,-7430.680981955646,-7496.998607754542,-7528.492215692069,-7498.429119399681,-7524.066570289919,-7528.425160458703,-7491.433023385171,-7456.184322379151,-7508.7556253380335,-7543.11025656584,-7584.192762874694,-7502.6535991017345,-7468.276616129472,-7484.7498517930335,-7547.5582537124465,-7500.060796744919,-7487.588523338858,-7495.791613553955,-7543.6243466883125,-7481.128869191274,-7468.008395196009,-7492.841183285855,-7526.257041246538,-7513.6283056292905,-7483.006415725519,-7521.853747588843,-7568.144210355785,-7566.646643477278,-7507.861555559821,-7495.232819942573,-7524.513605179025,-7565.97609114362,-7481.419441869193,-7432.044438367419,-7490.33778790686,-7556.9459863836755,-7488.192020439151,-7497.155069965729,-7512.220145728606,-7543.847864132866,-7477.016148211497,-7446.818941452378,-7479.363081379304,-7531.308535493438,-7506.453395659137,-7484.124002948285,-7505.805195069933,-7589.154850143773,-7564.992614387586,-7448.361211819793,-7431.932679645143,-7484.1016512038295,-7510.432006172181,-7474.244531899039,-7491.164802451707,-7518.836262087377,-7558.085925350896,-7484.816907026399,-7490.5613053514135,-7498.384415910771,-7524.15597726774,-7470.176514408174,-7449.8811304427545,-7461.168761392684,-7546.664183934234,-7502.810061312922,-7454.038554911442,-7504.240572958061,-7565.394945787782,-7518.724503365101,-7476.189133666651,-7511.840166072866,-7549.525207224514,-7546.597128700868,-7482.447622114137,-7480.704186046623,-7527.754608125045,-7565.864332421343,-7477.373776122782,-7506.811023570422,-7553.906149137753,-7563.785620186999,-7457.413668324193,-7462.487514315548,-7492.640017585757,-7525.608840657335,-7429.742208688523,-7376.36624292925,-7389.240847735507,-7398.583876917824,-7285.796974396346,-7226.408389378595,-7280.454907471527,-7432.6255837232575,-7430.680981955646,-7358.440143876093,-7504.5311456359805,-7617.966248746664,-7555.44841950517,-7464.722688761079,-7490.270732673494,-7527.620497658312,-7533.63311691679,-7475.630340055269,-7491.9694652520975,-7534.01309657253,-7577.509591282558,-7476.09972668883,-7467.8966364737325,-7494.1375844642625,-7527.933422080687,-7474.0657179433965,-7510.387302683271,-7498.116194977307,-7529.0063058145415,-7493.265866430505,-7465.683813772656,-7463.940377705143,-7546.261852534039,-7522.054913288941,-7438.526444259459,-7451.266938598984,-7480.994758724542,-7482.000587225031,-7431.7538656895,-7454.731458989556,-7498.272657188494,-7534.080151805896,-7459.984118936553,-7452.205711866107,-7469.349499863327,-7554.420239260226,-7498.093843232852,-7464.6779852721675,-7484.191058181651,-7502.184212468173,-7453.613871766791,-7455.178493878662,-7465.303834116917,-7526.145282524262,-7456.318432845883,-7434.123150601763,-7783.145640271383,-7841.774265977653,-7590.093623410896,-7488.124965205785,-7505.6487328587455,-7575.7885069594995,-7563.204474831162,-7470.042403941442,-7477.150258678229,-7496.059834487419,-7501.334846178872,-7463.269825371483,-7489.264904173006,-7475.675043544179,-7497.311532176916,-7434.838406424333,-7425.562432475381,-7485.845087271344,-7523.731294123089,-7458.419496824682,-7415.057112581386,-7459.358270091805,-7474.512752832503,-7409.647990423202,-7402.60719091978,-7446.61777575228,-7518.366875453816,-7470.802363252922,-7415.682961426135,-7421.248545795506,-7501.513660134514,-7558.041221861986,-7490.29308441795,-7491.589485596358,-7522.7254656226005,-7557.281262550505,-7513.784767840478,-7534.370724483815,-7558.957643384653,-7601.336550871915,-7550.218111302628,-7544.808989144443,-7554.01790786003,-7611.372484132348,-7539.489273964081,-7555.49312299408,-7549.413448502237,-7579.610655261356,-7535.600070428857,-7526.324096479905,-7522.837224344877,-7587.634931520812,-7584.371576830337,-7540.271585020017,-7540.428047231204,-7554.554349726957,-7571.005233646064,-7533.051971560953,-7502.407729912727,-7544.697230422167,-7607.729149786133,-7527.620497658312,-7551.939195625687,-7565.730221954611,-7592.976998445631,-7531.576756426902,-7538.148169296762,-7540.025715831008,-7612.579478332935,-7564.143248098284,-7517.137529508774,-7499.971389767098,-7613.562955088968,-7234.38796214914,-7256.091506015242,-7451.356345576804,-7586.092661153396,-7565.1043731098625,-7519.842090587866,-7511.951924795142,-7548.608785701846,-7608.243239908606,-7553.973204371119,-7538.259928019039,-7545.993631600575,-7577.576646515924,-7522.613706900323,-7544.8536926333545,-7536.136512295785,-7598.788452004011,-7524.15597726774,-7551.6039194588575,-7567.7865824445,-7624.023571494052,-7576.190838359695,-7550.687497936189,-7573.419222047237,-7603.147042172795,-7590.294789110993,-7557.705945695156,-7548.184102557195,-7603.705835784178,-7583.633969263312,-7517.20458474214,-7542.305593765449,-7582.40462331827,-7618.390931891315,-7580.728242484122,-7576.7272802266225,-7560.008175374052,-7596.396815347292,-7568.323024311427,-7567.607768488857,-7645.794170593521,-7705.8086044560205,-7598.944914215197,-7582.538733785002,-7595.525097313535,-7655.7406968761325,-7606.611562563367,-7585.869143708843,-7604.711664284667,-7614.322914400449,-7600.97892296063,-7579.878876194821,-7585.198591375183,-7623.285963927026,-7598.833155492921,-7546.328907767404,-7585.936198942209,-7594.429861835225,-7634.238318710127,-7572.391041802292,-7589.959512944164,-7570.8040679459655,-7604.130518928829,-7559.0023468735635,-7564.411469031748,-7595.994483947097,-7612.0653882104625,-7463.828618982866,-7469.170685907685,-7521.116140021818,-7616.066350467962,-7560.030527118508,-7541.188006542684,-7566.110201610351,-7634.037153010029,-7606.0751206964405,-7556.54365498348,-7593.26757112355,-7656.567711420979,-7658.646423655323,-7571.586379001901,-7589.177201888228,-7629.812673307976,-7686.630807713367,-7596.128594413829,-7594.832193235421,-7626.549318617502,-7692.486964760657,-7585.891495453298,-7543.400829243759,-7531.375590726804,-7594.049882179485,-7530.280355248494,-7452.943319433131,-7405.937600843621,-7448.204749608607,-7393.219458248551,-7368.721946325535,-7438.839368681833,-7539.601032686357,-7504.10646249133,-7539.2210530306165,-7646.79999909401,-7669.978758094163,-7649.37044970637,-7593.334626356916,-7592.6417222788,-7633.590118120924,-7657.014746310085,-7581.5999605178795,-7606.835080007921,-7619.821443536454,-7669.643481927334,-7621.877804026342,-7601.157736916272,-7606.052768951985,-7673.979720351663,-7637.278155956049,-7583.678672752223,-7588.752518743578,-7646.576481649457,-7596.821498491943,-7580.9517599286755,-7598.699045026189,-7609.561992831468,-7612.043036466007,-7553.816742159933,-7579.633007005812,-7640.966193791175,-7642.642574625323,-7579.83417270591,-7579.208323861161,-7582.270512851538,-7642.642574625323,-7623.822405793954,-7598.900210726287,-7594.988655446608,-7631.757275075588,-7600.084853182418,-7597.26853338105,-7585.869143708843,-7660.859246356398,-7613.853527766887,-7550.754553169555,-7550.35222176936,-7627.331629673437,-7600.55423981598,-7726.19339539926,-7987.887619481996,-7788.0406723070955,-7657.774705621566,-7539.556329197447,-7526.860538346832,-7566.668995221734,-7588.93133269922,-7535.354201239848,-7550.061649091441,-7558.287091050994,-7576.660224993257,-7490.114270462307,-7455.737287490045,-7498.496174633047,-7545.658355433746,-7462.778086993467,-7460.0958776588295,-7466.063793428397,-7508.688570104668,-7446.506017030003,-7412.643124180213,-7399.075615295842,-7483.319340147894,-7434.369019790772,-7395.27581873844,-7391.7665948589565,-7424.9365836306315,-7442.415647794682,-7400.03674030742,-7429.89867089971,-7461.436982326149,-7480.368909879793,-7439.398162293215,-7462.465162571092,-7513.069512017908,-7551.849788647865,-7474.579808065869,-7496.462165887615,-7520.8479190883545,-7550.128704324807,-7501.915991534709,-7482.782898280967,-7494.629322842279,-7580.728242484122,-7514.388264940771,-7491.209505940617,-7478.67017730119,-7533.8789861057985,-7544.786637399989,-7518.657448131735,-7499.278485688983,-7493.824660041888,-7536.360029740337,-7484.258113415017,-7478.558418578914,-7510.767282339011,-7561.349280041371,-7534.34837273936,-7465.057964927908,-7488.750814050533,-7522.636058644779,-7456.966633435087,-7474.199828410128,-7500.15020372274,-7556.8342276613985,-7538.371686741315,-7518.143358009263,-7510.767282339011,-7536.136512295785,-7501.871288045799,-7513.114215506818,-7535.309497750938,-7423.595478963313,-7112.369789167618,-7274.352881235228,-7430.032781366442,-7506.073416003396,-7532.7613988830335,-7468.790706251944,-7469.908293474709,-7509.359122438326,-7558.421201517725,-7488.594351839346,-7457.972461935576,-7497.1327182212735,-7584.7739082305325,-7484.682796559668,-7475.965616222098,-7479.608950568313,-7553.906149137753,-7484.816907026399,-7464.275653871972,-7477.753755778523,-7553.906149137753,-7517.718674864612,-7476.367947622293,-7486.493287860548,-7556.856579405854,-7538.572852441413,-7480.8159447688995,-7492.237686185562,-7537.142340796273,-7519.283296976483,-7465.415592839193,-7520.222070243606,-7547.06651533443,-7560.5893207298905,-7487.7673372945,-7479.38543312376,-7489.555476850925,-7558.35414628436,-7507.705093348634,-7499.0102647555195,-7479.027805212475,-7508.666218360212,-7479.832468012866,-7496.48451763207,-7515.349389952349,-7534.370724483815,-7538.885776863787,-7514.5670788964135,-7535.600070428857,-7575.453230792669,-7538.774018141511,-7506.207526470128,-7549.368745013327,-7583.49985879658,-7630.147949474806,-7540.450398975659,-7525.25121274605,-7551.916843881231,-7598.721396770644,-7555.940157883187,-7546.887701378787,-7541.769151898522,-7604.778719518033,-7568.457134778158,-7550.0169456025305,-7549.0781723354075,-7617.899193513298,-7586.494992553591,-7556.588358472391,-7554.934329382698,-7575.386175559303,-7561.863370163843,-7521.339657466371,-7523.351314467349,-7525.474730190603,-7544.630175188801,-7503.480613646581,-7495.366930409305,-7559.717602696133,-7624.180033705239,-7558.041221861986,-7533.923689594709,-7550.687497936189,-7604.59990556239,-7534.795407628466,-7523.530128422992,-7544.876044377809,-7615.328742900938,-7548.653489190757,-7552.945024126176,-7549.7263729246115,-7591.010044933563,-7602.431786350226,-7571.809896446454,-7542.618518187824,-7570.893474923787,-7557.370669528326,-7502.7206543351,-7433.765522690478,-7409.290362511917,-7376.679167351624,-7284.142945306653,-7249.095410000731,-7319.324591079306,-7429.831615666344,-7401.534307185925,-7529.788616870477,-7649.124580517362,-7661.105115545406,-7604.644609051301,-7574.894437181287,-7567.45130627767,-7624.224737194149,-7575.185009859206,-7574.045070891985,-7629.857376796887,-7688.530705992068,-7631.1984814642055,-7606.633914307823,-7608.109129441873,-7660.971005078674,-7674.85143838542,-7648.051696783507,-7634.283022199038,-7649.348097961914,-7620.313181914471,-7591.077100166929,-7617.6980278132,-7636.965231533674,-7674.918493618786,-7586.78556523151,-7587.679635009723,-7607.148004430295,-7672.370394750881,-7613.540603344513,-7594.318103112949,-7581.465850051147,-7673.890313373842,-7613.294734155505,-7622.548356360002,-7622.213080193172,-7646.218853738172,-7609.472585853647,-7602.431786350226,-7592.865239723354,-7637.926356545253,-7630.505577386091,-7542.909090865743,-7549.9051868802535,-7766.024204018618,-8031.920556058951,-7735.983459470685,-7653.0361357970405,-7646.889406071831,-7647.627013638857,-7583.924541941231,-7564.009137631552,-7553.123838081818,-7629.902080285798,-7567.87598942232,-7532.984916327587,-7534.415427972726,-7596.352111858382,-7568.658300478256,-7520.333828965882,-7495.43398564267,-7552.788561914988,-7524.91593657922,-7445.164912362685,-7475.809154010911,-7495.299875175939,-7494.048177486441,-7442.259185583495,-7432.714990701079,-7453.099781644319,-7506.140471236762,-7460.878188714766,-7430.0998365998075,-7427.082351098341,-7490.091918717852,-7424.064865596875,-7425.51772898647,-7455.781990978956,-7515.707017863634,-7480.883000002265,-7475.853857499821,-7482.514677347503,-7529.922727337209,-7508.085073004374,-7515.595259141357,-7540.137474553285,-7565.327890554416,-7535.085980306385,-7501.5360118789695,-7534.303669250449,-7571.921655168731,-7571.407565046259,-7507.43687241517,-7496.1939449541505,-7553.59322471538,-7603.862297995365,-7514.187099240673,-7472.836371998355,-7482.067642458397,-7561.461038763648,-7487.365005894305,-7494.919895520198,-7542.7302769101,-7596.195649647195,-7569.440611534192,-7552.453285748159,-7524.513605179025,-7596.888553725309,-7560.723431196622,-7536.114160551329,-7562.06453586394,-7616.334571401427,-7596.843850236399,-7556.409544516748,-7521.607878399835,-7565.529056254513,-7596.821498491943,-7547.871178134821,-7550.9557188696535,-7559.4717335071255,-7593.31227461246,-7287.875686630689,-7123.880937562101,-7396.438109450115,-7528.8274918588995,-7499.345540922349,-7522.658410389235,-7549.7263729246115,-7635.065333254974,-7543.266718777028,-7532.11319829383,-7545.993631600575,-7620.894327270309,-7611.394835876804,-7582.449326807181,-7558.0635736064405,-7603.07998693943,-7586.562047786957,-7551.715678181134,-7549.882835135799,-7602.543545072502,-7609.673751553745,-7554.308480537949,-7590.183030388717,-7599.16843165975,-7631.824330308954,-7586.78556523151,-7589.579533288424,-7589.624236777335,-7619.352056902892,-7564.411469031748,-7562.355108541859,-7569.060631878452,-7638.954536790197,-7611.573649832446,-7579.2530273500715,-7584.729204741622,-7650.08570552894,-7604.93518172922,-7603.437614850714,-7596.061539180463,-7607.12565268584,-7616.558088845979,-7550.531035725002,-7552.766210170533,-7593.8710682238425,-7630.237356452627,-7585.399757075282,-7604.59990556239,-7619.977905747642,-7637.03228676704,-7566.937216155197,-7584.93037044172,-7577.353129071371,-7654.08666778644,-7599.235486893116,-7567.048974877474,-7592.149983900784,-7671.18575229475,-7614.166452189262,-7575.363823814849,-7594.675731024234,-7625.655248839289,-7620.424940636747,-7559.672899207223,-7611.707760299178,-7654.846627097921,-7599.324893870938,-7569.619425489835,-7565.596111487879,-7584.818611719444,-7643.044906025519,-7579.543600027991,-7579.968283172641,-7593.155812401273,-7669.509371460602,-7614.389969633815,-7619.955554003186,-7610.053731209485,-7658.8475893554205,-7639.848606568409,-7620.626106336846,-7613.093568455407,-7684.6638542013,-7621.721341815155,-7594.9216002132425,-7589.020739677041,-7643.0002025366075,-7616.379274890337,-7585.377405330826,-7576.324948826426,-7597.782623503522,-7569.6864807232005,-7448.6517844977125,-7387.787984345911,-7368.520780625437,-7383.228228477029,-7292.323683777295,-7377.7967545743895,-7451.736325232545,-7534.236614017083,-7596.128594413829,-7685.982607124163,-7641.7708565915655,-7653.058487541496,-7604.823423006943,-7577.174315115728,-7579.163620372251,-7649.817484595476,-7623.308315671482,-7578.247198849583,-7570.289977823494,-7617.116882457362,-7626.437559895225,-7573.6203877473345,-7566.713698710644,-7633.277193698549,-7649.504560173102,-7567.11603011084,-7571.631082490812,-7593.289922868004,-7609.450234109192,-7567.205437088662,-7564.702041709667,-7586.137364642306,-7645.280080471049,-7561.572797485924,-7568.658300478256,-7576.459059293158,-7647.358792705392,-7587.45611756517,-7563.6962132091785,-7528.268698247516,-7617.116882457362,-7624.001219749596,-7566.02079463253,-7540.6292129313015,-7598.363768859359,-7608.667923053256,-7559.561140484946,-7546.686535678689,-7601.582420060924,-7617.116882457362,-7547.267681034527,-7541.702096665156,-7537.544672196469,-7603.281152639527,-7549.614614202334,-7733.792988514065,-7966.72051748282,-7778.049442535573,-7632.740751831621,-7600.062501437963,-7564.232655076105,-7609.472585853647,-7552.587396214891,-7532.582584927391,-7500.7760525674885,-7536.941175096175,-7504.464090402615,-7450.775200220967,-7460.47585731457,-7507.369817181804,-7529.6545064037455,-7432.647935467713,-7454.910272945199,-7507.168651481707,-7505.6487328587455,-7451.155179876707,-7452.384525821749,-7448.987060664543,-7498.116194977307,-7449.5905577648355,-7456.698412501623,-7481.084165702363,-7521.205546999639,-7460.386450336749,-7491.5000786185365,-7518.7915585984665,-7591.322969355938,-7494.29404667545,-7472.85872374281,-7501.156032223229,-7534.862462861832,-7537.276451263006,-7503.078282246385,-7512.555421895436,-7566.557236499458,-7603.862297995365,-7548.675840935211,-7513.896526562754,-7547.044163589974,-7578.291902338494,-7533.677820405701,-7538.975183841609,-7558.957643384653,-7599.526059571035,-7517.808081842432,-7494.33875016436,-7516.310514963927,-7605.337513129415,-7531.0626663044295,-7475.33976737735,-7467.673119029179,-7513.449491673648,-7517.919840564709,-7502.452433401637,-7496.14924146524,-7559.717602696133,-7539.377515241804,-7483.833430270366,-7467.807229495911,-7497.020959498997,-7511.482538161581,-7455.670232256679,-7457.257206113006,-7490.382491395771,-7544.451361233158,-7474.937435977154,-7473.8869039877545,-7470.310624874905,-7528.089884291874,-7173.926493397534,-7140.667097648036,-7359.937710754599,-7476.5914650668465,-7438.23587158154,-7436.537139002936,-7476.949092978131,-7537.455265218648,-7473.551627820925,-7473.350462120827,-7483.9228372481875,-7515.237631230072,-7496.931552521176,-7467.38254635126,-7477.641997056246,-7501.334846178872,-7528.045180802964,-7479.296026145938,-7497.356235665827,-7515.461148674625,-7538.572852441413,-7475.853857499821,-7494.67402633119,-7496.8197937989,-7533.476654705603,-7449.635261253747,-7492.371796652294,-7479.318377890394,-7549.949890369165,-7517.830433586888,-7474.468049343593,-7477.57494182288,-7575.0285476480185,-7539.623384430813,-7478.983101723565,-7460.051174169919,-7491.321264662894,-7517.763378353522,-7442.259185583495,-7439.107589615297,-7494.249343186539,-7501.7148258346115,-7432.871452912266,-7455.558473534403,-7466.756697506511,-7509.0461980159525,-7472.679909787168,-7498.652636844235,-7497.57975311038,-7560.388155029793,-7518.836262087377,-7502.743006079556,-7481.888828502754,-7559.114105595841,-7538.371686741315,-7511.281372461483,-7514.723541107601,-7571.07228887943,-7564.187951587195,-7509.20266022714,-7523.284259233983,-7595.145117657795,-7595.770966502544,-7502.519488635003,-7461.615796281791,-7500.351369422838,-7529.542747681469,-7396.661626894668,-7342.369239612728,-7305.4218060281055,-7321.582117269292,-7319.168128868119,-7380.702481353579,-7455.558473534403,-7545.390134500281,-7608.332646886426,-7652.209121252195,-7583.231637863117,-7623.93416451623,-7580.147097128284,-7532.91786109422,-7510.789634083466,-7543.8031606439545,-7540.517454209024,-7509.29206720496,-7518.612744642824,-7589.624236777335,-7575.810858703954,-7478.9383982346535,-7500.8878112897655,-7538.371686741315,-7589.557181543968,-7545.770114156022,-7533.364895983326,-7534.057800061441,-7586.897323953787,-7522.569003411413,-7501.737177579067,-7476.300892388927,-7548.899358379765,-7502.385378168271,-7510.34259919436,-7513.181270740184,-7586.137364642306,-7549.949890369165,-7508.688570104668,-7481.218276169095,-7550.7322014251,-7568.144210355785,-7518.813910342921,-7474.021014454486,-7540.696268164667,-7578.180143616217,-7491.768299552,-7493.489383875059,-7494.204639697628,-7545.63600368929,-7489.510773362014,-7497.53504962147,-7518.433930687182,-7558.331794539905,-7523.6642388897235,-7514.34356145186,-7485.643921571246,-7561.796314930477,-7575.7885069594995,-7797.294294511592,-7852.301937616103,-7695.660912473311,-7612.646533566301,-7534.34837273936,-7484.459279115114,-7532.023791316008,-7537.142340796273,-7464.119191660785,-7458.643014269235,-7507.727445093089,-7536.851768118355,-7456.698412501623,-7415.235926537029,-7436.514787258481,-7483.341691892349,-7444.76258096249,-7419.952144617098,-7404.194164776107,-7477.753755778523,-7435.419551780171,-7466.019089939487,-7446.304851329905,-7496.0151309985085,-7484.280465159472,-7478.916046490199,-7449.344688575828,-7535.1083320508405,-7524.692419134667,-7485.733328549067,-7517.025770786497,-7585.31035009746,-7577.755460471566,-7532.4708262051145,-7526.502910435547,-7566.937216155197,-7625.945821517208,-7576.54846627098,-7553.459114248648,-7575.363823814849,-7622.257783682083,-7575.274416837027,-7559.739954440589,-7525.407674957237,-7599.414300848759,-7586.226771620128,-7553.481465993103,-7554.531997982503,-7625.789359306021,-7580.392966317292,-7543.892567621776,-7523.775997612,-7584.863315208354,-7564.500876009569,-7541.0985995648625,-7526.860538346832,-7586.427937320225,-7602.431786350226,-7554.643756704779,-7542.752628654555,-7543.7808088995,-7575.140306370296,-7554.263777049038,-7549.458151991147,-7541.344468753871,-7610.03137946503,-7531.39794247126,-7438.23587158154,-7101.395082640062,-7348.337155382294,-7453.345650833327,-7489.756642551022,-7514.075340518397,-7563.584454486901,-7528.5369191809805,-7520.333828965882,-7530.705038393145,-7598.050844436985,-7596.620332791846,-7530.325058737405,-7530.794445370966,-7586.874972209332,-7583.209286118661,-7526.614669157823,-7525.877061590799,-7574.827381947921,-7606.969190474652,-7523.619535400812,-7564.657338220756,-7576.392004059792,-7642.12848450285,-7566.534884755002,-7507.5262793929915,-7505.738139836567,-7581.465850051147,-7565.149076598773,-7550.575739213913,-7515.7964248414555,-7572.301634824471,-7545.63600368929,-7523.261907489527,-7517.025770786497,-7573.30746332496,-7597.6261612923345,-7548.362916512838,-7534.7283523951,-7585.869143708843,-7601.671827038745,-7541.97031759862,-7526.771131369011,-7543.512587966036,-7580.549428528479,-7549.189931057684,-7545.993631600575,-7563.8750271648205,-7608.377350375337,-7535.376552984304,-7516.712846364123,-7486.8062122829215,-7565.573759743424,-7532.91786109422,-7513.360084695827,-7513.896526562754,-7547.759419412544,-7493.8470117863435,-7458.486552058048,-7471.763488264501,-7528.87219534781,-7553.414410759737,-7510.834337572377,-7504.329979935883,-7533.431951216692,-7582.7175477406445,-7520.087959776874,-7523.06074178943,-7550.329870024904,-7605.426920107237,-7522.39018945577,-7497.825622299389,-7528.20164301415,-7622.190728448717,-7553.146189826273,-7500.351369422838,-7518.165709753717,-7599.391949104303,-7534.661297161734,-7477.306720889416,-7446.193092607629,-7484.258113415017,-7421.203842306596,-7322.54324228087,-7260.360689206206,-7280.276093515885,-7273.749384134935,-7295.609390212226,-7375.539228384403,-7386.290417467406,-7543.199663543662,-7589.914809455253,-7566.892512666287,-7578.157791871762,-7625.789359306021,-7533.923689594709,-7514.835299829877,-7496.797442054444,-7588.17137338774,-7499.323189177894,-7473.171648165185,-7481.218276169095,-7576.034376148507,-7552.587396214891,-7516.310514963927,-7516.48932891957,-7538.841073374877,-7540.226881531105,-7513.941230051664,-7488.728462306079,-7546.574776956413,-7580.638835506301,-7513.6283056292905,-7508.86738406031,-7542.238538532083,-7588.797222232488,-7541.25506177605,-7535.7788843845,-7527.620497658312,-7605.225754407139,-7565.886684165798,-7540.249233275561,-7529.989782570575,-7586.0032541755745,-7547.334736267893,-7550.933367125198,-7527.151111024751,-7552.632099703801,-7528.648677903257,-7469.260092885505,-7465.57205505038,-7541.836207131888,-7545.211320544639,-7489.488421617559,-7514.365913196316,-7565.238483576594,-7570.7370127126,-7815.935649387318,-7846.445780568813,-7628.963307018675,-7632.539586131524,-7605.113995684862,-7561.125762596818,-7520.289125476972,-7602.632952050323,-7533.677820405701,-7507.191003226162,-7497.1327182212735,-7547.334736267893,-7523.932459823187,-7498.093843232852,-7465.125020161274,-7529.296878492461,-7501.24543920105,-7451.423400810171,-7433.452598268104,-7489.600180339835,-7509.895564305254,-7453.256243855506,-7440.8063221939,-7476.077374944374,-7510.454357916637,-7432.938508145632,-7438.772313448467,-7490.784822795967,-7559.628195718312,-7495.992779254053,-7508.53210789348,-7506.609857870324,-7589.557181543968,-7537.701134407656,-7537.499968707558,-7512.555421895436,-7591.747652500589,-7594.1616409017615,-7552.296823536972,-7533.811930872433,-7580.683538995211,-7555.5378264829915,-7522.703113878145,-7534.147207039262,-7592.038225178508,-7616.379274890337,-7551.089829336385,-7554.375535771315,-7604.689312540211,-7601.291847383005,-7527.44168370267,-7575.430879048215,-7592.351149600881,-7575.7885069594995,-7517.115177764318,-7540.115122808829,-7552.20741655915,-7640.027420524052,-7583.477507052125,-7563.964434142642,-7550.240463047084,-7615.082873711929,-7572.905131924765,-7510.320247449905,-7512.845994573355,-7566.9819196441085,-7557.728297439611,-7498.518526377503,-7509.001494527041,-7563.2268265756165,-7571.809896446454,-7495.188116453662,-7465.706165517112,-7193.506621540382,-7351.019364716932,-7430.345705788816,-7450.752848476512,-7504.128814235785,-7549.569910713424,-7477.083203444863,-7482.134697691763,-7493.802308297433,-7590.361844344359,-7550.173407813717,-7482.917008747699,-7515.639962630268,-7581.935236684709,-7521.943154566665,-7477.083203444863,-7503.190040968662,-7567.987748144597,-7545.658355433746,-7494.159936208718,-7467.315491117894,-7529.498044192558,-7567.004271388563,-7484.973369237587,-7469.438906841148,-7516.958715553131,-7577.174315115728,-7487.700282061134,-7503.5923723688575,-7527.464035447126,-7575.855562192865,-7490.896581518243,-7474.557456321413,-7495.590447853858,-7570.669957479234,-7499.904334533732,-7477.798459267433,-7478.491363345548,-7556.588358472391,-7509.604991627335,-7499.770224067,-7505.380511925282,-7539.846901875366,-7516.15405275274,-7440.627508238257,-7448.09299088633,-7519.7303318655895,-7556.029564861008,-7480.8159447688995,-7480.190095924151,-7534.5271866950025,-7545.613651944835,-7483.8110785259105,-7462.7333835045565,-7455.916101445688,-7518.38922719827,-7473.238703398551,-7480.52537209098,-7495.881020531777,-7541.903262365254,-7473.57397956538,-7438.817016937378,-7437.14063610323,-7487.297950660939,-7484.503982604026,-7457.5701305353805,-7439.308755315395,-7499.099671733341,-7456.072563656875,-7406.049359565897,-7417.851080638299,-7466.063793428397,-7529.408637214737,-7413.648952680702,-7413.067807324864,-7470.109459174808,-7531.174425026707,-7451.691621743635,-7430.99390637802,-7469.036575440953,-7569.127687111818,-7486.605046582824,-7424.266031296973,-7419.259240538984,-7536.628250673802,-7467.829581240366,-7445.0084501514975,-7438.817016937378,-7477.686700545157,-7426.6353162092355,-7387.631522134724,-7350.16999842763,-7343.933861724599,-7293.6871401890685,-7181.883714423623,-7129.960612053945,-7205.598915290704,-7336.423675587616,-7283.628855184181,-7333.339134852784,-7476.904389489221,-7568.367727800337,-7460.051174169919,-7417.269935282462,-7421.382656262238,-7490.047215228941,-7425.562432475381,-7402.383673475227,-7394.158231515674,-7483.431098870171,-7450.596386265324,-7407.6810369111345,-7431.485644756037,-7494.718729820101,-7493.802308297433,-7422.56729871837,-7414.453615481093,-7488.415537883704,-7494.405805397726,-7447.288328085939,-7446.103685629808,-7447.578900763858,-7480.614779068802,-7413.961877103076,-7410.206784034584,-7418.23106029404,-7475.38447086626,-7427.171758076162,-7419.974496361554,-7436.023048880465,-7494.830488542377,-7399.9249815851435,-7419.862737639277,-7443.980269906554,-7509.739102094067,-7434.480778513048,-7398.650932151191,-7400.014388562965,-7435.777179691456,-7434.056095368397,-7408.709217156079,-7422.947278374109,-7458.888883458243,-7475.183305166162,-7390.93958031411,-7405.4458624656045,-7755.563587613534,-7822.9093936573745,-7527.8887185917765,-7457.883054957754,-7440.046362882419,-7490.248380929039,-7412.620772435757,-7413.067807324864,-7389.50906866897,-7456.47489505707,-7431.306830800394,-7404.060054309375,-7394.113528026764,-7466.980214951064,-7431.642106967224,-7351.958137984055,-7310.4733002750045,-7387.966798301554,-7426.009467364486,-7355.065030463342,-7367.9396352695985,-7388.07855702383,-7409.692693912112,-7347.174864670618,-7363.156361956163,-7389.821993091345,-7447.757714719501,-7378.020272018943,-7372.231170205018,-7415.548850959403,-7499.993741511553,-7438.571147748369,-7429.585746477336,-7448.249453097517,-7498.473822888592,-7449.344688575828,-7434.525482001959,-7460.721726503579,-7517.383398697782,-7472.411688853704,-7438.191168092629,-7423.997810363509,-7493.355273408327,-7508.7556253380335,-7417.202880049095,-7427.685848198635,-7438.861720426288,-7456.854874712811,-7397.041606550409,-7419.862737639277,-7435.576013991358,-7491.09774721834,-7449.076467642363,-7425.003638863998,-7430.636278466735,-7496.417462398704,-7433.720819201568,-7418.342819016317,-7415.995885848509,-7506.922782292698,-7474.132773176762,-7400.03674030742,-7401.199031019096,-7446.707182730101,-7437.56531924788,-7407.390464233215,-7433.318487801372,-7466.935511462154,-7470.578845808369,-7409.916211356665,-7378.064975507853,-7380.702481353579,-7114.5379083797825,-7037.647907453526,-7262.953491563022,-7385.217533733551,-7451.356345576804,-7353.925091496121,-7327.393570827672,-7342.972736713021,-7451.177531621162,-7390.425490191637,-7336.669544776624,-7337.295393621373,-7405.289400254417,-7397.063958294864,-7390.738414614012,-7363.089306722797,-7391.297208225395,-7405.378807232239,-7376.500353395982,-7338.234166888496,-7397.309827483872,-7439.219348337573,-7433.89963315721,-7398.919153084655,-7375.516876639948,-7429.764560432978,-7373.12523998323,-7371.739431827001,-7394.337045471317,-7460.43115382566,-7393.934714071121,-7357.389611886694,-7358.21662643154,-7434.547833746414,-7341.922204723622,-7309.40041654115,-7352.583986828803,-7420.779159161945,-7400.7519961299895,-7361.792905544389,-7363.558693356359,-7434.27961281295,-7452.138656632741,-7354.819161274334,-7354.059201962853,-7387.676225623635,-7404.529440942936,-7339.284698877896,-7338.949422711065,-7360.854132277266,-7401.9813420750315,-7321.179785869096,-7305.354750794739,-7312.104977620242,-7403.70242639809,-7358.8871787652,-7359.31186190985,-7352.3828211287055,-7402.696597897601,-7362.17288520013,-7331.618050529725,-7367.604359102769,-7426.344743531316,-7364.877446279222,-7329.852262717755,-7315.122463121708,-7339.9328994671,-7347.934823982099,-7276.521000447393,-7258.930177561067,-7344.559710569348,-7371.31474868235,-7309.333361307784,-7332.02038192992,-7344.090323935786,-7402.428376964138,-7344.783228013901,-7340.894024478677,-7361.859960777755,-7413.067807324864,-7340.02230644492,-7332.467416819027,-7344.9843937139985,-7411.838461379822,-7380.478963909026,-7310.808576441834,-7321.9173934361215,-7395.901667583188,-7339.239995388984,-7234.030334237855,-7224.173214933064,-7274.576398679781,-7231.973973747966,-7111.676885089503,-7084.653626043038,-7113.8897077905785,-7155.665118177548,-7197.865211709168,-7247.016697766388,-7284.925256362589,-7464.387412594249,-7449.791723464933,-7365.8832747797105,-7433.609060479291,-7303.566611238314,-7309.556878752337,-7393.8453070933,-7378.288492952406,-7336.714248265535,-7319.726922479502,-7369.146629470186,-7366.866751535744,-7331.305126107351,-7335.5966610427695,-7364.117486967742,-7356.652004319669,-7281.125459805186,-7273.481163201472,-7343.933861724599,-7408.776272389445,-7348.717135038035,-7336.870710476722,-7340.089361678286,-7387.69857736809,-7345.140855925186,-7341.743390767979,-7297.6210472132025,-7387.273894223439,-7345.006745458454,-7312.842585187267,-7325.158396382141,-7360.183579943608,-7328.779378983901,-7330.299297606862,-7283.852372628734,-7356.74141129749,-7365.682109079613,-7303.63366647168,-7312.082625875786,-7358.440143876093,-7377.6849958521125,-7293.620084955703,-7300.4373670145715,-7343.822103002322,-7397.868621095255,-7362.016422988942,-7707.9767236681855,-7549.011117102042,-7481.1065174468185,-7389.821993091345,-7351.175826928119,-7318.743445723468,-7382.691786610101,-7350.92995773911,-7306.15941359513,-7290.624951198692,-7369.906588781666,-7339.418809344627,-7249.363630934195,-7225.871947511667,-7309.981561896988,-7332.757989496946,-7249.408334423106,-7283.517096461904,-7287.808631397323,-7317.715265478524,-7259.556026405815,-7265.143962519642,-7302.560782737825,-7383.3176354548505,-7309.512175263426,-7274.934026591066,-7322.587945769781,-7388.257370979473,-7318.229355600996,-7277.057442314321,-7303.208983327029,-7415.973534104054,-7363.938673012099,-7309.690989219069,-7355.489713607993,-7428.199938321107,-7374.466344650548,-7296.212887312518,-7310.518003763915,-7391.252504736484,-7431.910327900688,-7357.4343153756045,-7358.17192294263,-7382.781193587923,-7428.624621465758,-7370.353623670772,-7349.141818182686,-7364.050431734376,-7425.361266775283,-7361.323518910828,-7357.657832820158,-7383.719966855046,-7430.949202889109,-7402.473080453048,-7356.383783386205,-7360.585911343803,-7427.082351098341,-7398.114490284263,-7348.493617593482,-7352.74044903999,-7375.382766173216,-7363.134010211708,-7312.440253787072,-7341.631632045703,-7397.734510628523,-7378.847286563789,-7347.666603048636,-7376.478001651526,-7355.042678718887,-7421.114435328775,-7313.222564843008,-6949.336165110608,-7091.001521468344,-7333.964983697532,-7321.045675402364,-7323.59377427027,-7351.332289139305,-7412.106682313286,-7361.815257288845,-7346.996050714976,-7383.183524988119,-7432.402066278704,-7379.808411575367,-7365.7044608240685,-7379.473135408537,-7431.597403478313,-7399.947333329598,-7342.391591357183,-7367.9396352695985,-7428.915194143677,-7429.8092639218885,-7351.511103094948,-7361.0105944884535,-7384.681091866624,-7438.504092515003,-7346.5713675703255,-7347.621899559725,-7380.456612164571,-7435.6207174802685,-7394.784080360423,-7357.2555014199625,-7329.4946348064705,-7419.236888794529,-7368.274911436429,-7357.613129331247,-7393.800603604389,-7475.697395288635,-7416.465272482071,-7360.228283432518,-7382.311806954362,-7439.509921015492,-7455.916101445688,-7356.249672919474,-7368.543132369892,-7416.554679459892,-7443.622641995268,-7358.21662643154,-7361.077649721819,-7386.111603511764,-7411.525536957448,-7355.020326974432,-7351.801675772867,-7364.810391045856,-7433.117322101274,-7387.586818645814,-7398.293304239906,-7418.387522505227,-7496.6633315877125,-7502.34067467936,-7459.179456136162,-7448.920005431177,-7533.476654705603,-7519.395055698759,-7430.144540088719,-7411.033798579431,-7440.202825093606,-7464.342709105338,-7425.383618519738,-7427.417627265171,-7441.119246616274,-7484.8616105153105,-7392.213629748062,-7349.410039116149,-7349.521797838426,-7354.796809529878,-7263.780506107868,-7218.965258474977,-7176.720461454447,-7230.386999891639,-7221.781578276346,-7269.72607013298,-7334.255556375451,-7454.150313633718,-7507.995666026553,-7474.222180154584,-7417.47110098256,-7425.964763875576,-7426.009467364486,-7378.243789463496,-7364.586873601303,-7405.535269443425,-7441.499226272014,-7385.619865133747,-7359.736545054501,-7405.602324676791,-7484.012244226008,-7394.717025127056,-7364.9445015125875,-7365.257425934962,-7450.439924054137,-7402.093100797308,-7380.3225016978395,-7374.756917328467,-7437.118284358774,-7391.7665948589565,-7364.296300923384,-7341.966908212532,-7380.546019142392,-7351.64521356168,-7326.857128960744,-7328.891137706178,-7399.522650184947,-7401.154327530186,-7315.368332310717,-7303.700721705047,-7347.063105948342,-7378.355548185772,-7301.912582148622,-7322.185614369585,-7314.2283933434965,-7363.022251489431,-7278.040919070354,-7291.407262254627,-7348.560672826848,-7429.026952865953,-7279.449078971038,-7262.2829392293625,-7252.805799580312,-7329.829910973301,-7311.479128775493,-7303.812480427323,-7294.469451245004,-7643.223719981161,-7712.134148136873,-7441.745095461023,-7347.823065259822,-7349.164169927141,-7342.726867524013,-7273.168238779097,-7266.596825909237,-7299.386835025172,-7336.758951754446,-7273.347052734739,-7268.988462565954,-7313.44608228756,-7352.204007173063,-7262.372346207184,-7249.408334423106,-7229.7611510468905,-7307.299352562351,-7238.254813939908,-7244.066267498287,-7292.524849477393,-7361.7705537999345,-7277.973863836988,-7238.947718018022,-7256.091506015242,-7343.151550668664,-7341.430466345605,-7282.555971450326,-7298.15748908013,-7325.583079526792,-7333.249727874962,-7280.812535382812,-7302.583134482281,-7366.55382711337,-7444.941394918132,-7348.180693171107,-7358.462495620549,-7333.964983697532,-7421.203842306596,-7348.828893760311,-7333.875576719711,-7375.382766173216,-7444.382601306749,-7360.943539255088,-7354.752106040968,-7346.1019809367635,-7401.936638586121,-7388.994978546498,-7333.987335441988,-7335.753123253957,-7391.185449503118,-7379.406080175171,-7309.6462857301585,-7321.8279864583,-7359.244806676485,-7361.524684610926,-7318.810500956834,-7296.905791390633,-7290.155564565131,-7372.231170205018,-7330.567518540325,-7310.562707252826,-7319.056370145842,-7357.054335719864,-7284.969959851499,-7270.597788166737,-7297.419881513105,-7359.244806676485,-7304.527736249893,-7265.903921831122,-7102.244448929364,-6914.869775160525,-7125.26674571833,-7171.758374185369,-7211.879755482645,-7272.7882591233565,-7259.645433383636,-7245.250909954419,-7274.978730079977,-7316.083588133287,-7347.756010026456,-7288.501535475438,-7282.958302850521,-7317.670561989613,-7365.100963723775,-7253.409296680606,-7254.035145525354,-7291.6307796991805,-7331.863919718733,-7254.459828670005,-7234.678534827058,-7251.375287935172,-7328.220585372518,-7275.090488802253,-7241.495816885927,-7251.129418746164,-7314.451910788049,-7249.5424448898375,-7181.123755112142,-7188.008092404377,-7283.003006339432,-7302.91841064911,-7218.652334052603,-7191.226743605941,-7229.738799302435,-7269.6143114107035,-7181.593141745704,-7210.136319415131,-7218.875851497156,-7289.149736064642,-7192.947827929,-7179.246208577897,-7212.572659560759,-7283.628855184181,-7187.426947048539,-7166.572769471738,-7206.5153368133715,-7258.840770583245,-7176.005205631877,-7126.093760263177,-7149.5183884523385,-7229.202357435508,-7205.353046101695,-7154.435772232506,-7144.042211060788,-7181.481383023427,-7185.214124347463,-7090.532134834783,-7102.579725096193,-7156.000394344377,-7202.089691411221,-7126.384332941096,-7108.793510054768,-7133.067504533232,-7223.502662599405,-7170.014938117855,-7136.442617945983,-7128.731266108903,-7162.996490358889,-7129.7370946093915,-7084.407756854029,-7119.634106115593,-7185.817621447757,-7124.484434662394,-7054.478771028373,-7072.11429740361,-7144.377487227618,-7149.317222752241,-7058.166808863499,-7048.2649860697975,-7100.83628902868,-7160.2025223019755,-7099.830460528191,-7086.218248154909,-7132.084027777199,-7159.420211246039,-7068.0462799127445,-7075.914093961012,-7116.638972358582,-7172.138353841109,-7075.332948605174,-7080.339739363163,-7125.937298051989,-7210.873926982156,-7174.41823177555,-7112.347437423163,-7120.863452060635,-7144.153969783065,-7122.964516039434,-6982.774374815747,-6924.838653187591,-6962.031955961223,-6941.937737695902,-6834.649364310428,-6867.148800748444,-6962.367232128052,-6976.895866024001,-6897.390710996475,-7074.997672438344,-7162.929435125522,-7189.2597900938745,-7094.622504070104,-7095.717739548414,-7104.144347208065,-7194.825374463246,-7133.067504533232,-7136.152045268064,-7203.430796078539,-7267.557950920815,-7141.628222659615,-7117.175414225509,-7160.135467068609,-7234.007982493399,-7215.344275873217,-7178.508601010872,-7219.747569530913,-7264.138134019153,-7280.879590616178,-7199.2957233543075,-7191.718481983958,-7235.639659838636,-7272.698852145536,-7207.878793225145,-7233.784465048846,-7276.856276614222,-7362.8881410226995,-7261.612386895703,-7246.681421599558,-7321.850338202756,-7402.160156030674,-7324.152567881652,-7275.358709735717,-7296.592866968259,-7381.350681942783,-7363.357527656261,-7310.093320619264,-7350.237053660996,-7427.842310409822,-7406.317580499361,-7365.235074190507,-7414.520670714459,-7477.373776122782,-7513.225974229094,-7752.166122456328,-7712.491776048158,-7593.155812401273,-7587.947855943186,-7498.876154288788,-7496.462165887615,-7542.193835043173,-7609.293771898005,-7522.770169111511,-7508.040369515464,-7544.205492044151,-7630.706743086189,-7573.396870302781,-7556.320137538927,-7569.351204556371,-7606.343341629904,-7601.31419912746,-7573.151001113773,-7598.877858981831,-7672.750374406622,-7661.75331613461,-7613.719417300155,-7627.242222695616,-7669.732888905155,-7757.530541125601,-7717.76678773961,-7727.601555299945,-7781.826887348519,-7852.972489949762,-7823.714056457765,-7807.106710327472,-7824.78694019162,-7951.923662653407,-7935.003392100739,-7953.1083051095375,-7983.529029313211,-8089.74451896483,-8058.027393582749,-8017.928364029928,-8077.316949047679,-8167.595644902664,-8173.362394972133,-8118.578269312176,-8184.560618944242,-8280.360195679688,-8272.961768264982,-8237.422494581044,-8285.232875970945,-8341.156940598124,-8387.402699876155,-8338.810007430317,-8361.832304219282,-8379.914865483626,-8439.10228480128,-8387.447403365064,-8402.37836866121,-8418.76219734695,-8563.422687461698,-8527.63754458875,-8507.051587945412,-8530.677381834672,-8620.777263734015,-8603.208792592144,-8596.458565766641,-8603.208792592144,-8679.517648162562,-8672.38744168132,-8639.440970354197,-8706.026817086557,-8790.181134960787,-8792.148088472853,-8725.226965573665,-8753.747791498638,-8816.399731206862,-8602.94057165868,-8460.828180411838,-8726.322201051975,-8845.568757721037,-8932.584098885549,-8890.607522798482,-8911.171127697364,-8970.850285393035,-9100.021016600254,-9059.921987047434,-9041.817074038634,-9072.595426153592,-9114.527298751747,-9094.522487464248,-9091.840278129612,-9148.032563690253,-9213.880802855589,-9216.115977301119,-9156.772095772278,-9210.349227231649,-9259.388954566593,-9270.922454705531,-9224.766102405323,-9239.518253745826,-9294.83882127271,-9355.747324913422,-9312.116719736663,-9314.240135459917,-9361.80464766081,-9473.563369937345,-9448.350602191758,-9440.192215465571,-9483.599303197778,-9547.36883012877,-9535.723571267554,-9496.563314981857,-9477.49727696148,-9563.618548347778,-9567.910083283197,-9544.552510327401,-9572.402783918713,-9627.924517145697,-9621.353104275835,-9571.821638562875,-9604.008150578518,-9683.58036083941,-9748.31101278198,-9685.122631206827,-9704.658055860766,-9768.226417091659,-9798.378920361867,-9720.25957349057,-9792.79098424804,-9816.886164770862,-9874.307796276546,-9834.968726035206,-9868.608101440443,-9877.794668411574,-9902.739215223697,-9819.188394449759,-9794.333254615458,-9828.151443976336,-9893.038558130092,-9867.266996773124,-9834.14171149036,-9864.316566505024,-9918.161918897858,-9905.555535025065,-9839.863758070918,-9884.343729536979,-9940.088980208515,-9963.893588053417,-9881.080374846504,-9878.107592833949,-9917.178442141825,-10004.752576917717,-9936.222128417747,-9939.35137264149,-9962.999518275205,-10009.871126397984,-9974.510666669687,-9916.10555840797,-9935.819797017552,-10019.482376513764,-9976.388213203933,-9944.961660499772,-9983.138440029436,-10051.378315851489,-10022.544565504142,-9933.2940498941,-9965.25704446519,-9980.299768483612,-9932.936421982817,-9833.13588298987,-9857.991022824172,-9872.4302497423,-9881.393299268879,-9809.398330378333,-9928.577831814031,-10025.025609138682,-10077.976891753304,-10126.770749899239,-10136.873738393038,-10110.006941557758,-10125.67551442093,-10043.219929125302,-10035.285059843667,-10068.812676526628,-10149.10014261009,-10098.09346176308,-10053.23351064128,-10116.757168383261,-10190.808497763694,-10182.270131381767,-10106.09538627808,-10122.1886422859,-10167.406221318988,-10207.415843893987,-10132.425741246432,-10163.874645695048,-10193.177782675957,-10257.081420073679,-10158.599634003596,-10163.606424761585,-10219.59754462213,-10240.36231522111,-10142.86400590706,-10136.67257269294,-10173.329433599643,-10235.802559352227,-10200.3079891572,-10169.77550623125,-10206.320608415677,-10242.441027455454,-10215.440120153442,-10154.553968257185,-10183.879456982548,-10274.471077259908,-10255.0697630727,-10229.365256949099,-10260.881216631082,-10283.121202364113,-10297.113394393135,-10208.756948561306,-10239.915280332003,-10327.534118596806,-10365.62149114865,-10299.840307216682,-10514.908792365646,-10771.618577434849,-10600.583028862839,-10444.67961128707,-10367.834313849726,-10374.562188930773,-10426.172366878078,-10373.48930519692,-10364.258034736877,-10390.789555405327,-10448.92644273358,-10440.030448440368,-10447.562986321806,-10477.424916914097,-10495.060443289334,-10518.216850545032,-10455.140227692154,-10464.773829552392,-10533.684257708104,-10604.941619031622,-10556.930071941624,-10572.129258171231,-10586.61318857827,-10660.597462725338,-10608.786119077937,-10624.812319852392,-10673.986157654066,-10732.145396726775,-10692.44869857415,-10677.517733278006,-10718.35437039785,-10822.915830959777,-10780.246350794596,-10727.183309457698,-10748.752742857068,-10808.968342419666,-10809.214211608674,-10759.168655773241,-10767.729373899625,-10832.504729331104,-10870.793267583045,-10793.27741781204,-10789.008234621077,-10847.256880671606,-10924.839785675978,-10825.151005405309,-10837.779741022558,-10868.133409992864,-10918.089558850475,-10830.023685696566,-10821.842947225923,-10853.202444696719,-10951.907748211355,-10896.006035328632,-10875.82241008549,-10889.792250370056,-10963.821228006032,-10938.966088171732,-10916.7261024387,-10923.744550197667,-10968.515094341648,-10966.414030362848,-10915.675570449303,-10945.828073719511,-10999.673426112346,-11031.345848005516,-10969.252701908672,-10978.193399690796,-10995.359539432471,-11020.996990322708,-10948.756152243157,-10937.222652104218,-10981.434402636814,-10917.68722745028,-10605.254543453997,-10842.183034680253,-10953.092390667485,-11043.929880133854,-11018.56065017708,-11012.033940796131,-11039.99597310972,-11103.206706429328,-11078.552732295124,-11058.167941351885,-11057.363278551493,-11084.654758531424,-11118.29413393666,-11060.358412308504,-11054.971641894776,-11087.761651010711,-11134.432093433392,-11048.176711580361,-11080.005595684719,-11149.139541284983,-11216.17242290645,-11109.554601854636,-11069.299110090627,-11091.136764423461,-11181.59427423409,-11113.220287945305,-11109.621657088,-11143.261032493238,-11175.40284101997,-11130.6770003649,-11105.598343086045,-11128.508881152735,-11192.390166806003,-11201.621437266045,-11133.381561443992,-11156.359154744048,-11199.5427250317,-11211.45620482638,-11113.53321236768,-11141.003506303252,-11184.857628924565,-11229.35995213508,-11160.941262357386,-11186.243437080793,-11181.616625978546,-11212.439681582413,-11159.533102456702,-11135.281459722693,-11151.531177941702,-11192.50192552828,-11119.81405255962,-11119.344665926059,-11154.34749774307,-11215.367760106059,-11201.822602966144,-11154.235739020794,-11142.29990748166,-11225.336638133125,-11222.050931698195,-11173.324128785627,-11198.112213386561,-11206.561172790667,-11233.159748692484,-11135.795549845167,-11122.652724105445,-11180.186114333406,-11250.728219834355,-11183.293006812693,-11197.486364541814,-11212.797309493699,-11259.937138549942,-11196.212315107861,-11159.019012334229,-11122.563317127624,-11193.954788917874,-11106.738282053266,-11002.333283702528,-11004.79197559261,-11019.030036810642,-10926.762035699134,-10879.577503153982,-10976.293501412094,-11042.745237677722,-11096.925866237387,-11158.527273956213,-11164.003451347764,-11195.07237614064,-11184.298835313182,-11072.651871758922,-11063.018269898686,-11099.831593016577,-11146.233814505795,-11083.268950375194,-11062.258310587205,-11065.722830977778,-11140.690581880877,-11110.851003033044,-11089.236866144762,-11062.392421053937,-11154.63807042099,-11142.322259226115,-11094.690691791857,-11093.953084224831,-11128.44182591937,-11125.938430540375,-11048.28847030264,-11062.14655186493,-11100.680959305879,-11090.890895234454,-11033.581022451046,-11098.736357538266,-11125.513747395724,-11144.557433671645,-11075.758764238211,-11059.330232063561,-11063.241787343239,-11113.890840278966,-11026.450815969803,-11013.106824529985,-11040.398304509916,-11100.077462205585,-11075.557598538113,-11056.08922911754,-11043.035810355641,-11099.652779060934,-11063.107676876507,-10989.16810621835,-11008.32355121655,-11040.398304509916,-11045.09217084553,-11006.378949448937,-11306.294656550248,-11360.363526387635,-11161.321242013126,-11017.152490276396,-10998.667597611857,-11022.449853712304,-11065.52166527768,-10989.726899829735,-10932.439378790783,-10945.962184186243,-11000.880420312933,-10914.043893104064,-10903.53857321007,-10919.095387350964,-10994.912504543365,-10893.457936460727,-10839.970211979176,-10882.72909912218,-10956.40044884687,-10904.20912554373,-10822.647610026313,-10858.723325577179,-10916.770805927612,-10940.150730627864,-10877.118811263897,-10867.060526259009,-10919.430663517793,-10968.336280386005,-10925.26446882063,-10893.167363782808,-10919.609477473436,-11005.216658737261,-10942.45296030676,-10927.477291521704,-10940.106027138952,-10992.386757419916,-10924.54921299806,-10941.69300099528,-10979.668614824846,-11016.884269342932,-10975.242969422696,-10937.289707337584,-10970.839675764999,-11068.114467634496,-11003.115594758463,-10889.34521548095,-10899.112927807919,-10973.320719399539,-10976.874646767932,-10903.53857321007,-10910.132337824385,-10967.553969330069,-11001.618027879957,-10916.837861160977,-10891.893314348856,-10926.136186854386,-10968.604501319469,-10886.663006146313,-10864.9147587913,-10823.407569337794,-10903.113890065419,-10872.089668761453,-10813.081063399442,-10816.478528556649,-10904.186773799274,-10888.093517791453,-10806.822574951957,-10800.80995569348,-10850.34142140644,-10857.561034865503,-10788.337682287418,-10589.965950246567,-10458.805913782826,-10721.103634965853,-10732.726542082613,-10744.79648408848,-10759.660394151259,-10839.187900923242,-10773.89845536929,-10763.527245942027,-10787.331853786929,-10860.62322385588,-10765.069516309442,-10797.725414958646,-10823.273458871063,-10862.67958434577,-10856.935186020755,-10802.687502227725,-10815.293886100519,-10872.20142748373,-10828.727284518158,-10774.189028047209,-10784.023795607543,-10827.743807762125,-10849.447351628227,-10796.250199824597,-10796.250199824597,-10860.600872111425,-10879.175171753785,-10765.158923287265,-10772.065612323953,-10809.348322075406,-10886.506543935126,-10769.65162392278,-10768.779905889023,-10800.295865571006,-10870.39093618285,-10812.254048854596,-10757.60403366137,-10758.051068550476,-10820.457139069693,-10797.211324836175,-10769.22694077813,-10736.258117706551,-10769.450458222684,-10724.903431523257,-10672.220369842098,-10695.77910849799,-10740.572004386426,-10726.669219335225,-10650.852102142824,-10656.976480123578,-10672.73445996457,-10696.248495131553,-10623.873546585268,-10617.749168604514,-10631.584898422348,-10695.086204419877,-10631.182567022153,-10595.33036891584,-10568.642386036205,-10657.53527373496,-10585.47324961105,-10567.480095324529,-10569.111772669767,-10628.545061176428,-10537.08172286531,-10482.208190227531,-10505.83398411679,-10550.492769538496,-10525.883498893201,-10464.349146407742,-10491.55121940985,-10576.867827995757,-10630.400255966219,-10551.967984672545,-10520.139100568187,-10563.859112722768,-10626.242831497531,-10527.984562872001,-10505.521059694418,-10536.36646704274,-10609.680188856148,-10554.739600985004,-10515.17701329911,-10529.79505417288,-10605.656874854192,-10534.958307142057,-10512.181879542099,-10495.954513067545,-10480.487105904473,-10448.881739244669,-10362.827523091737,-10325.880089507114,-10333.457330877463,-10284.618769242617,-10148.563700743163,-10187.723957028862,-10320.918002238037,-10386.229799536444,-10323.354342383665,-10438.152901906122,-10535.315935053342,-10552.191502117099,-10439.292840873342,-10474.630948857182,-10489.69602462006,-10498.390853213174,-10409.721482958972,-10388.24145653742,-10403.77591893386,-10441.885643230158,-10384.1510873021,-10329.009333730857,-10316.984095213902,-10391.370700761165,-10363.47572368094,-10296.487545548385,-10325.813034273748,-10394.477593240452,-10381.29006401182,-10295.682882747995,-10313.56427831224,-10377.62437792115,-10394.43288975154,-10321.163871427045,-10328.271726163832,-10365.397973704097,-10415.82350919527,-10360.592348646207,-10348.969441529447,-10329.344609897687,-10442.556195563817,-10370.67298539555,-10308.468080576431,-10336.273650678831,-10423.981895921457,-10362.872226580648,-10256.164998551012,-10259.987146852869,-10342.979174015425,-10343.962650771458,-10282.495353519364,-10314.123071923623,-10366.493209182407,-10380.57480818925,-10304.914153208036,-10614.932848803146,-10584.57917983284,-10456.347221892742,-10308.1328044096,-10265.686841688972,-10276.505086005342,-10309.831536988204,-10248.721867647395,-10251.672297915495,-10207.237029938344,-10251.717001404406,-10179.29734936921,-10149.278956565733,-10153.324622312144,-10209.963942761891,-10165.819247462661,-10077.462801630832,-10092.729043093806,-10153.414029289965,-10151.804703689182,-10065.3258043916,-10039.777760479185,-10120.646371918485,-10145.255642563778,-10060.453124100342,-10057.189769409868,-10079.94384526537,-10124.379113242521,-10060.52017933371,-10050.685411773375,-10082.33548192209,-10181.532523814742,-10136.605517459575,-10101.356816453555,-10086.023519757215,-10166.042764907213,-10169.306119597688,-10115.371360227033,-10059.871978744504,-10150.24008157731,-10159.001965403791,-10085.867057546027,-10070.623167827507,-10155.96212815787,-10160.365421815566,-10071.673699816907,-10094.986569283792,-10150.284785066222,-10179.900846469503,-10079.161534209436,-10062.241263656768,-10057.636804298974,-10113.918496837437,-10023.259821326712,-10056.586272309574,-10098.76401409674,-10148.38488678752,-10016.666056712396,-10008.641780452941,-10032.736960975762,-10087.94576978037,-10063.939996235371,-10008.060635097103,-10026.74669346174,-10090.42681341491,-10071.494885861264,-10016.12961484547,-9993.017911078681,-10038.03432441167,-10076.345214408066,-9981.082079539548,-9983.876047596461,-9987.45232670931,-9736.30812600948,-9591.111194027806,-9830.431321910777,-9956.718678083264,-9997.55531520311,-9920.77707299913,-9917.111386908458,-9966.3522799435,-10030.70295223033,-9932.82466326054,-9942.167692442858,-9955.444628649311,-10007.948876374827,-9915.926744452328,-9873.726650920707,-9911.255229861168,-9969.772096845163,-9949.946099513305,-9908.327151337524,-9938.457302863277,-9957.21041646128,-9983.78664061864,-9893.306779063556,-9911.523450794632,-9945.051067477592,-9947.532111112132,-9848.625641897397,-9886.578903982509,-9921.648791032887,-9969.325061956057,-9911.903430450373,-9868.921025862817,-9874.397203254366,-9945.565157600066,-9877.414688755833,-9860.919101347818,-9876.297101533068,-9921.984067199715,-9865.255339772146,-9808.146632688837,-9808.75012978913,-9850.99492680966,-9859.890921102873,-9759.173960587259,-9786.577199289466,-9858.61687166892,-9852.693659388264,-9783.112678898893,-9790.421699335779,-9808.4148536223,-9858.773333880108,-9811.23117342367,-9793.12626041487,-9827.592650364953,-9896.033691887103,-9791.919266214283,-9749.093323837915,-9787.873600467874,-9856.247586756657,-9795.540248816043,-9755.68708845223,-9772.182675860247,-9812.125243201881,-9783.783231232552,-9687.938951008195,-9702.221715715137,-9741.605489445388,-9674.10322119036,-9534.807149744887,-9515.562297768867,-9544.150178927204,-9585.635016636255,-9575.889656053741,-9658.032316926994,-9718.605544400876,-9845.384638951378,-9837.338010947467,-9793.305074370513,-9749.74152442712,-9772.875579938362,-9715.006913543571,-9698.757195324564,-9666.39186935328,-9720.863070590864,-9702.020550015039,-9648.62223251131,-9674.147924679271,-9757.40817277529,-9724.707570637176,-9671.309253133448,-9686.687253318698,-9718.896117078795,-9705.485070405612,-9654.299575602958,-9673.812648512441,-9697.10316623487,-9700.232410458615,-9631.679610214187,-9650.611537767832,-9679.288825903992,-9702.556991881966,-9625.532880488978,-9601.66121741071,-9641.447322541157,-9719.253744990081,-9645.314174331925,-9602.75645288902,-9608.366740747302,-9664.022584441016,-9635.546462004955,-9580.427060178168,-9589.188944004649,-9654.05370641395,-9676.830134013908,-9592.631112650766,-9581.52229565648,-9601.482403455067,-9610.244287281548,-9518.40096931469,-9552.442676120125,-9564.736135570543,-9577.007243276506,-9494.953989381074,-9511.606039000279,-9538.048152690906,-9603.024673822483,-9869.882150874395,-9735.749332398098,-9571.486362396046,-9587.646673637233,-9514.958800668574,-9458.051259285363,-9425.261250169428,-9439.946346276563,-9433.598450851256,-9356.306118524804,-9369.493647753436,-9391.957150931019,-9378.099069368729,-9316.810586072277,-9344.794970130322,-9359.502417981914,-9378.032014135362,-9295.285856161816,-9261.244149356384,-9289.921437492543,-9336.636583404133,-9270.654233772068,-9288.401518869581,-9316.944696539009,-9372.33231929926,-9283.841763000699,-9302.46076613197,-9315.402426171593,-9375.32745305627,-9335.407237459092,-9301.320827164749,-9339.117627038673,-9365.7609064294,-9319.470443662458,-9250.537663762292,-9302.930152765532,-9371.035918120851,-9391.219543363994,-9308.048702245796,-9292.715405549456,-9362.050516849818,-9426.24472692546,-9301.343178909205,-9277.002129197375,-9308.22751620144,-9376.489743767946,-9299.26446667486,-9300.65027483109,-9294.302379405783,-9324.36547569817,-9254.672736486524,-9232.16452982003,-9253.309280074749,-9321.102121007696,-9296.425795129036,-9214.439596466971,-9212.852622610644,-9289.83203051472,-9275.616321041147,-9210.72920688739,-9232.633916453591,-9252.21404459644,-9266.273291858828,-9217.25591626834,-9200.447404437948,-9246.268480571327,-9094.388376997516,-8750.484436808161,-9014.704408014346,-9162.740011541846,-9230.868128641621,-9123.780920956246,-9117.701246464401,-9172.127744213074,-9240.166454335029,-9169.467886622893,-9160.907168496511,-9175.905189026022,-9231.046942597264,-9221.212175036928,-9162.829418519666,-9189.517401399304,-9261.422963312027,-9249.01774513933,-9154.268700393284,-9184.354148430128,-9254.806846953255,-9303.779519054833,-9187.550447887237,-9150.67006953598,-9182.700119340434,-9247.296660816271,-9175.927540770477,-9145.193892144429,-9214.685465655979,-9306.193507456006,-9219.044055824765,-9160.683651051957,-9177.67097683799,-9256.63968999859,-9208.851660353144,-9184.555314130224,-9156.749744027824,-9219.11111105813,-9213.500823199847,-9184.018872263297,-9186.00817751982,-9185.069404252697,-9194.948875301943,-9129.055932647698,-9134.174482127963,-9196.848773580645,-9227.15773906204,-9081.692586146903,-9118.081226120143,-9120.495214521316,-9175.212284947907,-9118.595316242614,-9074.584731410114,-9090.521525206748,-9171.323081412684,-9098.635208444024,-9044.454579884361,-9101.272714289751,-9170.071383723187,-9112.783862684235,-9038.106684459053,-9044.208710695351,-9087.414632727461,-9069.689699374401,-8985.088346611064,-9013.586820791581,-9054.69167884489,-9054.155236977964,-8963.183637044864,-8998.96877991781,-9024.561527319138,-9088.018129827755,-9011.061073668132,-8958.53447419816,-8988.798736190645,-9041.079466471609,-8974.024233105687,-8973.82306740559,-8989.73750945777,-9067.990966795798,-8998.298227584151,-8924.135139481443,-8959.182674787364,-9057.46329515735,-9018.750073760757,-8959.00386083172,-8962.848360878035,-9011.239887623775,-9024.315658130128,-8943.692915879836,-8955.807561374613,-9012.759806246735,-9039.35838214855,-8949.280851993663,-8939.401380944417,-8949.325555482574,-8961.753125399724,-8824.111083043943,-8776.345405142953,-8778.513524355118,-8762.040288691556,-8635.976449963624,-8607.969714161125,-8696.661436159782,-8815.12568177291,-8778.893504010857,-8865.059478886065,-8932.67350586337,-8940.831892589556,-8903.348017138007,-8834.83992038249,-8840.94194661879,-8893.71441527777,-8910.388816641429,-8810.40946369284,-8819.260754497142,-8890.674578031847,-8940.966003056288,-8847.423952510828,-8846.284013543607,-8900.66580780337,-8938.14968325492,-8848.116856588944,-8845.904033887868,-8852.430743268818,-8915.127386465954,-8825.675705155814,-8762.68848928076,-8799.658274609837,-8900.889325247923,-8851.044935112588,-8784.906123269335,-8792.751585573147,-8861.952586406778,-8869.529827777127,-8766.912968982813,-8811.102367770955,-8845.099371087477,-8854.107124102966,-8778.334710399475,-8787.990664004166,-8789.97996926069,-8845.725219932225,-8763.426096847785,-8746.885805950858,-8780.9722162452,-8828.469673212729,-8734.97232615618,-8726.836291174448,-8768.455239350229,-9052.545911377181,-9161.063630707697,-8879.118726148454,-8829.564908691038,-8833.096484314978,-8751.959651942212,-8690.917037834768,-8714.140500323832,-8787.40951864833,-8765.884788737869,-8675.181409738232,-8645.118313445844,-8664.38551716632,-8708.77608165456,-8637.317554630943,-8620.665505011739,-8641.631441310816,-8695.230924514643,-8576.833734134882,-8561.634547905272,-8590.825926163903,-8668.945273035202,-8585.863838894826,-8548.111742509811,-8545.094257008346,-8603.678179225704,-8502.648294287717,-8436.91181384466,-8490.958331937592,-8591.004740119546,-8566.060193307423,-8520.194413685133,-8598.045539622968,-8677.751860350592,-8704.685712419237,-8624.197080635677,-8643.218415167143,-8683.71977612016,-8733.385352299852,-8652.963775749657,-8658.23878744111,-8670.219322469155,-8715.548660224516,-8625.1358539028,-8638.323383131432,-8686.647854643805,-8764.029593948078,-8673.862656815369,-8634.188310407199,-8668.453534657185,-8741.700201237227,-8681.506953419084,-8630.790845249992,-8647.37583963583,-8684.680901131738,-8684.077404031445,-8612.46241479664,-8635.976449963624,-8694.403909969797,-8694.739186136627,-8568.205960775133,-8622.252478868066,-8679.048261529,-8711.301828778009,-8584.634492949783,-8608.684969983695,-8656.227130440133,-8715.950991624713,-8633.473054584629,-8579.292426024966,-8587.003777862046,-8676.075479516445,-8596.503269255552,-8587.383757517786,-8408.525098386419,-8277.387413667133,-8453.653270441684,-8447.864168627759,-8518.294515406433,-8608.439100794685,-8597.978484389601,-8486.689148746627,-8498.82614598586,-8589.261304052032,-8635.060028440956,-8550.1681029997,-8584.187458060678,-8588.858972651837,-8669.705232346681,-8571.201094532144,-8541.987364529057,-8530.252698690021,-8607.477975783107,-8548.35761169882,-8520.440282874142,-8543.887262807759,-8606.718016471626,-8545.764809342005,-8518.54038459544,-8545.07190526389,-8642.771380278038,-8603.365254803331,-8522.742512553039,-8559.757001371026,-8611.590696762883,-8595.899772155259,-8525.089445720845,-8530.476216134575,-8567.691870652661,-8624.80057773597,-8523.413064886698,-8503.698826277117,-8557.633585647773,-8634.903566229768,-8513.332428137353,-8483.291683589421,-8507.520974578974,-8572.810420132926,-8494.48990756153,-8468.114849104268,-8501.418948342676,-8582.153449315245,-8526.430550388164,-8453.742677419505,-8462.415154268165,-8530.587974856851,-8508.795024012927,-8425.244203238988,-8457.900101888192,-8535.147730725734,-8557.186550758666,-8460.559959478374,-8471.601721239296,-8489.170192381167,-8552.157408256222,-8470.461782272076,-8456.022555353948,-8473.054584628891,-8523.189547442145,-8442.43269472512,-8432.687334142605,-8433.00025856498,-8497.641503529729,-8418.136348502201,-8399.85262153776,-8422.405531693164,-8495.473384317564,-8446.858340127272,-8416.57172639033,-8458.615357710762,-8508.459747846096,-8477.927264920148,-8387.380348131699,-8413.66599961114,-8484.856305701293,-8515.701713049617,-8370.728298512495,-8400.478470382508,-8411.631990865706,-8461.789305423415,-8352.489275036964,-8360.401792574143,-8416.147043245679,-8495.339273850832,-8389.883743510693,-8335.434894017566,-8357.250196605944,-8444.042020325902,-8397.863316281238,-8356.199664616546,-8360.89353095216,-8422.897270071182,-8405.149984973668,-8324.84016714575,-8345.783751700372,-8419.76802584744,-8456.983680365525,-8382.619426562718,-8325.443664246042,-8329.578736970274,-8378.573760816307,-8316.435911230554,-8268.714936818473,-8301.326131978767,-8318.805196142817,-8166.2992437242565,-8113.616182043098,-8102.820289471185,-8124.769702526296,-8040.950660818895,-8049.243158011814,-8134.55976659772,-8235.880224213628,-8301.370835467676,-8352.288109336867,-8338.184158585567,-8378.260836393933,-8365.162714143124,-8295.201753998012,-8302.197850012524,-8342.587452243264,-8359.46301930702,-8292.45248943001,-8325.60012645723,-8312.45730071751,-8341.067533620302,-8245.938509218515,-8245.714991773963,-8290.239666728934,-8356.065554149813,-8284.204695726,-8281.053099757803,-8319.74396940994,-8381.300673639855,-8284.472916659464,-8248.553663319786,-8294.218277241978,-8378.03731894938,-8331.143359082145,-8266.92679726205,-8312.88198386216,-8376.115068926223,-8329.690495692552,-8243.077485928236,-8283.422384670066,-8344.84497843325,-8341.291051064856,-8215.294267570289,-8218.825843194229,-8279.734346834939,-8330.27164104839,-8244.597404551198,-8257.360250635178,-8289.569114395275,-8350.07528663579,-8257.49436110191,-8330.517510237398,-8680.18820049622,-8543.59669012984,-8357.808990217327,-8257.404954124087,-8282.371852680666,-8361.541731541363,-8312.79257688434,-8211.069787868237,-8243.233948139423,-8307.495213448432,-8300.230896500456,-8195.758842916352,-8201.726758685918,-8216.970648404438,-8243.189244650514,-8171.350737971156,-8161.717136110919,-8188.963912601938,-8253.359288377678,-8138.024286988293,-8136.839644532162,-8172.937711827482,-8257.047326212803,-8166.232188490891,-8129.038885717259,-8170.277854237302,-8244.53034931783,-8169.540246670276,-8098.662865002498,-8133.03984797476,-8237.936584703515,-8187.3098835122455,-8111.023379686282,-8119.248821645835,-8221.306886828766,-8256.086201201226,-8164.4216971900105,-8168.310900725234,-8239.165930648558,-8298.174536010569,-8183.510086954843,-8170.456668192944,-8211.270953568335,-8290.530239406853,-8226.716008986952,-8212.969686146938,-8198.932790629005,-8274.481686887942,-8196.272933038823,-8171.238979248879,-8189.589761446687,-8282.036576513836,-8198.798680162274,-8128.234222916869,-8181.587836931687,-8235.991982935904,-8224.592593263698,-8156.397420930555,-8146.696763836952,-8206.152404088069,-8216.255392581868,-8146.070914992204,-8155.302185452246,-8196.787023161296,-8232.683924756519,-8110.822213986185,-8098.953437680417,-8128.278926405779,-8235.880224213628,-8144.059257991226,-8119.964077468405,-8154.274005207301,-8227.990058420904,-8154.855150563139,-8086.212943340892,-8107.201231384424,-7900.693464361842,-7881.9627025082955,-8017.816605307652,-8113.0573884317155,-8168.4673629364215,-8179.106793297147,-8101.881516204062,-8108.743501751841,-8146.540301625765,-8177.899799096561,-8086.816440441185,-8090.437423042945,-8150.89889179455,-8220.301058328278,-8104.4296150719665,-8094.17016436698,-8121.148719924537,-8200.184488318502,-8121.327533880179,-8061.916597117973,-8083.083699117148,-8169.1155635256255,-8123.719170536897,-8104.720187749886,-8134.269193919801,-8215.584840248208,-8142.807560301729,-8079.529771748755,-8102.417958070989,-8158.699650609452,-8168.243845491868,-8090.415071298489,-8118.242993145346,-8142.94167076846,-8169.450839692455,-8076.042899613727,-8073.427745512456,-8116.968943711394,-8188.271008523823,-8065.939911119928,-8055.702812159398,-8046.270375999257,-8170.434316448488,-8080.64735897152,-8037.575547406143,-8088.716338719886,-8183.28656951029,-8098.193478368936,-8046.918576588461,-8075.327643791157,-8133.106903208126,-8137.4207898879995,-8065.716393675375,-8051.254815012791,-8142.762856812818,-8163.438220433977,-8034.714524115864,-8042.180006763936,-8100.428652814467,-8125.104978693125,-8025.818529822652,-8018.241288452303,-8057.73682090483,-8100.4957080478325,-7977.069375165627,-7964.619453504021,-8021.616401865054,-8104.004931927316,-8015.424968650934,-7992.737948028797,-8017.324866929635,-8111.045731430738,-8102.887344704551,-8025.572660633643,-8007.646561580487,-8096.986484168349,-8121.148719924537,-7993.341445129091,-8006.350160402079,-8072.578379223154,-8092.65024574402,-7995.15193642997,-8025.773826333741,-8084.581265995654,-8117.058350689215,-7994.4366806074,-7984.132526413504,-7989.943979971884,-8055.322832503657,-7970.00622391775,-7864.662452299888,-7847.295146858114,-7900.358188195013,-7799.462413723757,-7763.118477239428,-7866.204722667304,-7987.462936337345,-7948.660307962931,-7944.4134765164235,-8080.401489782512,-8138.806598044229,-8066.7445739203185,-7918.820729115097,-7988.178192159915,-8063.615329696576,-8052.64062316902,-7926.599136185544,-7972.040232663183,-8038.246099739802,-8072.936007134439,-7954.784685943686,-7948.615604474021,-7967.212255860836,-8054.384059236534,-7978.611645533043,-7946.581595728589,-7972.889598952484,-8049.243158011814,-7995.420157363434,-7938.870243891507,-7993.363796873546,-8071.572550722665,-8040.25775674078,-7926.66619141891,-7960.57378775761,-8037.441436939412,-8051.88066385754,-7970.766183229231,-7985.808907247652,-8053.154713291492,-8056.842751126618,-7986.658273536954,-7988.021729948728,-8027.941945545906,-8083.776603195263,-7981.67383452342,-7946.246319561758,-7995.353102130068,-8070.857294900095,-7962.38427905849,-7947.363906784524,-7968.262787850236,-8048.460846955878,-8003.377378389523,-7949.643784718965,-7935.897461878952,-7987.708805526353,-8050.785428379229,-8303.091919790735,-8178.860924108139,-8103.088510404648,-8111.157490153014,-7969.201561117359,-7939.227871802792,-7978.76810774423,-8023.87392805504,-7928.5213862087,-7914.417435457402,-7951.566034742122,-8026.824358323141,-7924.296906506647,-7901.386368439958,-7944.458180005334,-8025.706771100376,-7951.387220786479,-7915.289153491159,-7932.231775788281,-8013.055683738671,-7947.319203295613,-7884.555504865111,-7922.620525672499,-7962.2054651028475,-7997.096538197582,-7900.380539939469,-7925.861528618519,-7991.441546850389,-8001.276314410725,-7927.247336774748,-7940.881900892485,-7980.3997850894675,-8069.672652443965,-7995.800137019174,-7947.05098236215,-7969.000395417261,-8082.659015972497,-8012.988628505305,-7962.294872080669,-7977.359947843546,-8073.070117601171,-8019.15770997497,-7979.148087399971,-7979.617474033532,-8065.314062275179,-8062.140114562526,-7970.766183229231,-7994.526087585222,-8019.381227419523,-8030.221823480347,-7976.018843176227,-8021.526994887233,-8070.79023966673,-8107.2459348733355,-7999.801099276674,-7998.5941050760875,-8004.874945268029,-8085.78826019624,-7997.700035297876,-7968.665119250431,-8007.423044135934,-8089.543353264732,-7998.147070186981,-7965.66998549342,-8012.20631744937,-8077.071079858671,-8048.617309167065,-7986.300645625669,-7993.743776529286,-8069.516190232777,-8076.154658336003,-7983.685491524398,-7976.24236062078,-7887.08125198856,-7648.051696783507,-7821.5012337566895,-7941.485397992778,-8036.4579601833775,-8084.603617740109,-7976.15295364296,-7996.560096330655,-8030.110064758071,-8109.79403374124,-8014.866175039551,-7969.112154139538,-8012.340427916101,-8114.532603565765,-8038.000230550794,-7984.981892702805,-8027.807835079174,-8130.089417706659,-8074.902960646506,-7982.344386857079,-8023.15867223247,-8092.717300977386,-8115.314914621701,-8040.458922440877,-8042.694096886408,-8095.041882400737,-8117.214812900403,-7989.2063724048585,-7997.878849253518,-8041.755323619285,-8102.976751682371,-8030.490044413811,-8031.339410703113,-8053.467637713867,-8122.780397269774,-8017.883660541018,-7972.330805341102,-8024.410369921968,-8103.647304016031,-8037.3967334505005,-7964.552398270655,-8021.325829187135,-8127.362504883112,-8083.396623539523,-8007.311285413657,-8031.562928147666,-8107.692969762442,-8134.045676475249,-8020.163538475459,-8020.9011460424845,-8065.559931464188,-8122.668638547497,-8030.914727558462,-7994.235514907303,-8021.124663487038,-8105.323684850179,-8053.758210391786,-8040.3918672075115,-8093.991350411338,-8163.684089622986,-8069.4044315105,-8080.915579904984,-8107.98354244036,-8184.76178464434,-8123.585060070165,-8028.500739157288,-8044.526939931744,-8123.4509496034325,-8115.493728577344,-8072.421917011967,-8094.17016436698,-8178.3915374745775,-8238.651840526085,-8138.985411999872,-8158.386726187078,-8175.910493840039,-8213.014389635848,-8126.5578420827205,-8145.646231847553,-8196.541153972286,-8285.344634693221,-8191.66847368103,-8174.100002539159,-8231.074599155736,-8332.037428860358,-8220.47987228392,-8090.9291614209615,-8117.393626856045,-8193.166040559536,-8138.225452688391,-8081.094393860626,-8105.390740083545,-8117.4159786005,-8036.904995072484,-7940.613679959021,-7907.1978219983375,-7901.94516205134,-7980.288026367191,-8002.080977211115,-8013.5027186277775,-8090.571533509677,-8309.395111727132,-8239.992945193404,-8189.209781790946,-8181.878409609606,-8247.279613885834,-8150.429505160989,-8130.983487484871,-8185.566447444731,-8266.368003650667,-8223.966744418949,-8145.5791766141865,-8177.631578163097,-8278.661463101085,-8251.749962776896,-8184.2029910329575,-8212.790872191295,-8277.767393322873,-8301.795518612327,-8214.020218136337,-8197.748148172874,-8249.179512164535,-8308.925725093572,-8182.392499732077,-8184.337101499689,-8286.529277149353,-8712.709988678693,-8491.070090659869,-8303.82952735776,-8284.383509681644,-8338.36297254121,-8224.72670373043,-8189.969741102427,-8215.137805359103,-8247.436076097021,-8176.312825240234,-8164.466400678922,-8183.018348576827,-8249.58184356473,-8257.49436110191,-8180.067918308726,-8193.456613237455,-8255.594462823208,-8283.3553294367,-8167.61799664712,-8184.091232310681,-8213.796700691784,-8285.746966093417,-8201.503241241366,-8179.084441552693,-8228.548852032287,-8274.593445610219,-8139.2983364222455,-8161.158342499536,-8213.14850010258,-8284.942303293026,-8195.803546405263,-8143.813388802218,-8149.893063294061,-8207.67232271103,-8172.445973449466,-8095.086585889649,-8133.151606697036,-8186.0805375672035,-8165.025194290304,-8078.926274648461,-8120.232298401868,-8211.96385764645,-8198.19518306198,-8122.869804247595,-8153.603452873642,-8212.746168702384,-8286.35046319371,-8174.9270170840055,-8157.380897686589,-8182.526610198809,-8256.44382911251,-8222.223308351435,-8196.205877805458,-8190.148555058069,-8265.093954216714,-8243.189244650514,-8202.017331363837,-8233.82386372374,-8323.811986900806,-8263.574035593752,-8189.008616090849,-8200.229191807413,-8306.265867503389,-8321.59916419973,-8193.94835161547,-8205.370093032134,-8250.20769240948,-8300.990855811937,-8232.236889867412,-8234.405009079577,-8221.597459506685,-8271.710070575486,-8223.564413018754,-8223.698523485486,-8238.204805636979,-8286.484573660442,-8213.126148358126,-8194.19422080448,-8175.597569417664,-8257.673175057553,-8223.29619208529,-8156.106848252636,-8178.324482241212,-8257.784933779829,-8265.652747828097,-8192.897819626072,-8204.565430231742,-8258.947224491505,-8275.286349688335,-8178.995034574871,-8208.566392489241,-8250.028878453837,-8259.304852402789,-8209.371055289634,-8192.80841264825,-7859.387440608435,-7942.7147439378205,-8058.07209707166,-8142.807560301729,-8197.837555150694,-8217.887069927105,-8180.447897964466,-8151.770609828307,-8183.398328232566,-8271.911236275582,-8215.540136759299,-8143.813388802218,-8174.211761261436,-8249.805361009283,-8207.024122121826,-8139.320688166701,-8158.073801764704,-8216.300096070778,-8241.401105094088,-8157.336194197678,-8169.741412370374,-8252.800494766296,-8305.103576791713,-8144.305127180234,-8126.714304293908,-8183.845363121673,-8283.06475675878,-8154.788095329774,-8126.759007782818,-8140.728848067385,-8216.322447815233,-8130.804673529229,-8129.2624031618125,-8178.525647941309,-8264.44575362751,-8231.253413111379,-8148.619013860109,-8177.47511595191,-8250.744134276407,-8260.176570436546,-8168.400307703056,-8173.205932760947,-8238.58478529272,-8269.340785663222,-8190.729700413907,-8199.491584240388,-8276.716861333474,-8312.97139083998,-8211.516822757343,-8199.424529007021,-8215.383674548111,-8290.26201847339,-8166.969796057916,-8140.885310278572,-8183.711252654941,-8275.241646199423,-8228.213575865457,-8170.769592615318,-8198.821031906728,-8270.681890330541,-8257.002622723892,-8194.015406848837,-8210.980380890416,-8262.076468715248,-8261.025936725848,-8170.858999593139,-8216.836537937706,-8291.871344074172,-8334.3173067948,-8238.361267848166,-8193.098985326169,-8218.311753071755,-8294.3076842198,-8211.539174501799,-8178.6821101524965,-8188.628636435108,-8260.288329158822,-8195.155345816058,-8153.335231940178,-8200.139784829591,-8307.942248337538,-8253.180474422035,-8208.722854700429,-8229.509977043865,-8291.759585351896,-8270.3019106748,-8220.166947861546,-8274.660500843585,-8304.83535585825,-8328.148225325134,-8229.957011932971,-8213.662590225053,-8317.799367642328,-8334.540824239353,-8206.152404088069,-8208.029950622315,-8264.244587927413,-8339.525263252886,-8165.718098368418,-8143.2322434463795,-8185.119412555625,-8195.468270238433,-8055.92632960395,-7974.945959442372,-7948.481494007289,-7998.34823588708,-8021.30347744268,-8019.537689630711,-8059.949643605905,-8236.036686424815,-8366.168542643612,-8266.54681760631,-8233.510939301364,-8272.313567675777,-8298.554515666308,-8211.606229735164,-8220.993962406394,-8262.702317559995,-8318.000533342425,-8220.09989262818,-8205.213630820946,-8246.787875507818,-8317.397036242131,-8224.167910119046,-8201.838517408194,-8217.551793760276,-8289.412652184088,-8230.851081711184,-8201.48088949691,-8223.184433363012,-8313.88781236265,-8300.007379055904,-8209.661627967553,-8248.553663319786,-8327.947059625038,-8289.993797539926,-8187.533400956799,-8195.37886326061,-8255.125076189646,-8274.325224676755,-8170.613130404131,-8202.665531953042,-8246.050267940793,-8291.178439996058,-8201.726758685918,-8204.833651165205,-8244.53034931783,-8286.372814938166,-8226.693657242497,-8195.915305127539,-8206.2865145548,-8295.112347020191,-8264.423401883054,-8189.925037613516,-8228.079465398725,-8304.745948880429,-8264.132829205135,-8182.168982287524,-8209.773386689829,-8256.265015156867,-8255.974442478948,-8121.126368180081,-8157.179731986491,-8196.988188861393,-8226.805415964773,-8116.030170444271,-8093.879591689061,-8121.03696120226,-8207.940543644494,-8148.5072551378325,-8134.671525319997,-8129.038885717259,-8194.350683015668,-8129.441217117455,-8091.130327121059,-8168.3779559586,-8243.479817328433,-8167.461534435933,-8063.995309352316,-8096.874725446073,-8203.805470920262,-8211.941505901994,-8108.899963963028,-8138.024286988293,-8202.397311019577,-8211.919154157538,-8118.958248967916,-8158.654947120542,-8207.202936077469,-8222.849157196184,-8117.4159786005,-8172.311862982734,-8213.751997202873,-8281.522486391365,-8168.892046081072,-8159.191388987469,-8206.800604677273,-8296.386396454143,-8216.881241426616,-8177.385708974089,-8213.684941969508,-8292.54189640783,-8248.955994719981,-8171.596607160164,-8206.510031999354,-8231.611041022663,-8234.941450946504,-8158.297319209257,-8197.815203406239,-8226.268974097846,-8206.420625021532,-8149.870711549606,-8148.596662115653,-8140.482978878377,-8217.037703637803,-8123.361542625612,-8126.691952549452,-8152.687031350974,-8221.508052528865,-8151.949423783949,-8097.075891146171,-8131.810502029718,-8224.570241519243,-8153.715211595919,-8100.898039448028,-8126.602545571631,-8175.485810695388,-8134.4256561309885,-8090.07979513166,-8111.492766319843,-8199.29041854029,-8204.587781976197,-8091.823231199173,-8114.823176243684,-8200.743281929885,-8227.073636898236,-8121.528699580276,-8142.89696727955,-8194.842421393683,-8252.86754999966,-8155.033964518781,-8132.816330530207,-8146.652060348041,-8198.418700506532,-8160.71130761043,-8144.796865558251,-8167.5285896692985,-8262.858779771183,-8186.304055011757,-8120.858147246618,-8149.267214449313,-8230.739322988908,-8209.259296567358,-8131.810502029718,-8189.433299235499,-8233.063904412258,-8186.2593515228455,-8111.984504697861,-8155.6151098746195,-8209.013427378348,-8239.68002077103,-8143.634574846576,-8152.575272628698,-8197.85990689515,-8267.373832151156,-8162.722964611407,-8127.563670583209,-8139.901833522539,-8241.624622538642,-8168.042679791771,-8136.571423598698,-8136.459664876422,-8214.042569880792,-8192.71900567043,-8159.3702029431115,-8186.52757245631,-8204.587781976197,-8221.351590317678,-8099.0875481471485,-8119.807615257218,-8216.367151304144,-8243.904500473083,-8139.2983364222455,-8195.043587093782,-8224.212613607957,-8262.344689648711,-8182.504258454354,-8168.869694336617,-8169.696708881464,-8235.030857924326,-8155.212778474424,-8159.973700043404,-8198.888087140094,-8246.005564451882,-8165.6510431350525,-8149.021345260304,-8163.862903578628,-8212.008561135359,-8171.574255415709,-8096.360635323601,-8107.26828661779,-8181.721947398419,-8205.794776176785,-8165.494580923865,-8162.968833800416,-8219.854023439173,-8268.804343796295,-8168.914397825528,-8186.460517222944,-8199.804508662763,-8244.597404551198,-8147.009688259326,-8151.323574939201,-8193.635427193098,-8288.02684402786,-8249.134808675624,-8156.419772675011,-8162.879426822595,-8275.889846788627,-8239.3447446042,-8127.921298494494,-8114.599658799131,-8207.71702619994,-8131.654039818531,-7970.4309070624,-7937.730304924286,-7993.632017807009,-8034.78157934923,-7964.217122103825,-8072.198399567414,-8143.835740546673,-8224.77140721934,-8234.650878268585,-8268.424364140554,-8297.325169721267,-8297.146355765624,-8181.833706120695,-8177.251598507357,-8213.953162902972,-8304.45537620251,-8245.200901651491,-8192.115508570136,-8225.82193920874,-8298.174536010569,-8225.687828742008,-8200.206840062958,-8253.113419188669,-8317.665257175597,-8262.903483260094,-8147.546130126254,-8178.078613052204,-8238.137750403614,-8274.280521187846,-8188.963912601938,-8185.052357322259,-8237.288384114312,-8325.711885179506,-8234.449712568488,-8233.890918957106,-8262.791724537818,-8322.470882233487,-8231.67809625603,-8191.780232403306,-8220.166947861546,-8314.22308852948,-8248.73247727543,-8195.110642327147,-8213.729645458418,-8275.308701432788,-8259.908349503083,-8204.073691853726,-8224.413779308055,-8278.594407867718,-8290.820812084772,-8222.491529284898,-8257.673175057553,-8307.83048961526,-8298.174536010569,-8185.566447444731,-8178.749165385862,-8240.797607993794,-8288.630341128151,-8174.010595561337,-8175.61992116212,-8220.502224028376,-8295.40291969811,-8229.845253210695,-8184.135935799592,-8215.517785014843,-8253.91808198906,-8179.4420694639775,-8134.805635786729,-8152.865845306617,-8263.149352449102,-8251.30292788779,-8167.863865836128,-8201.212668563447,-8274.749907821406,-8259.997756480903,-8151.435333661478,-8170.814296104229,-8230.560509033265,-8284.562323637287,-8194.305979526756,-8178.078613052204,-8219.67520948353,-8338.36297254121,-8259.617776825164,-8211.896802413083,-8241.825788238739,-8334.227899816979,-8237.757770747874,-8225.017276408349,-8276.269826444368,-8403.1830314616,-8361.072344907803,-8288.295064961323,-8304.656541902606,-8369.52130431191,-8352.735144225973,-8310.982085583459,-8302.913105835094,-8368.18019964459,-8373.566970058318,-8278.840277056728,-8334.384362028166,-8405.529964629408,-8444.131427303724,-8326.293030535344,-8286.775146338361,-8314.69247516304,-8424.99833404998,-8328.058818347314,-8271.419497897567,-8287.199829483012,-8365.60974903223,-8299.605047655708,-8302.39901571262,-8334.719638194996,-8361.742897241462,-8290.530239406853,-8241.781084749828,-8261.942358248516,-8353.293937837356,-8384.005234718947,-8306.914068092594,-8279.264960201379,-8330.897489893137,-8404.725301829018,-8288.138602750136,-8263.305814660289,-8302.086091290246,-8371.354147357244,-8294.77707085336,-8317.2629257754,-8344.84497843325,-8416.459967668054,-8354.456228549032,-8333.22207131649,-8367.46494382202,-8393.95176100156,-8337.804178929828,-8321.755626410917,-8350.052934891335,-8419.589211891796,-8412.99544727748,-8357.965452428514,-8379.914865483626,-8427.814653851348,-8446.81363663836,-8350.164693613613,-8358.993632673459,-8462.281043801433,-8514.53942233794,-8398.913848270637,-8432.217947509045,-8473.881599173737,-8491.114794148778,-8390.978978989004,-8404.65824659565,-8443.013840080957,-8465.991433381014,-8427.591136406796,-8392.633008078696,-8428.552261418374,-8492.590009282829,-8424.730113116517,-8391.358958644743,-8430.04982829688,-8521.580221841363,-8469.768878193961,-8396.119880213724,-8419.678618869617,-8497.35093085181,-8492.880581960748,-8380.116031183725,-8424.685409627606,-8498.49086981903,-8558.281786236976,-8469.835933427326,-8443.170302292145,-8506.984532712047,-8609.221411850622,-8517.3110386504,-8509.577335068863,-8522.764864297493,-8611.210717107144,-8512.594820570328,-8447.215968038556,-8510.538460080441,-8615.569307275928,-8558.1700275147,-8491.718291249072,-8502.91651522118,-8611.121310129323,-8615.636362509294,-8521.49081486354,-8527.525785866474,-8558.84057984836,-8520.820262529882,-8390.71075805554,-8361.497028052454,-8387.760327787439,-8379.221961405512,-8252.621680810653,-8309.21629777149,-8442.343287747299,-8546.837693075859,-8444.62316568174,-8553.990251301557,-8675.583741138427,-8708.194936298722,-8639.440970354197,-8581.639359192772,-8549.944585555148,-8610.763682218038,-8560.226388004588,-8487.002073169002,-8534.655992347716,-8641.296165143987,-8659.602243852883,-8570.396431731753,-8558.84057984836,-8623.32536260192,-8677.438935928218,-8573.659786422228,-8613.222374108122,-8670.219322469155,-8707.144404309322,-8628.354505104364,-8645.05125821248,-8656.85297928488,-8701.288247262031,-8644.559519834462,-8632.042542939489,-8726.612773729894,-8786.157820958832,-8721.337762038442,-8667.76063057907,-8696.43791871523,-8788.683568082282,-8753.658384520815,-8677.707156861683,-8696.773194882058,-8763.694317781248,-8772.858533007924,-8679.607055140383,-8710.519517722072,-8776.278349909586,-8882.113859905465,-8772.120925440899,-8755.088896165955,-8789.801155305047,-8828.849652868468,-8721.181299827254,-8759.02280319009,-8834.169368048832,-8909.830023030047,-8780.122849955898,-8750.68560250826,-8772.031518463078,-8849.569719978539,-8849.927347889823,-8793.466841395717,-8806.609667135437,-8883.387909339417,-8890.56281930957,-8816.399731206862,-8806.341446201974,-8871.273263844641,-8872.793182467602,-8800.999379277157,-8857.683403215815,-8908.913601507378,-8920.04477024612,-8849.100333344977,-8896.642493801415,-8935.534529153649,-9003.528535786692,-8901.626932814948,-8886.315987863063,-8929.186633728343,-9044.454579884361,-8994.9231141714,-8988.441108279361,-9035.290364657685,-9133.816854216679,-9096.221220042851,-9031.02118146672,-9097.584676454626,-9185.851715308632,-9199.083948026175,-9160.080153951663,-9211.19859352095,-9309.45686214648,-9292.64835031609,-9201.743805616356,-9248.347192805672,-9354.003888845908,-9375.483915267458,-9251.11880911813,-9285.518143834846,-9343.90090035211,-9423.651924568645,-9357.580167958757,-9349.220615532473,-9375.908598412108,-9464.980300066507,-9413.39247386366,-9363.190455817039,-9413.973619219496,-9545.737152783531,-9532.5496235549,-9463.326270976815,-9492.83057365782,-9580.717632856087,-9591.066490538895,-9526.93933569662,-9540.59625155881,-9626.42695026719,-9681.34518639388,-9576.761374087499,-9627.09750260085,-9722.897079336295,-9772.070917137971,-9666.324814119913,-9663.10616291835,-9688.140116708293,-9778.418812563279,-9737.626878932344,-9732.530681196533,-9785.191391133236,-9867.28934851758,-9817.154385704325,-9788.79002199054,-9845.921080818305,-9955.958718771783,-9948.470884379254,-9863.511903704632,-9877.124116077914,-10002.718568172284,-10029.585365007564,-9931.01417195966,-9953.142398970414,-10008.753539175217,-10089.130412236502,-10004.439652495343,-10010.362864776,-10070.287891660679,-10151.178854844435,-10096.931171051405,-10124.356761498066,-10165.573378273652,-10218.614067866096,-10169.373174831055,-10177.196285390412,-10211.617971851585,-10320.582726071207,-10253.885120616571,-10206.454718882409,-10277.041527872268,-10359.966499801458,-10350.95874678597,-10303.37188284062,-10333.390275644097,-10416.561116762296,-10454.424971869585,-10378.786668632827,-10386.945055359014,-10445.283108387364,-10510.974885341511,-10421.724369731472,-10446.73597177696,-10509.0302835739,-10591.642331080715,-10516.361655755241,-10529.325667539319,-10555.588967274305,-10656.39533476774,-10583.305130398885,-10560.66281326566,-10625.259354741496,-10732.301858937963,-10703.26694289052,-10660.999794125533,-10684.178553125686,-10785.096679341397,-10770.948025101188,-10707.804347014946,-10729.88787053679,-10765.628309920825,-10823.0052379376,-10759.593338917892,-10791.533981744526,-10858.320994176984,-10876.381203696872,-10804.721510973157,-10856.309337176006,-10910.668779691314,-10959.93202447081,-10897.39184348486,-10913.686265192779,-10942.050628906563,-11044.600432467512,-10985.569475361048,-10992.207943464273,-11008.837641339022,-11071.981319425264,-11068.04741240113,-11012.346865218506,-11030.116502060475,-11126.720741596311,-11143.216329004328,-11066.460438544804,-11082.978377697274,-11107.34177915356,-11112.72854956729,-10997.08062375553,-10951.661879022346,-10940.195434116773,-10976.964053745754,-10890.619264914903,-10918.06720710602,-11046.835606913044,-11127.34659044106,-11106.559468097625,-11249.498873889313,-11283.115897550095,-11342.862110479131,-11290.42491798698,-11235.819606282665,-11246.369629665569,-11341.76687500082,-11336.871842965109,-11286.513362707301,-11308.172203084494,-11430.50330048839,-11477.061984188795,-11378.40138416307,-11400.954294318473,-11460.678155503054,-11489.824830272775,-11365.906759012552,-11399.367320462146,-11477.866646989185,-11529.700342381042,-11433.297268545302,-11443.623774483654,-11487.142620938137,-11565.552540487355,-11523.441853933557,-11488.662539561099,-11500.151336211125,-11591.368805333233,-11551.716810669519,-11505.985141513962,-11501.581847856265,-11583.031604651405,-11565.932520143095,-11511.126042738682,-11589.714776243542,-11708.514298023498,-11654.244262486012,-11503.124118223683,-11550.308650768835,-11638.709800089575,-11684.866152389784,-11614.636971311209,-11637.3463436778,-11647.203462982592,-11726.708618010118,-11626.036360983415,-11632.943050020105,-11674.427887729154,-11721.053626662926,-11664.838989357828,-11662.715573634574,-11680.194637798624,-11745.014696719016,-11699.864172919295,-11660.390992211223,-11726.663914521208,-11813.656903941262,-11796.356653732855,-11677.132448808248,-11712.828184703372,-11765.310080684434,-11743.51712984051,-11667.856474859294,-11694.812678672395,-11772.3285284434,-11830.040732627003,-11723.020580174993,-11714.571620770887,-11781.246874481069,-11868.441029601221,-11761.063249237926,-11780.464563425132,-11821.927049389727,-11906.908381808804,-11858.315689362966,-11839.696686231695,-11917.279591236067,-12011.022807481624,-11965.13467611488,-11879.527494851052,-11930.333009997967,-12027.138415233901,-12009.2346679252,-11935.630373433874,-11966.699298226751,-12015.202583694767,-12061.805970884083,-11990.392147349376,-11977.785763476582,-12016.923668017826,-12083.598921728006,-11970.074411639502,-11986.234722880688,-12039.387171195409,-12115.360750598998,-12057.246215015199,-12020.343484919487,-12023.986819265703,-12141.132311955967,-12110.599829030018,-12088.96334039728,-12103.894305693426,-12144.239204435255,-12126.380160615465,-12035.319153704544,-12052.038258557113,-12137.198404931833,-12139.21006193281,-12063.638813929418,-12088.695119463817,-12153.515178384207,-12185.902856099947,-12083.241293816722,-12123.653247791917,-12185.120545044012,-12201.482021985295,-12081.810782171582,-12085.409413028887,-12161.874730810492,-12258.791894768703,-12142.607527090016,-12141.914623011902,-12157.717306341805,-12241.066961415645,-12209.238077311287,-12186.260484011233,-12283.445868902907,-12629.942611449076,-12388.141439931565,-12199.380958006497,-12214.982475636301,-12260.28946164721,-12232.014504911245,-12161.874730810492,-12208.27695229971,-12250.253528386776,-12288.117383494066,-12186.685167155883,-12205.818260409626,-12252.913385976957,-12312.681950650449,-12211.361493034541,-12204.27599004221,-12235.814301468648,-12336.799482917724,-12243.749170750281,-12222.984400151301,-12275.823924043647,-12377.479657826383,-12305.216468002376,-12197.257542283243,-12220.771577450227,-12323.701360666915,-12292.923008551958,-12232.126263633521,-12258.90365349098,-12330.1610148145,-12343.505006254318,-12233.75794097876,-12223.789062951691,-12308.904505837501,-12410.40377740905,-12295.068776019667,-12289.77141258376,-12325.735369412349,-12383.939311973967,-12281.076583990643,-12291.358386440086,-12306.401110458508,-12377.591416548661,-12312.838412861636,-12269.699546062893,-12275.175723454444,-12353.764456959303,-12326.383570001552,-12269.364269896063,-12306.982255814346,-12383.06759394021,-12348.15416910102,-12252.153426665476,-12272.739383308815,-12342.029791120267,-12390.086041699176,-12290.598427128605,-12262.61404307056,-12307.362235470086,-12383.335814873673,-12284.474049147851,-12321.846165877125,-12347.483616767362,-12410.962571020435,-12318.96279084239,-12253.583938310616,-12275.153371709988,-12339.057009107712,-12291.827773073646,-12272.42645888644,-12260.557682580673,-12347.0142301338,-12321.555593199206,-12238.18358638091,-12237.624792769528,-12308.993912815324,-12353.675049981483,-12269.52073210725,-12291.492496906818,-12322.449662977418,-12356.178445360476,-12279.444906645407,-12264.826865771636,-12297.639226632027,-12379.759535760824,-12265.206845427376,-12235.546080535183,-12281.903598535491,-12350.143474357543,-12253.80745575517,-12233.42266481193,-12155.415076662908,-11960.84314117946,-12103.089642893034,-12111.002160430213,-12164.31107095612,-12212.680245957405,-12117.506518066708,-11989.855705482449,-11983.820734479516,-12000.405728865353,-12026.132586733413,-11960.1725888458,-12015.917839517337,-12135.92435549788,-12350.545805757738,-12234.47319680133,-12178.727946129793,-12229.891089187991,-12312.793709372725,-12180.627844408495,-12130.001143217223,-12191.803716636148,-12288.475011405351,-12181.03017580869,-12147.033172492167,-12194.59768469306,-12242.028086427223,-12171.284815226176,-12134.717361297293,-12150.855320794026,-12239.94937419288,-12201.280856285199,-12097.479355034751,-12154.45395165133,-12184.785268877182,-12192.407213736442,-12124.569669314584,-12121.082797179557,-12160.935957543368,-12238.049475914178,-12149.827140549081,-12134.40443687492,-12145.915585269402,-12216.144766347978,-12169.943710558857,-12124.502614081219,-12122.468605335785,-12166.658004123927,-12082.011947871679,-12049.959546322769,-12055.659241158872,-12140.282945666666,-12111.87387846397,-12035.676781615828,-12068.019755842657,-12135.343210142042,-12135.186747930855,-12051.613575412463,-12037.509624661163,-12098.239314346232,-12134.15856768591,-12027.540746634097,-12036.61555488295,-12094.216000344277,-12164.579291889584,-11986.815868236527,-11938.044361835047,-11967.123981371402,-12021.930458775814,-11950.740152685661,-11926.466158207199,-11920.207669759711,-11975.79645822006,-11892.670320590774,-11821.323552289434,-11845.999878168092,-11927.002600074125,-11891.150401967812,-11821.636476711808,-11836.388628052311,-11878.566369839475,-11879.147515195313,-11810.125328317325,-11804.537392203498,-11809.633589939307,-11902.326274195466,-11813.478089985621,-11800.514078201542,-11816.987313865104,-11893.832611302449,-11802.123403802325,-11767.56760687442,-11838.377933308833,-11978.053984410046,-11849.531453792031,-11748.210996176123,-11767.18762721868,-11863.456590587688,-11818.395473765788,-11802.52573520252,-11852.034849171025,-11886.456535632198,-11836.366276307856,-11751.85433052234,-11818.127252832324,-11872.285529647534,-11870.028003457548,-11730.351952356334,-11793.339168231389,-11797.831868866906,-11848.726790991639,-11768.126400485802,-11740.499644339043,-12065.762229652672,-12136.594907831539,-11853.957099194182,-11801.743424146583,-11794.993197321082,-11841.663639743763,-11758.246929436556,-11697.047853117927,-11724.406388331223,-11801.139927046292,-11720.830109218372,-11674.69610866262,-11717.097367894337,-11796.75898513305,-11771.099182498358,-11675.79134414093,-11685.849629145818,-11714.705731237618,-11746.355801386333,-11676.59600694132,-11671.231588272047,-11713.878716692772,-11753.687173567674,-11687.391899513234,-11681.669852932675,-11668.59408242632,-11737.973897215594,-11654.870111330762,-11683.860323889296,-11698.053681618416,-11768.573435374909,-11685.335539023345,-11636.362866921767,-11623.756483048974,-11700.154745597214,-11674.986681340539,-11620.269610913947,-11637.815730311362,-11663.78845736843,-11649.438637428122,-11562.088020096782,-11563.071496852815,-11595.213305379548,-11618.235602168514,-11526.168766757104,-11529.923859825596,-11580.930540672605,-11644.521253647954,-11509.449661904533,-11533.075455793794,-11540.362124486224,-11603.662264783654,-11536.09294129526,-11492.685853563054,-11532.76253137142,-11599.080157170316,-11505.42634790258,-11436.35945753568,-11460.968728180973,-11532.181386015582,-11512.847127061741,-11446.261280329381,-11432.425550511545,-11511.595429372243,-11522.704246366531,-11424.781253907831,-11427.083483586728,-11449.099951875205,-11186.355195803071,-11050.791865681633,-11311.18968858596,-11381.888256298096,-11451.625698998654,-11361.838741521686,-11363.291604911281,-11370.466514881435,-11459.627623513654,-11405.178774020527,-11333.675543508,-11339.397590088558,-11449.748152464408,-11402.071881541238,-11339.017610432818,-11343.711476768432,-11420.556774205777,-11379.049584752272,-11259.288937960737,-11277.304443991714,-11341.744523256366,-11359.96119498744,-11245.095580231617,-11250.057667500696,-11306.674636205988,-11363.895102011575,-11238.926498761952,-11234.232632426338,-11266.106220019607,-11319.169261356505,-11217.31236187367,-11207.634056524523,-11233.539728348223,-11325.986543415374,-11221.201565408894,-11187.070451625641,-11173.458239252359,-11246.883719788042,-11247.531920377245,-11164.83046589261,-11145.719724383322,-11210.74094900381,-11213.624324038545,-11110.24750593275,-11144.624488905012,-11199.050986653685,-11209.623361781045,-11124.038532261675,-11135.907308567443,-11163.623471692023,-11177.839181165598,-11069.656738001911,-11089.326273122582,-11096.791755770655,-11144.400971460458,-11043.415790011382,-11010.603429150991,-10970.772620531634,-11010.581077406536,-10878.281101975574,-10803.425109794749,-10807.247258096608,-10924.169233342318,-10950.097256910474,-10896.989512084665,-10991.492687641703,-11131.772235843211,-11110.806299544132,-10984.183667204818,-10988.899885284887,-11043.371086522471,-11069.835551957554,-10938.563756771537,-10947.079771409008,-11000.61219937947,-11057.832665185055,-10936.038009648086,-10931.21003284574,-10970.16912343134,-11045.025115612163,-10936.529748026103,-10862.970157023688,-10890.641616659357,-11032.508138717192,-10897.056567318032,-10859.81856105549,-10896.721291151202,-11007.384777949426,-10956.042820935587,-10860.779686067068,-10890.641616659357,-10923.565736242026,-10907.472480234204,-10804.118013872865,-10816.031493667542,-10875.218912985196,-10882.460878188716,-10802.866316183367,-10812.052883154498,-10821.082987914442,-10864.266558202096,-10744.46120792165,-10750.27266148003,-10793.70210095669,-10867.686375103758,-10754.340678970895,-10688.268922361009,-10703.378701612795,-10811.203516865196,-10759.213359262152,-10696.002625942545,-10717.683818064192,-10766.924711099233,-10717.750873297558,-10659.971613880589,-10661.089201103354,-10715.336884896384,-10733.218280460631,-10623.337104718341,-10616.989209293033,-10655.881244645268,-10671.72863146408,-10542.155568856666,-10587.32844440084,-10603.399348664207,-10644.973593351078,-10548.99520265999,-10492.937027566079,-10535.517100753439,-10598.19139220612,-10505.252838760953,-10482.476411160995,-10481.336472193774,-10545.307164824864,-10491.998254298956,-10440.92451821858,-10459.83409402777,-10532.454911763061,-10490.590094398272,-10440.298669373831,-10452.25685265742,-10509.767891140926,-10531.31497279584,-10446.803027010326,-10478.475448903495,-10542.177920601122,-10542.401438045674,-10495.842754345269,-10484.35395769524,-10516.808690644348,-10556.527740541427,-10487.237332729976,-10488.64549263066,-10511.466623719529,-10580.33234838633,-10507.957399840046,-10464.63971908566,-10482.476411160995,-10542.960231657056,-10618.553831404904,-10851.414305140293,-10641.799645638424,-10612.42945342415,-10560.573406287838,-10459.051782971834,-10466.36080340872,-10518.440367989584,-10533.773664685925,-10416.62817199566,-10409.587372492239,-10434.598974537728,-10478.229579714487,-10380.418345978063,-10368.95190107249,-10402.77009043337,-10461.845751028748,-10357.284290466821,-10338.66528733555,-10353.350383442687,-10421.746721475927,-10327.847043019181,-10320.1356911821,-10394.052910095801,-10432.699076259027,-10370.248302250899,-10280.997786640857,-10262.781114909783,-10339.33583966921,-10335.156063456066,-10272.83939991467,-10308.490432320885,-10346.197825216988,-10364.056869036778,-10271.766516180816,-10278.650853473051,-10268.570216723707,-10343.403857160076,-10262.065859087214,-10260.255367786332,-10276.41567902752,-10327.288249407799,-10252.767533393804,-10235.2661174853,-10245.994954823847,-10315.352417868664,-10290.162001867533,-10254.667431672506,-10214.568402119685,-10269.50898999083,-10262.334080020677,-10214.680160841961,-10186.963997717381,-10241.390495466054,-10266.357394022632,-10159.605462504085,-10185.801707005705,-10191.210829163889,-10223.01736152379,-10142.036991362214,-10172.591826032618,-10161.840636949615,-10213.294352685733,-10131.062284834657,-10150.843578677604,-10184.550009316208,-10201.939666502436,-10113.85144160407,-10111.750377625272,-10090.315054692634,-10184.438250593932,-10114.81256661565,-10073.70770856234,-10111.258639247257,-10164.142866628512,-10150.016564132759,-10058.530874077187,-10052.719420518806,-10094.025444272214,-10082.290778433178,-10007.188917063346,-10015.168489833892,-10022.879841670972,-10051.043039684659,-9587.333749214858,-9686.642549829789,-9879.605159712453,-10004.014969350692,-9938.412599374366,-9949.141436712915,-9955.243462949213,-10035.173301121391,-9974.331852714045,-9938.390247629912,-9972.499009668709,-10034.145120876447,-10014.74380668924,-9939.619593574953,-9956.696326338808,-10044.292812859156,-10022.388103292955,-9918.787767742608,-9935.328058639534,-9969.16859974487,-9972.811934091083,-9854.213578011224,-9912.05989266156,-9923.10165442248,-9921.4923288217,-9743.438332490723,-9675.578436324411,-9649.158674378237,-9713.084663520416,-9633.534805003977,-9631.299630558447,-9718.314971722957,-9827.927926531784,-9822.22823169568,-9887.562380738544,-9888.590560983486,-9903.186250112802,-9882.041499858082,-9802.491641341645,-9799.921190729285,-9851.687830887775,-9873.19020905378,-9793.84151623744,-9787.828896978963,-9799.65296979582,-9839.617888881909,-9750.188559316226,-9758.525759998056,-9791.695748769731,-9847.66451688582,-9722.539451425011,-9749.6521174493,-9726.74157938261,-9772.003861904604,-9688.944779508683,-9656.355936092847,-9687.626026585822,-9769.813390947986,-9688.162468452749,-9659.395773338769,-9662.904997218251,-9714.649285632288,-9679.44528811518,-9639.078037628895,-9683.647416072776,-9714.82809958793,-9702.802861070975,-9613.306476271926,-9623.253002554537,-9650.14215113427,-9680.339357893392,-9571.061679251396,-9583.08691776835,-9630.182043335682,-9661.519189062023,-9569.832333306353,-9527.74399849701,-9556.488341866534,-9619.877889141786,-9544.485455094034,-9514.757634968477,-9540.708010281089,-9626.896336900752,-9550.27455690796,-9487.577913710824,-9511.874259933742,-9588.831316093363,-9538.517539324468,-9451.256328970949,-9502.330065051327,-9514.154137868183,-9485.722718921032,-9385.050461894329,-9428.323439159803,-9466.120239033728,-9469.361241979748,-9316.408254672082,-9325.03602803183,-9355.143827813128,-9390.548991030335,-9336.077789792751,-9323.806682086788,-9352.32750801176,-9415.426482609091,-9340.27991775035,-9286.009882212864,-9337.150673526607,-9435.833625296787,-9404.854107481731,-9326.690057121523,-9344.549100941313,-9427.786997292877,-9433.91137527363,-9397.366273089203,-9427.33996240377,-9462.365145965237,-9467.282529745404,-9362.944586628031,-9396.315741099805,-9403.602409792235,-9453.044468527374,-9394.95228468803,-9396.472203310992,-9403.691816770055,-9686.575494596422,-9786.17486788927,-9506.085158119817,-9453.759724349944,-9512.991847156507,-9414.599468064245,-9337.262432248883,-9356.395525502627,-9421.841433267766,-9367.303176796815,-9308.071053990252,-9337.463597948981,-9414.890040742164,-9405.010569692919,-9283.104155433673,-9287.306283391272,-9314.351894182193,-9357.04372609183,-9250.425905040014,-9275.057527429763,-9361.491723238436,-9377.741441457443,-9247.40841953855,-9287.753318280378,-9292.693053805,-9351.813417889289,-9270.587178538703,-9242.602794480657,-9271.92828320602,-9310.663856347068,-9256.55028302077,-9215.646590667557,-9242.915718903032,-9303.824222543744,-9275.45985882996,-9211.980904576887,-9169.490238367349,-9238.82534966771,-9267.703803503968,-9173.468848880393,-9193.875991568088,-9276.063355930251,-9290.904914248576,-9169.959625000909,-9169.736107556357,-9235.517291488326,-9304.628885344135,-9168.842037778144,-9152.52526432577,-9162.494142352836,-9216.004218578842,-9143.204586887907,-9147.540825312237,-9168.819686033688,-9246.670811971524,-9140.723543253367,-9083.45837395887,-9108.447624259905,-9187.796317076245,-9102.166784067964,-9057.239777712795,-9112.113310350574,-9172.19479944644,-9153.531092826259,-9041.526501360715,-9039.201919937363,-9100.08807183362,-9175.8157820482,-9057.195074223886,-9057.195074223886,-9084.17362978144,-9133.973316427866,-9041.21357693834,-9044.543986862182,-9073.869475587544,-9099.104595077586,-8640.603261065873,-8734.97232615618,-8934.931032053355,-9057.642109112992,-9037.324373403117,-9002.857983453034,-8978.338119785562,-9066.336937706106,-9065.55462665017,-8991.927980414388,-8998.901724684445,-9055.40693466746,-9067.812152840157,-8947.827988604067,-8973.376032516484,-9046.667402585435,-9056.949205034876,-8936.540357654138,-8977.354643029528,-9021.812262751135,-9026.036742453187,-8919.709494079292,