-17494 
-17541 
-17493 
-17437 
-17537 
-17597 
-17573 
-17517 
-17541 
-17576 
-17632 
-17623 
-17623 
-17640 
-17698 
-17654 
-17641 
-17692 
-17754 
-17667 
-17660 
-17727 
-17760 
-17708 
-17710 
-17797 
-17762 
-17768 
-17728 
-17663 
-17526 
-17266 
-17063 
-16979 
-16838 
-16843 
-17052 
-17313 
-17640 
-17789 
-17797 
-17840 
-17991 
-17987 
-18001 
-18052 
-18130 
-18153 
-18108 
-18056 
-18185 
-18217 
-18146 
-18156 
-18241 
-18337 
-18275 
-18255 
-18275 
-18366 
-18409 
-18366 
-18366 
-18458 
-18492 
-18473 
-18471 
-18519 
-18574 
-18544 
-18510 
-18578 
-18669 
-18664 
-18622 
-18626 
-18692 
-18688 
-18616 
-18728 
-18863 
-18791 
-18690 
-18747 
-18800 
-18802 
-18755 
-18787 
-18907 
-18894 
-18879 
-18878 
-18934 
-19019 
-19071 
-19078 
-19256 
-19310 
-19345 
-19370 
-19395 
-19478 
-19502 
-19505 
-19588 
-19617 
-19632 
-19654 
-19700 
-19780 
-19787 
-19859 
-19866 
-19900 
-19953 
-19928 
-19978 
-20084 
-20130 
-20060 
-20071 
-20187 
-20208 
-20211 
-20185 
-20268 
-20332 
-20369 
-20408 
-20397 
-20518 
-20549 
-20492 
-20511 
-20570 
-20569 
-20581 
-20658 
-20713 
-20769 
-20728 
-20816 
-20866 
-20888 
-20887 
-20900 
-21005 
-21080 
-20961 
-20964 
-21074 
-21169 
-21143 
-21108 
-21197 
-21269 
-21268 
-21253 
-21351 
-21446 
-21410 
-21396 
-21396 
-21574 
-21592 
-21524 
-21602 
-21639 
-21661 
-21671 
-21677 
-21750 
-21714 
-21761 
-21782 
-21886 
-21908 
-21918 
-21899 
-21951 
-22071 
-22038 
-22127 
-22119 
-22221 
-22265 
-22259 
-22242 
-22312 
-22389 
-22377 
-22364 
-22475 
-22480 
-22446 
-22446 
-22495 
-22598 
-22587 
-22654 
-22700 
-22647 
-22586 
-22482 
-22289 
-22156 
-21982 
-21801 
-21729 
-21868 
-22087 
-22387 
-22561 
-22781 
-22860 
-22894 
-22984 
-23021 
-23077 
-23169 
-23152 
-23247 
-23258 
-23219 
-23206 
-23287 
-23307 
-23313 
-23365 
-23400 
-23402 
-23390 
-23414 
-23419 
-23492 
-23485 
-23476 
-23517 
-23610 
-23596 
-23584 
-23646 
-23676 
-23654 
-23601 
-23622 
-23675 
-23688 
-23700 
-23665 
-23713 
-23733 
-23734 
-23726 
-23705 
-23756 
-23739 
-23710 
-23729 
-23773 
-23801 
-23712 
-23759 
-23818 
-23807 
-23775 
-23850 
-23942 
-23992 
-23975 
-23993 
-24079 
-24140 
-24204 
-24235 
-24269 
-24370 
-24384 
-24383 
-24419 
-24490 
-24511 
-24472 
-24497 
-24580 
-24593 
-24571 
-24586 
-24674 
-24684 
-24654 
-24600 
-24663 
-24660 
-24699 
-24679 
-24683 
-24726 
-24755 
-24775 
-24800 
-24827 
-24813 
-24778 
-24811 
-24850 
-24797 
-24838 
-24859 
-24929 
-24912 
-24851 
-24875 
-24962 
-24959 
-24966 
-24943 
-25010 
-24977 
-24946 
-24942 
-25027 
-25045 
-25021 
-25036 
-25040 
-25074 
-25078 
-25108 
-25131 
-25138 
-25061 
-25103 
-25075 
-25159 
-25116 
-25082 
-25040 
-25082 
-25099 
-25090 
-25099 
-25124 
-25157 
-25157 
-25136 
-25246 
-25272 
-25233 
-25216 
-25274 
-25237 
-25249 
-25235 
-25284 
-25337 
-25303 
-25301 
-25251 
-25303 
-25333 
-25323 
-25319 
-25322 
-25219 
-25047 
-24880 
-24715 
-24549 
-24283 
-24259 
-24399 
-24652 
-24921 
-25061 
-25177 
-25300 
-25294 
-25282 
-25331 
-25424 
-25383 
-25357 
-25313 
-25357 
-25413 
-25351 
-25323 
-25396 
-25402 
-25349 
-25283 
-25396 
-25389 
-25380 
-25349 
-25361 
-25437 
-25375 
-25366 
-25352 
-25401 
-25349 
-25329 
-25363 
-25344 
-25299 
-25324 
-25300 
-25324 
-25298 
-25227 
-25205 
-25254 
-25197 
-25169 
-25224 
-25204 
-25198 
-25101 
-25069 
-25039 
-25056 
-25126 
-25124 
-25088 
-25145 
-25117 
-25074 
-25132 
-25202 
-25202 
-25189 
-25239 
-25337 
-25325 
-25300 
-25327 
-25423 
-25428 
-25378 
-25415 
-25490 
-25515 
-25499 
-25481 
-25476 
-25536 
-25516 
-25413 
-25451 
-25501 
-25448 
-25447 
-25428 
-25504 
-25467 
-25477 
-25450 
-25506 
-25509 
-25455 
-25464 
-25562 
-25602 
-25501 
-25470 
-25543 
-25531 
-25517 
-25488 
-25500 
-25493 
-25476 
-25481 
-25459 
-25472 
-25471 
-25479 
-25494 
-25487 
-25506 
-25392 
-25338 
-25352 
-25336 
-25426 
-25357 
-25326 
-25365 
-25333 
-25267 
-25340 
-25376 
-25339 
-25290 
-25265 
-25394 
-25350 
-25301 
-25235 
-25277 
-25311 
-25279 
-25281 
-25314 
-25299 
-25309 
-25316 
-25316 
-25351 
-25369 
-25344 
-25430 
-25428 
-25385 
-25346 
-25416 
-25438 
-25434 
-25406 
-25453 
-25436 
-25459 
-25400 
-25381 
-25438 
-25431 
-25379 
-25292 
-25193 
-25080 
-24848 
-24537 
-24473 
-24364 
-24342 
-24514 
-24871 
-25088 
-25220 
-25282 
-25308 
-25368 
-25374 
-25369 
-25436 
-25547 
-25514 
-25509 
-25567 
-25630 
-25595 
-25526 
-25512 
-25593 
-25547 
-25473 
-25400 
-25475 
-25582 
-25496 
-25470 
-25518 
-25534 
-25484 
-25425 
-25518 
-25570 
-25470 
-25446 
-25492 
-25502 
-25429 
-25409 
-25435 
-25480 
-25445 
-25386 
-25303 
-25448 
-25487 
-25362 
-25302 
-25324 
-25340 
-25351 
-25286 
-25298 
-25309 
-25280 
-25241 
-25306 
-25400 
-25353 
-25327 
-25360 
-25440 
-25438 
-25408 
-25465 
-25494 
-25576 
-25557 
-25504 
-25589 
-25647 
-25629 
-25553 
-25631 
-25664 
-25610 
-25601 
-25598 
-25638 
-25611 
-25570 
-25556 
-25685 
-25661 
-25607 
-25573 
-25655 
-25609 
-25561 
-25636 
-25688 
-25617 
-25527 
-25575 
-25695 
-25660 
-25646 
-25583 
-25586 
-25578 
-25591 
-25576 
-25605 
-25641 
-25612 
-25564 
-25536 
-25613 
-25584 
-25602 
-25594 
-25628 
-25620 
-25520 
-25572 
-25670 
-25608 
-25584 
-25634 
-25695 
-25677 
-25626 
-25601 
-25630 
-25625 
-25606 
-25564 
-25571 
-25638 
-25615 
-25564 
-25651 
-25694 
-25609 
-25572 
-25643 
-25682 
-25629 
-25591 
-25592 
-25626 
-25646 
-25598 
-25540 
-25601 
-25654 
-25692 
-25613 
-25614 
-25757 
-25735 
-25627 
-25647 
-25720 
-25738 
-25644 
-25628 
-25765 
-25784 
-25634 
-25578 
-25722 
-25740 
-25539 
-25424 
-25438 
-25328 
-25092 
-24742 
-24634 
-24631 
-24608 
-24704 
-25130 
-25439 
-25529 
-25454 
-25483 
-25600 
-25641 
-25517 
-25479 
-25707 
-25734 
-25575 
-25501 
-25657 
-25706 
-25551 
-25480 
-25613 
-25687 
-25597 
-25486 
-25555 
-25642 
-25545 
-25452 
-25503 
-25626 
-25546 
-25447 
-25450 
-25584 
-25570 
-25417 
-25411 
-25525 
-25559 
-25398 
-25328 
-25439 
-25501 
-25354 
-25234 
-25327 
-25412 
-25284 
-25174 
-25282 
-25393 
-25289 
-25115 
-25179 
-25301 
-25256 
-25117 
-25094 
-25211 
-25166 
-25192 
-25287 
-25377 
-25347 
-25338 
-25385 
-25386 
-25422 
-25427 
-25468 
-25557 
-25528 
-25449 
-25413 
-25561 
-25556 
-25491 
-25489 
-25500 
-25511 
-25478 
-25445 
-25444 
-25555 
-25472 
-25416 
-25496 
-25522 
-25500 
-25448 
-25395 
-25503 
-25464 
-25388 
-25344 
-25507 
-25513 
-25428 
-25343 
-25388 
-25439 
-25384 
-25358 
-25385 
-25461 
-25429 
-25358 
-25374 
-25440 
-25443 
-25378 
-25359 
-25446 
-25425 
-25417 
-25343 
-25348 
-25388 
-25375 
-25323 
-25413 
-25403 
-25344 
-25316 
-25354 
-25409 
-25331 
-25282 
-25306 
-25362 
-25340 
-25330 
-25286 
-25338 
-25302 
-25147 
-25190 
-25296 
-25329 
-25252 
-25300 
-25356 
-25358 
-25281 
-25232 
-25307 
-25313 
-25293 
-25266 
-25292 
-25362 
-25324 
-25236 
-25237 
-25301 
-25222 
-25249 
-25271 
-25273 
-25264 
-25266 
-25131 
-24993 
-24826 
-24627 
-24480 
-24332 
-24221 
-24277 
-24419 
-24685 
-24925 
-25016 
-24989 
-25068 
-25106 
-25052 
-25058 
-25072 
-25147 
-25112 
-25038 
-25064 
-25111 
-25061 
-25014 
-25006 
-25057 
-25035 
-25000 
-25002 
-25030 
-25008 
-25045 
-24943 
-24960 
-25015 
-24970 
-24911 
-24908 
-24954 
-24923 
-24825 
-24861 
-24879 
-24816 
-24774 
-24825 
-24876 
-24779 
-24679 
-24680 
-24739 
-24700 
-24695 
-24630 
-24597 
-24540 
-24580 
-24536 
-24534 
-24592 
-24512 
-24442 
-24471 
-24513 
-24539 
-24482 
-24537 
-24631 
-24611 
-24628 
-24613 
-24731 
-24741 
-24697 
-24686 
-24755 
-24804 
-24765 
-24797 
-24852 
-24802 
-24700 
-24657 
-24738 
-24731 
-24693 
-24705 
-24689 
-24767 
-24738 
-24644 
-24648 
-24727 
-24695 
-24584 
-24593 
-24675 
-24605 
-24640 
-24600 
-24621 
-24586 
-24507 
-24486 
-24587 
-24581 
-24532 
-24474 
-24499 
-24519 
-24483 
-24429 
-24473 
-24493 
-24493 
-24403 
-24422 
-24511 
-24460 
-24381 
-24428 
-24421 
-24409 
-24349 
-24390 
-24419 
-24400 
-24295 
-24304 
-24373 
-24323 
-24259 
-24291 
-24323 
-24303 
-24239 
-24193 
-24273 
-24271 
-24231 
-24222 
-24261 
-24195 
-24141 
-24081 
-24097 
-24138 
-24154 
-24052 
-24032 
-24083 
-24147 
-24068 
-23972 
-24115 
-24186 
-24063 
-24034 
-24122 
-24173 
-24074 
-23941 
-23969 
-24111 
-24023 
-23956 
-23961 
-24034 
-24031 
-23911 
-23855 
-23993 
-23950 
-23728 
-23501 
-23440 
-23244 
-22969 
-22777 
-22835 
-23062 
-23233 
-23355 
-23588 
-23717 
-23669 
-23601 
-23683 
-23738 
-23692 
-23656 
-23684 
-23759 
-23692 
-23624 
-23670 
-23687 
-23657 
-23566 
-23585 
-23601 
-23569 
-23547 
-23488 
-23538 
-23519 
-23464 
-23439 
-23462 
-23513 
-23447 
-23384 
-23436 
-23409 
-23377 
-23348 
-23326 
-23391 
-23313 
-23227 
-23273 
-23292 
-23267 
-23151 
-23166 
-23249 
-23196 
-23109 
-23037 
-23112 
-23087 
-23016 
-22957 
-23018 
-23082 
-23022 
-22951 
-22998 
-23049 
-22987 
-22953 
-23062 
-23085 
-23059 
-23059 
-23153 
-23159 
-23170 
-23143 
-23149 
-23229 
-23239 
-23207 
-23208 
-23199 
-23200 
-23157 
-23126 
-23192 
-23207 
-23146 
-23088 
-23113 
-23155 
-23170 
-23122 
-23125 
-23168 
-23100 
-23031 
-23084 
-23221 
-23195 
-23090 
-23118 
-23154 
-23115 
-23054 
-22996 
-23108 
-23146 
-23054 
-23084 
-23146 
-23115 
-23108 
-23077 
-23084 
-23174 
-23101 
-23078 
-23094 
-23168 
-23211 
-23148 
-23140 
-23237 
-23179 
-23133 
-23082 
-23165 
-23172 
-23169 
-23162 
-23209 
-23230 
-23177 
-23144 
-23270 
-23269 
-23187 
-23125 
-23230 
-23277 
-23235 
-23191 
-23219 
-23296 
-23237 
-23179 
-23197 
-23226 
-23231 
-23242 
-23241 
-23320 
-23267 
-23215 
-23223 
-23308 
-23323 
-23298 
-23327 
-23372 
-23407 
-23431 
-23438 
-23434 
-23511 
-23521 
-23449 
-23484 
-23575 
-23552 
-23520 
-23523 
-23588 
-23578 
-23557 
-23559 
-23598 
-23563 
-23343 
-23218 
-23162 
-22917 
-22685 
-22583 
-22756 
-22954 
-23202 
-23358 
-23541 
-23723 
-23716 
-23676 
-23746 
-23854 
-23803 
-23797 
-23839 
-23906 
-23899 
-23896 
-23893 
-23964 
-23995 
-23901 
-23925 
-24051 
-24081 
-24040 
-24025 
-24005 
-24102 
-24084 
-24037 
-24055 
-24157 
-24124 
-24076 
-24097 
-24179 
-24170 
-24161 
-24144 
-24166 
-24140 
-24110 
-24193 
-24246 
-24196 
-24233 
-24210 
-24237 
-24234 
-24257 
-24168 
-24187 
-24283 
-24233 
-24198 
-24230 
-24287 
-24192 
-24240 
-24295 
-24377 
-24354 
-24426 
-24496 
-24561 
-24600 
-24552 
-24615 
-24702 
-24718 
-24674 
-24727 
-24795 
-24838 
-24798 
-24783 
-24841 
-24892 
-24916 
-24853 
-24890 
-24921 
-24876 
-24847 
-24929 
-25055 
-25036 
-25014 
-25000 
-25137 
-25067 
-25003 
-25019 
-25097 
-25144 
-25066 
-25028 
-25150 
-25205 
-25149 
-25153 
-25171 
-25192 
-25165 
-25197 
-25308 
-25351 
-25311 
-25279 
-25348 
-25414 
-25347 
-25309 
-25290 
-25377 
-25363 
-25317 
-25361 
-25404 
-25466 
-25411 
-25362 
-25502 
-25595 
-25518 
-25481 
-25542 
-25590 
-25553 
-25486 
-25557 
-25634 
-25583 
-25537 
-25544 
-25615 
-25654 
-25608 
-25500 
-25584 
-25711 
-25650 
-25635 
-25721 
-25730 
-25664 
-25624 
-25658 
-25739 
-25768 
-25705 
-25717 
-25775 
-25709 
-25720 
-25713 
-25758 
-25711 
-25691 
-25694 
-25861 
-25792 
-25719 
-25820 
-25919 
-25857 
-25873 
-25855 
-25939 
-25941 
-25899 
-25829 
-25959 
-25991 
-25901 
-25873 
-25925 
-25971 
-25941 
-25881 
-25943 
-25984 
-25853 
-25715 
-25597 
-25485 
-25227 
-25005 
-24905 
-25109 
-25357 
-25573 
-25717 
-25890 
-25984 
-25942 
-25930 
-26018 
-26073 
-26001 
-25990 
-26101 
-26133 
-26067 
-26009 
-26057 
-26077 
-26094 
-26098 
-26091 
-26118 
-26119 
-26054 
-26024 
-26151 
-26159 
-26087 
-26051 
-26075 
-26111 
-26073 
-26068 
-26156 
-26167 
-26099 
-26001 
-26072 
-26105 
-26056 
-25940 
-26032 
-26103 
-26046 
-26000 
-25941 
-26091 
-26058 
-25992 
-25966 
-25961 
-25968 
-25923 
-25901 
-26021 
-26004 
-25949 
-25881 
-25966 
-26059 
-26025 
-25990 
-26079 
-26120 
-26155 
-26152 
-26188 
-26279 
-26340 
-26287 
-26300 
-26385 
-26347 
-26323 
-26347 
-26410 
-26406 
-26325 
-26309 
-26333 
-26375 
-26447 
-26365 
-26429 
-26422 
-26503 
-26443 
-26425 
-26479 
-26461 
-26401 
-26376 
-26470 
-26493 
-26427 
-26431 
-26462 
-26468 
-26442 
-26427 
-26468 
-26467 
-26471 
-26398 
-26420 
-26503 
-26469 
-26433 
-26501 
-26536 
-26493 
-26465 
-26489 
-26521 
-26569 
-26503 
-26488 
-26567 
-26514 
-26521 
-26452 
-26525 
-26576 
-26556 
-26510 
-26549 
-26618 
-26558 
-26479 
-26571 
-26611 
-26559 
-26531 
-26618 
-26617 
-26546 
-26485 
-26580 
-26655 
-26527 
-26499 
-26582 
-26591 
-26543 
-26452 
-26459 
-26541 
-26545 
-26535 
-26546 
-26598 
-26620 
-26606 
-26550 
-26592 
-26638 
-26630 
-26581 
-26627 
-26690 
-26594 
-26589 
-26624 
-26689 
-26664 
-26610 
-26591 
-26701 
-26661 
-26565 
-26518 
-26542 
-26381 
-26202 
-26018 
-25829 
-25721 
-25614 
-25676 
-25970 
-26220 
-26329 
-26432 
-26539 
-26616 
-26557 
-26473 
-26497 
-26594 
-26576 
-26512 
-26530 
-26642 
-26652 
-26507 
-26502 
-26539 
-26579 
-26576 
-26487 
-26585 
-26556 
-26488 
-26460 
-26581 
-26590 
-26570 
-26461 
-26463 
-26497 
-26506 
-26436 
-26417 
-26468 
-26452 
-26359 
-26348 
-26385 
-26377 
-26309 
-26318 
-26428 
-26372 
-26290 
-26172 
-26192 
-26260 
-26167 
-26155 
-26120 
-26117 
-26078 
-26050 
-26061 
-26118 
-26084 
-26034 
-26103 
-26163 
-26224 
-26176 
-26198 
-26263 
-26240 
-26239 
-26304 
-26407 
-26308 
-26270 
-26262 
-26319 
-26377 
-26300 
-26285 
-26318 
-26380 
-26355 
-26264 
-26283 
-26324 
-26336 
-26290 
-26241 
-26322 
-26297 
-26214 
-26228 
-26306 
-26318 
-26221 
-26225 
-26315 
-26309 
-26216 
-26172 
-26242 
-26228 
-26248 
-26192 
-26223 
-26202 
-26179 
-26163 
-26247 
-26253 
-26191 
-26117 
-26201 
-26217 
-26236 
-26200 
-26177 
-26198 
-26132 
-26093 
-26119 
-26176 
-26165 
-26095 
-26062 
-26148 
-26183 
-26092 
-26026 
-26067 
-26113 
-26045 
-26040 
-26047 
-26114 
-26065 
-25989 
-25985 
-26102 
-26045 
-25987 
-25937 
-25984 
-25966 
-25938 
-25922 
-25991 
-25991 
-25893 
-25885 
-25918 
-25890 
-25797 
-25835 
-25903 
-25910 
-25862 
-25758 
-25791 
-25909 
-25903 
-25789 
-25817 
-25855 
-25808 
-25800 
-25800 
-25814 
-25807 
-25787 
-25720 
-25770 
-25801 
-25718 
-25725 
-25840 
-25754 
-25593 
-25458 
-25304 
-25136 
-24864 
-24581 
-24541 
-24686 
-24882 
-25107 
-25333 
-25466 
-25513 
-25528 
-25478 
-25567 
-25586 
-25544 
-25447 
-25564 
-25609 
-25553 
-25483 
-25551 
-25535 
-25531 
-25495 
-25479 
-25513 
-25508 
-25465 
-25528 
-25459 
-25447 
-25426 
-25421 
-25438 
-25397 
-25284 
-25336 
-25371 
-25335 
-25249 
-25202 
-25305 
-25311 
-25259 
-25221 
-25249 
-25269 
-25162 
-25132 
-25136 
-25130 
-25083 
-25033 
-25029 
-25061 
-25005 
-24955 
-24964 
-25021 
-24955 
-24889 
-24924 
-24984 
-24977 
-25011 
-25017 
-25051 
-25035 
-25074 
-25092 
-25200 
-25213 
-25132 
-25109 
-25205 
-25235 
-25201 
-25142 
-25129 
-25265 
-25220 
-25129 
-25120 
-25204 
-25256 
-25149 
-25108 
-25184 
-25124 
-25103 
-25105 
-25171 
-25184 
-25119 
-25042 
-25130 
-25207 
-25157 
-25111 
-25135 
-25187 
-25182 
-25112 
-25112 
-25145 
-25104 
-25038 
-25062 
-25054 
-25093 
-25076 
-25055 
-25102 
-25131 
-25100 
-25039 
-25092 
-25156 
-25121 
-25057 
-25073 
-25146 
-25084 
-25011 
-25042 
-25188 
-25139 
-25029 
-25020 
-25096 
-25107 
-25079 
-25052 
-25158 
-25114 
-25049 
-25055 
-25116 
-25121 
-25074 
-25043 
-25104 
-25129 
-25098 
-25044 
-25091 
-25041 
-24979 
-24975 
-25022 
-25089 
-25052 
-25045 
-25101 
-25152 
-25111 
-25042 
-25087 
-25165 
-25156 
-25129 
-25143 
-25207 
-25179 
-25155 
-25143 
-25210 
-25202 
-25157 
-25121 
-25161 
-25177 
-25219 
-25097 
-25141 
-25073 
-24895 
-24736 
-24525 
-24359 
-24205 
-24182 
-24389 
-24670 
-24858 
-24940 
-25001 
-25113 
-25149 
-25152 
-25166 
-25220 
-25204 
-25187 
-25123 
-25161 
-25267 
-25269 
-25183 
-25212 
-25302 
-25251 
-25156 
-25171 
-25252 
-25247 
-25177 
-25172 
-25277 
-25289 
-25218 
-25159 
-25256 
-25258 
-25189 
-25170 
-25244 
-25167 
-25173 
-25147 
-25178 
-25233 
-25196 
-25137 
-25144 
-25171 
-25111 
-25089 
-25051 
-25161 
-25144 
-25028 
-24968 
-25005 
-25079 
-25001 
-24910 
-25003 
-25050 
-24977 
-24987 
-25077 
-25111 
-25132 
-25164 
-25202 
-25293 
-25258 
-25197 
-25317 
-25346 
-25362 
-25283 
-25322 
-25404 
-25374 
-25318 
-25342 
-25413 
-25384 
-25343 
-25311 
-25384 
-25435 
-25366 
-25365 
-25441 
-25408 
-25331 
-25347 
-25400 
-25466 
-25404 
-25346 
-25339 
-25413 
-25408 
-25370 
-25407 
-25452 
-25418 
-25323 
-25315 
-25425 
-25429 
-25403 
-25364 
-25411 
-25447 
-25416 
-25380 
-25451 
-25438 
-25391 
-25362 
-25390 
-25470 
-25434 
-25326 
-25357 
-25519 
-25425 
-25384 
-25413 
-25453 
-25429 
-25393 
-25386 
-25463 
-25458 
-25413 
-25424 
-25441 
-25388 
-25391 
-25385 
-25426 
-25495 
-25427 
-25351 
-25391 
-25400 
-25376 
-25342 
-25334 
-25412 
-25354 
-25313 
-25303 
-25367 
-25392 
-25385 
-25394 
-25476 
-25461 
-25417 
-25421 
-25551 
-25528 
-25482 
-25433 
-25497 
-25545 
-25404 
-25356 
-25528 
-25524 
-25430 
-25409 
-25459 
-25535 
-25515 
-25466 
-25351 
-25233 
-25100 
-24856 
-24651 
-24500 
-24351 
-24355 
-24454 
-24802 
-25117 
-25234 
-25308 
-25283 
-25298 
-25305 
-25328 
-25463 
-25441 
-25433 
-25405 
-25416 
-25426 
-25430 
-25359 
-25312 
-25417 
-25411 
-25315 
-25299 
-25370 
-25453 
-25350 
-25299 
-25344 
-25360 
-25305 
-25283 
-25308 
-25326 
-25254 
-25258 
-25276 
-25293 
-25281 
-25294 
-25257 
-25300 
-25238 
-25191 
-25157 
-25175 
-25125 
-25106 
-25092 
-25118 
-25116 
-25104 
-25068 
-25088 
-25058 
-25006 
-25025 
-25051 
-25076 
-25000 
-24972 
-25068 
-25163 
-25126 
-25077 
-25025 
-25093 
-25185 
-25196 
-25217 
-25234 
-25246 
-25251 
-25165 
-25216 
-25237 
-25154 
-25141 
-25214 
-25242 
-25224 
-25189 
-25185 
-25155 
-25163 
-25114 
-25124 
-25201 
-25160 
-25108 
-25135 
-25138 
-25151 
-25052 
-25046 
-25101 
-25116 
-25018 
-25046 
-25177 
-25147 
-25021 
-25098 
-25089 
-25105 
-25092 
-24987 
-25034 
-25106 
-25024 
-24967 
-24984 
-25035 
-25044 
-24946 
-24973 
-25035 
-25040 
-24906 
-24911 
-24986 
-24973 
-24910 
-24818 
-24951 
-24975 
-24855 
-24865 
-24951 
-24925 
-24871 
-24798 
-24806 
-24854 
-24869 
-24850 
-24828 
-24836 
-24818 
-24697 
-24770 
-24872 
-24768 
-24671 
-24702 
-24782 
-24749 
-24690 
-24694 
-24747 
-24871 
-24806 
-24755 
-24819 
-24747 
-24776 
-24747 
-24760 
-24819 
-24759 
-24678 
-24717 
-24781 
-24720 
-24687 
-24638 
-24636 
-24553 
-24313 
-24121 
-24029 
-23876 
-23553 
-23425 
-23524 
-23789 
-24069 
-24159 
-24343 
-24439 
-24351 
-24343 
-24410 
-24471 
-24483 
-24366 
-24386 
-24520 
-24455 
-24406 
-24375 
-24401 
-24349 
-24310 
-24317 
-24336 
-24397 
-24343 
-24244 
-24347 
-24369 
-24271 
-24205 
-24260 
-24313 
-24258 
-24154 
-24133 
-24236 
-24217 
-24087 
-24135 
-24157 
-24105 
-24058 
-24020 
-24076 
-24078 
-23997 
-23892 
-23973 
-23962 
-23881 
-23840 
-23893 
-23919 
-23812 
-23735 
-23792 
-23847 
-23783 
-23713 
-23817 
-23934 
-23913 
-23808 
-23830 
-23976 
-23993 
-23886 
-23900 
-24018 
-24066 
-24010 
-23963 
-24094 
-24085 
-24023 
-23966 
-24071 
-24059 
-24041 
-24058 
-24090 
-24133 
-24051 
-23989 
-24029 
-24163 
-24129 
-24037 
-24015 
-24097 
-24116 
-24040 
-24058 
-24064 
-24082 
-24070 
-24057 
-24139 
-24088 
-24095 
-24084 
-24139 
-24181 
-24146 
-24068 
-24128 
-24240 
-24150 
-24082 
-24102 
-24188 
-24216 
-24145 
-24145 
-24196 
-24217 
-24193 
-24186 
-24314 
-24282 
-24167 
-24141 
-24307 
-24359 
-24279 
-24233 
-24352 
-24378 
-24373 
-24315 
-24351 
-24426 
-24454 
-24335 
-24338 
-24466 
-24439 
-24353 
-24423 
-24527 
-24494 
-24361 
-24385 
-24555 
-24578 
-24464 
-24504 
-24602 
-24630 
-24598 
-24577 
-24695 
-24744 
-24716 
-24603 
-24680 
-24794 
-24840 
-24751 
-24761 
-24833 
-24898 
-24835 
-24859 
-24957 
-24911 
-24738 
-24602 
-24604 
-24387 
-24071 
-23915 
-24004 
-24163 
-24287 
-24489 
-24806 
-24992 
-24988 
-24983 
-25087 
-25199 
-25209 
-25143 
-25163 
-25256 
-25199 
-25238 
-25289 
-25328 
-25296 
-25335 
-25279 
-25389 
-25486 
-25438 
-25384 
-25499 
-25550 
-25468 
-25449 
-25521 
-25559 
-25536 
-25459 
-25516 
-25564 
-25527 
-25475 
-25540 
-25607 
-25535 
-25560 
-25516 
-25646 
-25647 
-25572 
-25499 
-25649 
-25656 
-25525 
-25482 
-25561 
-25654 
-25559 
-25500 
-25592 
-25660 
-25618 
-25574 
-25676 
-25788 
-25744 
-25702 
-25786 
-25926 
-25980 
-25921 
-25931 
-26069 
-26097 
-26061 
-26058 
-26209 
-26232 
-26235 
-26218 
-26221 
-26231 
-26329 
-26285 
-26270 
-26392 
-26352 
-26272 
-26286 
-26403 
-26430 
-26340 
-26351 
-26439 
-26450 
-26383 
-26292 
-26536 
-26506 
-26479 
-26409 
-26499 
-26618 
-26522 
-26411 
-26506 
-26601 
-26562 
-26546 
-26561 
-26609 
-26625 
-26526 
-26499 
-26692 
-26744 
-26592 
-26601 
-26694 
-26734 
-26605 
-26576 
-26712 
-26748 
-26676 
-26678 
-26770 
-26816 
-26751 
-26682 
-26732 
-26872 
-26800 
-26715 
-26752 
-26830 
-26806 
-26718 
-26704 
-26827 
-26833 
-26690 
-26704 
-26924 
-26878 
-26766 
-26836 
-26930 
-26971 
-26835 
-26835 
-27050 
-27025 
-26962 
-26902 
-26972 
-27011 
-26956 
-26899 
-28438 
-53222 
-92618 
-116198 
-130935 
-140048 
-145672 
-149149 
-151590 
-153306 
-154458 
-155227 
-155973 
-156803 
-157623 
-158347 
-158798 
-159290 
-159635 
-159901 
-160164 
-160531 
-160938 
-161097 
-161299 
-161668 
-162003 
-162065 
-162178 
-162161 
-162084 
-162124 
-162019 
-162104 
-162370 
-162598 
-162496 
-162338 
-162436 
-162394 
-162293 
-162360 
-162468 
-162314 
-162133 
-162193 
-162197 
-162138 
-162167 
-162296 
-162395 
-162473 
-162473 
-162200 
-162188 
-162386 
-162140 
-161969 
-162146 
-162462 
-162389 
-162216 
-162189 
-162127 
-162036 
-161942 
-162047 
-162028 
-161883 
-161874 
-161996 
-161858 
-161807 
-161637 
-161440 
-161592 
-161850 
-161771 
-161512 
-161465 
-161655 
-161626 
-161394 
-161410 
-161540 
-161376 
-161311 
-161230 
-161173 
-161366 
-161344 
-161115 
-161085 
-161112 
-161006 
-160834 
-160848 
-160873 
-160871 
-161105 
-160935 
-160757 
-160612 
-160621 
-160740 
-160749 
-160606 
-160661 
-160746 
-160620 
-160549 
-160550 
-160290 
-160196 
-160213 
-160171 
-160198 
-160283 
-160496 
-160167 
-159796 
-159730 
-159735 
-159662 
-159702 
-159746 
-159863 
-160095 
-159819 
-159637 
-159682 
-159649 
-159660 
-159878 
-160152 
-160014 
-159845 
-159796 
-160078 
-160261 
-159932 
-159643 
-159710 
-159934 
-159791 
-159634 
-159563 
-159337 
-159174 
-159053 
-158867 
-158799 
-158764 
-158793 
-158967 
-159069 
-158757 
-158503 
-158398 
-158432 
-158619 
-158671 
-158512 
-158578 
-158521 
-158571 
-158569 
-158365 
-158210 
-158062 
-158083 
-158093 
-157947 
-157796 
-157827 
-158046 
-157875 
-157390 
-156989 
-156711 
-156682 
-156683 
-156974 
-157095 
-157140 
-157197 
-157140 
-157226 
-157621 
-157520 
-157047 
-156781 
-156722 
-156731 
-156566 
-156497 
-156682 
-156829 
-156943 
-157186 
-157520 
-157337 
-156972 
-156590 
-156381 
-156571 
-156536 
-156375 
-156534 
-156739 
-156390 
-156000 
-155693 
-155677 
-155635 
-155794 
-155929 
-155675 
-155592 
-155347 
-155178 
-155201 
-155359 
-155707 
-156005 
-155807 
-155599 
-155402 
-155215 
-155209 
-155556 
-155494 
-155149 
-154903 
-154833 
-154830 
-154767 
-154790 
-155179 
-155261 
-154875 
-154547 
-154489 
-154527 
-154501 
-154659 
-154930 
-154867 
-154662 
-154533 
-154500 
-154749 
-154761 
-154415 
-154211 
-154210 
-154086 
-153972 
-154000 
-154099 
-154379 
-154835 
-154740 
-154442 
-154195 
-153820 
-153529 
-153486 
-153523 
-153505 
-153606 
-153911 
-154183 
-154526 
-154618 
-154467 
-154366 
-154297 
-154233 
-154199 
-154296 
-154388 
-154540 
-154354 
-154133 
-153945 
-153709 
-153524 
-153624 
-153730 
-153673 
-153569 
-153636 
-153646 
-153628 
-153960 
-154133 
-153788 
-153268 
-152839 
-152629 
-152601 
-152446 
-152289 
-152261 
-152472 
-152658 
-152695 
-152761 
-153096 
-153509 
-153354 
-153159 
-153236 
-153621 
-153370 
-152954 
-152749 
-152589 
-152445 
-152259 
-152204 
-152315 
-152325 
-152308 
-152365 
-152657 
-152992 
-152925 
-152704 
-152590 
-152470 
-152220 
-152075 
-152230 
-152293 
-152204 
-152170 
-152420 
-152864 
-152699 
-152315 
-152120 
-151990 
-151760 
-151606 
-151578 
-151669 
-151736 
-151430 
-150959 
-150620 
-150405 
-150375 
-150456 
-150730 
-150895 
-150947 
-151252 
-151645 
-151441 
-151127 
-150879 
-150942 
-150974 
-150809 
-150676 
-150635 
-150722 
-150618 
-150477 
-150546 
-150697 
-150759 
-150989 
-151335 
-151244 
-151039 
-150860 
-150696 
-150706 
-150760 
-150674 
-150665 
-151001 
-151005 
-150733 
-150458 
-150394 
-150439 
-150259 
-150146 
-150215 
-150401 
-150373 
-150339 
-150554 
-150902 
-150644 
-150406 
-150241 
-150133 
-150055 
-149982 
-149927 
-150130 
-150408 
-150245 
-149827 
-149608 
-149563 
-149361 
-149226 
-149339 
-149383 
-149341 
-149175 
-149233 
-149581 
-149396 
-149093 
-149012 
-148973 
-148894 
-148817 
-148746 
-148786 
-149011 
-149955 
-150351 
-150096 
-149434 
-148736 
-148240 
-148059 
-147922 
-147700 
-147420 
-147349 
-147406 
-147306 
-147267 
-147279 
-147369 
-147299 
-147280 
-147475 
-147739 
-147903 
-147940 
-148038 
-148160 
-148180 
-148296 
-148363 
-148684 
-148758 
-148412 
-148133 
-148029 
-148046 
-148006 
-147803 
-147859 
-148040 
-148515 
-148995 
-149106 
-149203 
-149021 
-148747 
-148384 
-148074 
-147520 
-147019 
-146749 
-146700 
-146621 
-146509 
-146387 
-146464 
-146542 
-146439 
-146375 
-146451 
-146628 
-146935 
-147066 
-146868 
-146721 
-146510 
-146355 
-146300 
-146300 
-146267 
-146130 
-146114 
-146268 
-146331 
-146264 
-146567 
-147243 
-147377 
-146852 
-146353 
-146144 
-146026 
-145787 
-145605 
-145635 
-145623 
-145498 
-145447 
-145570 
-145708 
-145777 
-145790 
-145771 
-145848 
-145933 
-145599 
-145271 
-145163 
-145193 
-145400 
-145600 
-145915 
-146244 
-146004 
-145571 
-145373 
-145206 
-144985 
-144825 
-144704 
-144586 
-144406 
-144290 
-144250 
-144284 
-144098 
-143913 
-143857 
-144193 
-144985 
-145300 
-145147 
-144594 
-143944 
-143346 
-142890 
-142722 
-142554 
-142334 
-142055 
-141972 
-141866 
-141645 
-141485 
-141498 
-141472 
-141312 
-141223 
-141166 
-141186 
-141093 
-140880 
-140710 
-140717 
-140658 
-140553 
-140822 
-141734 
-141769 
-141245 
-140977 
-140855 
-140807 
-140672 
-140492 
-140462 
-140460 
-140384 
-140204 
-140225 
-140254 
-140177 
-140089 
-140049 
-140103 
-140055 
-139990 
-140033 
-140282 
-140641 
-141400 
-141671 
-141690 
-141442 
-140876 
-140376 
-140208 
-140018 
-139775 
-139622 
-139526 
-139467 
-139345 
-139141 
-139181 
-139311 
-139286 
-139229 
-139351 
-139552 
-139522 
-139601 
-140294 
-140999 
-140966 
-140468 
-140064 
-139918 
-139737 
-139529 
-139406 
-139454 
-139537 
-139435 
-139295 
-139337 
-139362 
-139363 
-139421 
-139568 
-139509 
-139382 
-139300 
-139350 
-139435 
-139514 
-139906 
-140142 
-140021 
-139654 
-139260 
-138967 
-138925 
-138834 
-138612 
-138450 
-138588 
-138608 
-138255 
-137909 
-137768 
-137672 
-137495 
-137350 
-137430 
-137694 
-137909 
-138058 
-138199 
-138595 
-138858 
-138507 
-138108 
-137967 
-137884 
-137810 
-137830 
-137994 
-138144 
-137944 
-137882 
-138002 
-138064 
-137983 
-137906 
-137937 
-137940 
-137791 
-138276 
-139010 
-139154 
-138846 
-138176 
-137268 
-136579 
-135938 
-135222 
-134813 
-134609 
-134435 
-134423 
-134563 
-134744 
-134778 
-134807 
-134630 
-134705 
-134728 
-134590 
-134446 
-134467 
-134530 
-134433 
-134299 
-134514 
-135266 
-135333 
-134801 
-134419 
-134285 
-134080 
-133805 
-133641 
-133583 
-133545 
-133385 
-133295 
-133331 
-133303 
-133168 
-133068 
-133174 
-133161 
-133062 
-133002 
-133416 
-134764 
-135690 
-135971 
-136109 
-136099 
-135840 
-135596 
-135315 
-134969 
-134388 
-133548 
-132896 
-132652 
-132335 
-131909 
-131513 
-131392 
-131428 
-131490 
-131389 
-131279 
-130993 
-130627 
-130296 
-130203 
-130221 
-130030 
-130014 
-130892 
-131698 
-131594 
-131044 
-130686 
-130525 
-130355 
-130147 
-130104 
-130130 
-130094 
-130049 
-130001 
-130116 
-130113 
-130022 
-129943 
-130073 
-130129 
-130127 
-130104 
-130168 
-130241 
-130253 
-130302 
-130488 
-130804 
-130926 
-130716 
-130568 
-130601 
-130552 
-130391 
-130382 
-130561 
-131048 
-131333 
-131076 
-130937 
-130741 
-130626 
-130569 
-130691 
-130887 
-130799 
-130574 
-130447 
-130437 
-130454 
-130829 
-131196 
-131068 
-130647 
-130268 
-130127 
-130081 
-129964 
-129785 
-129632 
-129647 
-129643 
-129620 
-129602 
-129761 
-129943 
-129872 
-129898 
-130231 
-130308 
-130015 
-129754 
-129676 
-129682 
-129581 
-129412 
-129332 
-129419 
-129303 
-129429 
-130134 
-130682 
-130719 
-130435 
-130031 
-129614 
-129077 
-128523 
-128187 
-128065 
-128008 
-127834 
-127662 
-127710 
-127682 
-127555 
-127462 
-127583 
-127675 
-127640 
-127785 
-128187 
-128456 
-128246 
-127765 
-127455 
-127321 
-127109 
-126873 
-126712 
-126768 
-126615 
-126345 
-126222 
-126363 
-126728 
-127116 
-127033 
-126836 
-126766 
-126646 
-126441 
-126408 
-126414 
-126323 
-126251 
-126265 
-126590 
-127065 
-126883 
-126537 
-126399 
-126214 
-126030 
-125923 
-125927 
-125908 
-125748 
-125641 
-125682 
-125722 
-125630 
-125525 
-125619 
-125697 
-125725 
-125659 
-125676 
-125708 
-125639 
-125630 
-126070 
-126338 
-126113 
-125726 
-125516 
-125409 
-125282 
-125111 
-125013 
-125067 
-124927 
-124814 
-124719 
-124707 
-124704 
-124591 
-124642 
-125066 
-125170 
-124950 
-124633 
-124495 
-124445 
-124364 
-124218 
-124119 
-124187 
-124198 
-124176 
-124143 
-124217 
-124236 
-124163 
-124103 
-124163 
-124168 
-124097 
-124005 
-124065 
-124177 
-124550 
-125083 
-125267 
-125402 
-125320 
-125064 
-124900 
-124670 
-124392 
-123993 
-123644 
-123494 
-123403 
-123247 
-123104 
-123137 
-123187 
-123143 
-122990 
-123026 
-123110 
-123020 
-122916 
-123055 
-123122 
-123093 
-123037 
-123247 
-123534 
-123746 
-123688 
-123562 
-123424 
-123263 
-123187 
-123060 
-123070 
-123021 
-122850 
-122800 
-122776 
-122735 
-122683 
-122521 
-122664 
-122706 
-122588 
-122503 
-122634 
-122985 
-123321 
-123237 
-123062 
-122917 
-122627 
-122424 
-122417 
-122471 
-122351 
-122268 
-122211 
-122325 
-122376 
-122471 
-122744 
-122925 
-122824 
-122459 
-122191 
-122158 
-122086 
-121924 
-121784 
-121837 
-121789 
-121720 
-121617 
-121599 
-121763 
-122057 
-122030 
-121961 
-121832 
-121541 
-121310 
-121157 
-121281 
-121200 
-121036 
-120970 
-121023 
-121053 
-120929 
-121000 
-121470 
-121745 
-121650 
-121436 
-121293 
-121257 
-120923 
-120551 
-120445 
-120391 
-120274 
-120159 
-120148 
-120203 
-120095 
-119857 
-119595 
-119586 
-119520 
-119255 
-118906 
-118859 
-119005 
-119045 
-119107 
-119286 
-119407 
-119281 
-119126 
-119212 
-119301 
-119209 
-119151 
-119183 
-119233 
-119431 
-119531 
-119494 
-119466 
-119240 
-118943 
-118655 
-118574 
-118453 
-118236 
-118132 
-118197 
-118207 
-118084 
-117914 
-117992 
-117946 
-117850 
-117682 
-117752 
-117914 
-113484 
-113594 
-113674 
-113542 
-113250 
-112887 
-112740 
-112647 
-112382 
-112228 
-112213 
-112259 
-112148 
-111989 
-111956 
-111905 
-111731 
-111589 
-111521 
-111597 
-111567 
-111411 
-111435 
-111511 
-111349 
-111039 
-110759 
-110620 
-110466 
-110243 
-110015 
-109979 
-109844 
-109693 
-109421 
-109335 
-109252 
-109014 
-108766 
-108698 
-108635 
-108436 
-108196 
-108042 
-108261 
-108245 
-107991 
-107819 
-107667 
-107477 
-107164 
-106842 
-106688 
-106457 
-106188 
-105879 
-105680 
-105450 
-105131 
-104718 
-104488 
-104365 
-104050 
-103729 
-103565 
-103515 
-103268 
-103002 
-102776 
-102724 
-102469 
-102278 
-102103 
-102062 
-101904 
-101665 
-101539 
-101533 
-101455 
-101237 
-101078 
-101080 
-101113 
-101067 
-100915 
-101040 
-100976 
-100584 
-100081 
-99726 
-99558 
-99352 
-99284 
-99466 
-99670 
-99854 
-99844 
-99755 
-99814 
-99908 
-99792 
-99713 
-99724 
-99716 
-99630 
-99515 
-99625 
-99612 
-99506 
-99413 
-99446 
-99631 
-99810 
-99791 
-99814 
-99809 
-99773 
-99591 
-99529 
-96906 
-96836 
-96852 
-96876 
-96829 
-96737 
-96842 
-96861 
-96839 
-96767 
-96808 
-96821 
-96767 
-96583 
-96528 
-96617 
-96620 
-96496 
-96414 
-96508 
-96603 
-96515 
-96404 
-96439 
-96475 
-96377 
-96220 
-96313 
-96463 
-96378 
-96244 
-96262 
-96250 
-96226 
-96174 
-96185 
-96231 
-96229 
-96073 
-96008 
-96026 
-96038 
-95966 
-95903 
-95937 
-96043 
-95998 
-95940 
-95978 
-96056 
-95980 
-95881 
-95900 
-95927 
-95852 
-95817 
-95809 
-95890 
-95847 
-95765 
-95709 
-95817 
-95784 
-95687 
-95654 
-95767 
-95744 
-95664 
-95603 
-95600 
-95578 
-95523 
-95336 
-95251 
-95196 
-94882 
-94599 
-94435 
-94417 
-94418 
-94527 
-94876 
-95119 
-95287 
-95280 
-95268 
-95386 
-95420 
-95312 
-95241 
-95389 
-95396 
-95264 
-95177 
-95285 
-95346 
-95191 
-95147 
-95195 
-95241 
-95201 
-95091 
-95058 
-95186 
-95086 
-95029 
-95011 
-95037 
-95085 
-94941 
-94924 
-95005 
-95008 
-94924 
-94798 
-94888 
-94842 
-94753 
-94728 
-93709 
-93876 
-93800 
-93652 
-93696 
-93783 
-93739 
-93648 
-93602 
-93704 
-93696 
-93673 
-93674 
-93766 
-93760 
-93668 
-93746 
-93791 
-93830 
-93773 
-93717 
-93811 
-93825 
-93723 
-93624 
-93707 
-93834 
-93762 
-93651 
-93579 
-93543 
-93305 
-93033 
-92889 
-92727 
-92719 
-92718 
-93043 
-93364 
-93574 
-93584 
-93618 
-93755 
-93718 
-93599 
-93628 
-93807 
-93784 
-93672 
-93602 
-93717 
-93797 
-93799 
-93721 
-93749 
-93860 
-93790 
-93662 
-93707 
-93852 
-93754 
-93681 
-93670 
-93780 
-93824 
-93763 
-93713 
-93797 
-93829 
-93720 
-93685 
-93724 
-93809 
-93691 
-93549 
-93613 
-93693 
-93610 
-93512 
-93535 
-93604 
-93534 
-93442 
-93434 
-93490 
-93545 
-93429 
-93399 
-93463 
-93482 
-93392 
-93422 
-93533 
-93548 
-93515 
-93542 
-93615 
-93701 
-93683 
-93623 
-93784 
-93885 
-93866 
-93921 
-93903 
-93979 
-93981 
-93879 
-93947 
-94069 
-94028 
-93906 
-93873 
-94067 
-94119 
-93972 
-93935 
-94042 
-94042 
-94010 
-93986 
-94131 
-94127 
-94048 
-94005 
-94067 
-94153 
-94068 
-94097 
-94125 
-94197 
-94175 
-94080 
-94095 
-94179 
-94125 
-94077 
-94111 
-94162 
-94176 
-94088 
-94084 
-94177 
-94220 
-94153 
-94110 
-94216 
-94299 
-94240 
-94164 
-94194 
-94301 
-94253 
-94092 
-94204 
-94277 
-94287 
-94194 
-94165 
-94280 
-94324 
-94268 
-94227 
-94342 
-94314 
-94238 
-94201 
-94237 
-94253 
-94292 
-94215 
-94334 
-94391 
-94318 
-94272 
-94373 
-94375 
-94349 
-94284 
-94363 
-94468 
-94480 
-94418 
-94393 
-94489 
-94527 
-94446 
-94481 
-94555 
-94565 
-94462 
-94445 
-94542 
-94583 
-94513 
-94535 
-94552 
-94595 
-94559 
-94495 
-94513 
-94660 
-94636 
-94525 
-94507 
-94698 
-94690 
-94599 
-94524 
-94651 
-94655 
-94682 
-94629 
-94677 
-94748 
-94733 
-94697 
-94765 
-94807 
-94762 
-94733 
-94838 
-94892 
-94786 
-94796 
-94861 
-94997 
-94902 
-94888 
-94924 
-95004 
-95009 
-94860 
-94766 
-94714 
-94578 
-94340 
-94119 
-94086 
-94135 
-94278 
-94508 
-94749 
-94952 
-94986 
-94951 
-95113 
-95178 
-95137 
-95087 
-95120 
-95237 
-95203 
-95152 
-95155 
-95250 
-95297 
-95226 
-95184 
-95363 
-95366 
-95251 
-95217 
-95289 
-95373 
-95256 
-95170 
-95298 
-95360 
-95330 
-95293 
-95360 
-95427 
-95318 
-95300 
-95367 
-95407 
-95311 
-95265 
-95355 
-95347 
-95455 
-95316 
-95261 
-95327 
-95357 
-95240 
-95186 
-95274 
-95320 
-95191 
-95086 
-95237 
-95236 
-95158 
-95118 
-95119 
-95165 
-95232 
-95156 
-95206 
-95316 
-95304 
-95308 
-95357 
-95510 
-95474 
-95409 
-95574 
-95688 
-95699 
-95598 
-95520 
-95638 
-95700 
-95626 
-95604 
-95644 
-95754 
-95690 
-95572 
-95679 
-95736 
-95710 
-95625 
-95657 
-95771 
-95756 
-95672 
-95689 
-95744 
-95751 
-95641 
-95698 
-95817 
-95817 
-95693 
-95681 
-95767 
-95792 
-95705 
-95620 
-95709 
-95684 
-95700 
-95600 
-95666 
-95713 
-95647 
-95586 
-95693 
-95750 
-95727 
-95647 
-95632 
-95773 
-95778 
-95676 
-95630 
-95756 
-95722 
-95667 
-95676 
-95721 
-95736 
-95641 
-95633 
-95731 
-95746 
-95771 
-95691 
-95663 
-95736 
-95723 
-95607 
-95661 
-95738 
-95681 
-95548 
-95501 
-95542 
-95548 
-95488 
-95552 
-95579 
-95668 
-95550 
-95472 
-95588 
-95660 
-95544 
-95500 
-95542 
-95635 
-95535 
-95376 
-95490 
-95562 
-95487 
-95424 
-95442 
-95521 
-95590 
-95433 
-95409 
-95592 
-95544 
-95514 
-95488 
-95577 
-95543 
-95442 
-95376 
-95491 
-95581 
-95525 
-95419 
-95523 
-95592 
-95459 
-95309 
-95242 
-95221 
-95075 
-94781 
-94577 
-94508 
-94545 
-94689 
-94902 
-95157 
-95333 
-95331 
-95314 
-95437 
-95544 
-95461 
-95381 
-95496 
-95510 
-95420 
-95382 
-95476 
-95492 
-95457 
-95503 
-95498 
-95541 
-95499 
-95388 
-95421 
-95532 
-95462 
-95330 
-95376 
-95495 
-95461 
-95326 
-95310 
-95419 
-95473 
-95416 
-95331 
-95362 
-95441 
-95392 
-95313 
-95338 
-95434 
-95335 
-95251 
-95325 
-95329 
-95305 
-95234 
-95229 
-95299 
-95292 
-95164 
-95155 
-95225 
-95180 
-95154 
-95137 
-95292 
-95406 
-95276 
-95212 
-95398 
-95459 
-95430 
-95372 
-95465 
-95599 
-95567 
-95604 
-95599 
-95691 
-95714 
-95637 
-95618 
-95722 
-95727 
-95719 
-95705 
-95773 
-95753 
-95677 
-95664 
-95724 
-95822 
-95757 
-95687 
-95727 
-95830 
-95755 
-95649 
-95723 
-95813 
-95773 
-95703 
-95724 
-95861 
-95767 
-95653 
-95721 
-95774 
-95768 
-95697 
-95700 
-95822 
-95744 
-95715 
-95738 
-95781 
-95843 
-95803 
-95778 
-95831 
-95894 
-95805 
-95722 
-95873 
-95866 
-95823 
-95739 
-95784 
-95856 
-95848 
-95814 
-95782 
-95835 
-95850 
-95869 
-95830 
-95857 
-95825 
-95842 
-95760 
-95896 
-95891 
-95784 
-95802 
-95887 
-95934 
-95864 
-95833 
-95878 
-95980 
-95960 
-95845 
-95907 
-95987 
-95957 
-95880 
-95844 
-95944 
-95960 
-95913 
-95839 
-95981 
-96024 
-95881 
-95911 
-95982 
-95962 
-95931 
-95919 
-95919 
-95960 
-95937 
-95862 
-95959 
-96028 
-95984 
-95897 
-95964 
-96070 
-96040 
-95969 
-95960 
-96032 
-96033 
-95914 
-96051 
-96129 
-96082 
-96053 
-95994 
-96088 
-96127 
-96021 
-95954 
-95970 
-95959 
-95816 
-95579 
-95423 
-95268 
-95047 
-94926 
-95056 
-95404 
-95644 
-95707 
-95889 
-96029 
-96059 
-95937 
-95955 
-96090 
-96058 
-95979 
-95994 
-96086 
-96093 
-96097 
-96006 
-95999 
-96114 
-96102 
-95989 
-96016 
-96124 
-96078 
-95930 
-96014 
-96134 
-96039 
-95923 
-95998 
-96091 
-96124 
-96024 
-96008 
-96063 
-96063 
-96002 
-96001 
-96057 
-96063 
-95981 
-95885 
-95892 
-95979 
-95950 
-95821 
-95845 
-95925 
-95918 
-95883 
-95855 
-95875 
-95812 
-95804 
-95841 
-95922 
-95893 
-95853 
-95896 
-95934 
-95937 
-95968 
-95955 
-96000 
-96177 
-96245 
-96167 
-96174 
-96237 
-96163 
-96079 
-96187 
-96241 
-96220 
-96228 
-96236 
-96354 
-96360 
-96268 
-96260 
-96309 
-96296 
-96190 
-96207 
-96327 
-96331 
-96232 
-96283 
-96335 
-96348 
-96275 
-96153 
-96254 
-96348 
-96370 
-96340 
-96340 
-96376 
-96321 
-96245 
-96302 
-96343 
-96374 
-96291 
-96272 
-96239 
-96322 
-96304 
-96250 
-96357 
-96448 
-96372 
-96300 
-96404 
-96429 
-96378 
-96326 
-96369 
-96399 
-96281 
-96311 
-96373 
-96372 
-96340 
-96302 
-96262 
-96449 
-96411 
-96384 
-96407 
-96492 
-96553 
-96435 
-96303 
-96420 
-96469 
-96396 
-96392 
-96392 
-96444 
-96450 
-96371 
-96339 
-96502 
-96483 
-96483 
-96460 
-96506 
-96461 
-96451 
-96464 
-96553 
-96503 
-96466 
-96456 
-96521 
-96509 
-96434 
-96441 
-96490 
-96490 
-96440 
-96425 
-96463 
-96510 
-96446 
-96395 
-96464 
-96588 
-96537 
-96447 
-96496 
-96616 
-96649 
-96560 
-96552 
-96557 
-96566 
-96503 
-96497 
-96602 
-96645 
-96593 
-96521 
-96594 
-96603 
-96434 
-96223 
-96093 
-96015 
-95744 
-95534 
-95613 
-95846 
-96013 
-96187 
-96393 
-96565 
-96514 
-96525 
-96512 
-96612 
-96632 
-96591 
-96578 
-96679 
-96704 
-96661 
-96541 
-96610 
-96648 
-96600 
-96567 
-96619 
-96694 
-96620 
-96600 
-96621 
-96662 
-96610 
-96496 
-96528 
-96639 
-96603 
-96526 
-96549 
-96617 
-96609 
-96569 
-96560 
-96600 
-96593 
-96529 
-96480 
-96542 
-96539 
-96565 
-96491 
-96437 
-96551 
-96463 
-96443 
-96469 
-96458 
-96400 
-96336 
-96306 
-96411 
-96407 
-96373 
-96348 
-96401 
-96450 
-96434 
-96480 
-96571 
-96607 
-96607 
-96572 
-96694 
-96744 
-96726 
-96740 
-96805 
-96830 
-96740 
-96740 
-96777 
-96887 
-96831 
-96675 
-96711 
-96819 
-96872 
-96768 
-96728 
-96801 
-96870 
-96761 
-96723 
-96824 
-96799 
-96775 
-96715 
-96803 
-96821 
-96712 
-96633 
-96712 
-96830 
-96773 
-96688 
-96676 
-96760 
-96699 
-96656 
-96656 
-96790 
-96760 
-96658 
-96632 
-96736 
-96800 
-96724 
-96663 
-96718 
-96688 
-96633 
-96653 
-96668 
-96698 
-96613 
-96654 
-96678 
-96705 
-96665 
-96584 
-96683 
-96692 
-96586 
-96545 
-96545 
-96649 
-96575 
-96517 
-96526 
-96645 
-96597 
-96522 
-96483 
-96552 
-96534 
-96484 
-96457 
-96470 
-96443 
-96459 
-96404 
-96434 
-96449 
-96483 
-96415 
-96408 
-96507 
-96443 
-96433 
-96424 
-96481 
-96437 
-96406 
-96330 
-96393 
-96366 
-96306 
-96236 
-96330 
-96364 
-96258 
-96172 
-96146 
-96054 
-95950 
-95697 
-95536 
-95399 
-95119 
-94905 
-94947 
-95169 
-95278 
-95309 
-95363 
-95375 
-95340 
-95205 
-95200 
-95261 
-95219 
-95125 
-95032 
-95100 
-95110 
-95028 
-94975 
-94960 
-95004 
-94907 
-94823 
-94871 
-94944 
-94902 
-94756 
-94755 
-94807 
-94759 
-94647 
-94557 
-94595 
-94667 
-94599 
-94550 
-94616 
-94643 
-94566 
-94460 
-94507 
-94465 
-94420 
-94350 
-94354 
-94415 
-94370 
-94255 
-94241 
-94301 
-94228 
-94021 
-94108 
-94171 
-94179 
-94054 
-94064 
-94045 
-93974 
-93939 
-93920 
-93983 
-94083 
-93972 
-93945 
-94058 
-94121 
-94078 
-94080 
-94176 
-94278 
-94204 
-94180 
-94220 
-94247 
-94250 
-94109 
-94085 
-94134 
-94152 
-94052 
-94038 
-94169 
-94142 
-94038 
-93982 
-94088 
-94065 
-93985 
-93916 
-94001 
-93968 
-93932 
-93903 
-93859 
-93925 
-93860 
-93826 
-93855 
-93880 
-93822 
-93693 
-93746 
-93784 
-93725 
-93667 
-93664 
-93736 
-93688 
-93646 
-93632 
-93692 
-93642 
-93580 
-93565 
-93628 
-93652 
-93542 
-93445 
-93556 
-93560 
-93458 
-93406 
-93445 
-93493 
-93478 
-93376 
-93352 
-93367 
-93340 
-93321 
-93279 
-93280 
-93252 
-93187 
-93114 
-93188 
-93161 
-93097 
-93044 
-93062 
-93053 
-93015 
-92966 
-92951 
-92949 
-92959 
-92881 
-92791 
-92908 
-92878 
-92749 
-92707 
-92787 
-92716 
-92683 
-92618 
-92710 
-92714 
-92683 
-92590 
-92633 
-92667 
-92626 
-92639 
-92677 
-92677 
-92638 
-92634 
-92632 
-92609 
-92591 
-92486 
-92545 
-92556 
-92530 
-92481 
-92521 
-92557 
-92479 
-92293 
-92169 
-92076 
-91895 
-91643 
-91396 
-91434 
-91557 
-91747 
-91955 
-92130 
-92240 
-92249 
-92168 
-92234 
-92269 
-92243 
-92245 
-92263 
-92356 
-92304 
-92204 
-92135 
-92223 
-92243 
-92146 
-92100 
-92140 
-92204 
-92209 
-92158 
-92159 
-92194 
-92109 
-92021 
-92067 
-92140 
-92129 
-92057 
-92107 
-92193 
-92230 
-92164 
-92268 
-92435 
-92456 
-92486 
-92741 
-93010 
-93184 
-93429 
-93553 
-93784 
-93900 
-93974 
-94103 
-94374 
-94572 
-94673 
-94866 
-95063 
-95353 
-95722 
-96005 
-96320 
-96595 
-96669 
-96838 
-96988 
-97185 
-97286 
-97300 
-97437 
-97568 
-97588 
-97598 
-97660 
-97771 
-97828 
-97857 
-97905 
-97991 
-98091 
-98160 
-98115 
-98147 
-98286 
-98309 
-98368 
-98497 
-98707 
-98802 
-98871 
-99033 
-99191 
-99243 
-99268 
-99353 
-99506 
-99632 
-99790 
-100096 
-100335 
-100549 
-100740 
-100874 
-101050 
-101150 
-101237 
-101284 
-101379 
-101505 
-101530 
-101540 
-101684 
-101861 
-101896 
-101940 
-102176 
-102396 
-102434 
-102602 
-102752 
-102954 
-103071 
-103156 
-103239 
-103344 
-103439 
-103360 
-103467 
-103614 
-103691 
-103668 
-103691 
-103815 
-103923 
-103897 
-103954 
-104079 
-104132 
-104206 
-104306 
-104440 
-104478 
-104516 
-104609 
-104666 
-104824 
-104878 
-104880 
-104953 
-105093 
-105160 
-105163 
-105271 
-105323 
-105479 
-105563 
-105657 
-105771 
-105875 
-105898 
-105887 
-105958 
-106101 
-106141 
-106159 
-106186 
-106356 
-106464 
-106477 
-106574 
-106744 
-106881 
-106956 
-107030 
-107231 
-107247 
-107249 
-107249 
-107411 
-107503 
-107543 
-107623 
-107761 
-107818 
-107667 
-107653 
-107741 
-107919 
-107805 
-107675 
-107629 
-107590 
-107402 
-107264 
-107351 
-107576 
-107864 
-108052 
-108261 
-108548 
-108635 
-108665 
-108730 
-108854 
-108965 
-108988 
-109017 
-109145 
-109286 
-109326 
-109326 
-109389 
-109519 
-109463 
-109522 
-109603 
-109723 
-109724 
-109751 
-109788 
-109990 
-110008 
-110001 
-110033 
-110119 
-110230 
-110212 
-110247 
-110239 
-110153 
-110232 
-110310 
-110422 
-110579 
-110571 
-110544 
-110540 
-110500 
-110522 
-110593 
-110714 
-110783 
-110779 
-110762 
-110760 
-110854 
-110869 
-110889 
-110837 
-110985 
-111012 
-110881 
-110798 
-110925 
-111082 
-111153 
-111231 
-111366 
-111513 
-111527 
-111504 
-111541 
-111665 
-111563 
-111443 
-111453 
-111441 
-111481 
-111530 
-111602 
-111769 
-111815 
-111720 
-111769 
-111870 
-111948 
-111893 
-111860 
-111920 
-112014 
-111963 
-111939 
-112061 
-112063 
-111936 
-112022 
-112076 
-112153 
-112081 
-112002 
-112086 
-112153 
-112098 
-112077 
-112048 
-112125 
-112159 
-112144 
-112085 
-112203 
-112259 
-112189 
-112166 
-112185 
-112173 
-112113 
-112043 
-112037 
-112125 
-112164 
-112127 
-112203 
-112264 
-112178 
-112175 
-112210 
-112285 
-112249 
-112170 
-112204 
-112290 
-112294 
-112251 
-112197 
-112179 
-112098 
-111976 
-111881 
-111902 
-112071 
-111966 
-111878 
-111984 
-112180 
-112163 
-112039 
-112055 
-112123 
-112081 
-111977 
-111942 
-112015 
-112022 
-111869 
-111808 
-111935 
-111904 
-111806 
-111733 
-111834 
-111822 
-111689 
-111611 
-111573 
-111599 
-111575 
-111459 
-111505 
-111615 
-111568 
-111426 
-111393 
-111488 
-111489 
-111372 
-111376 
-111488 
-111406 
-111307 
-111182 
-111174 
-111084 
-111000 
-110983 
-111027 
-111107 
-110992 
-111012 
-111072 
-111027 
-110759 
-110580 
-110418 
-110349 
-110173 
-109880 
-109738 
-109728 
-109797 
-109860 
-109970 
-110147 
-110200 
-110136 
-110082 
-110179 
-110173 
-110043 
-109866 
-109838 
-109819 
-109711 
-109629 
-109618 
-109666 
-109588 
-109460 
-109527 
-109601 
-109445 
-109291 
-109239 
-109246 
-109214 
-109092 
-108988 
-109007 
-108902 
-108752 
-108694 
-108692 
-108656 
-108588 
-108467 
-108419 
-108345 
-108277 
-108189 
-108078 
-107992 
-107849 
-107698 
-107632 
-107580 
-107497 
-107406 
-107393 
-107303 
-107171 
-107030 
-106889 
-106878 
-106872 
-106706 
-106592 
-106671 
-106615 
-106534 
-106443 
-106386 
-106415 
-106332 
-106251 
-106191 
-106299 
-106330 
-106177 
-106161 
-106177 
-106141 
-105906 
-105821 
-105868 
-105802 
-105596 
-105473 
-105470 
-105452 
-105293 
-105201 
-105254 
-105223 
-105145 
-105014 
-105048 
-104963 
-104874 
-104787 
-104699 
-104643 
-104501 
-104372 
-104296 
-104358 
-104262 
-104106 
-104030 
-104023 
-103936 
-103859 
-103752 
-103741 
-103588 
-103490 
-103486 
-103435 
-103409 
-103299 
-103177 
-103087 
-103088 
-103013 
-102932 
-102894 
-102848 
-102728 
-102538 
-102478 
-102470 
-102284 
-102142 
-102063 
-102088 
-102001 
-101824 
-101735 
-101783 
-101761 
-101655 
-101524 
-101463 
-101510 
-101406 
-101270 
-101244 
-101194 
-101126 
-100944 
-100884 
-100920 
-100802 
-100702 
-100759 
-100728 
-100603 
-100469 
-100361 
-100322 
-100293 
-100148 
-100045 
-100094 
-100037 
-99930 
-99787 
-99725 
-99664 
-99497 
-99450 
-99435 
-99390 
-99284 
-99159 
-99071 
-99107 
-99089 
-98927 
-98835 
-98871 
-98859 
-98750 
-98627 
-98674 
-98609 
-98408 
-98242 
-98096 
-97912 
-97655 
-97379 
-97205 
-97042 
-97057 
-97203 
-97441 
-97549 
-97638 
-97565 
-97469 
-97479 
-97363 
-97187 
-97122 
-97170 
-97124 
-96935 
-96816 
-96819 
-96755 
-96590 
-96550 
-96545 
-96540 
-96431 
-96262 
-96250 
-96220 
-96094 
-96025 
-96050 
-96040 
-95931 
-95796 
-95756 
-95769 
-95675 
-95511 
-95489 
-95518 
-95426 
-95288 
-95162 
-95146 
-95045 
-94903 
-94818 
-94865 
-94826 
-94613 
-94517 
-94448 
-94404 
-94245 
-94128 
-94085 
-94015 
-93911 
-93783 
-93779 
-93744 
-93570 
-93539 
-93583 
-93603 
-93557 
-93432 
-93378 
-93399 
-93367 
-93283 
-93232 
-93234 
-93168 
-93020 
-92976 
-92958 
-92931 
-92810 
-92736 
-92750 
-92731 
-92588 
-92528 
-92500 
-92523 
-92370 
-92254 
-92205 
-92232 
-92144 
-92037 
-91964 
-91936 
-91919 
-91874 
-91768 
-91691 
-91625 
-91553 
-91418 
-91404 
-91378 
-91233 
-91124 
-91157 
-91160 
-91044 
-90980 
-90897 
-90896 
-90865 
-90671 
-90648 
-90727 
-90617 
-90504 
-90368 
-90367 
-90323 
-90186 
-90153 
-90155 
-90058 
-89909 
-89827 
-89833 
-89793 
-89726 
-89641 
-89623 
-89591 
-89439 
-89317 
-89354 
-89344 
-89272 
-89185 
-89076 
-89106 
-89096 
-88967 
-88888 
-88940 
-88885 
-88779 
-88711 
-88674 
-88647 
-88514 
-88427 
-88427 
-88475 
-88350 
-88275 
-88198 
-88220 
-88125 
-88048 
-88079 
-88021 
-87896 
-87839 
-87753 
-87739 
-87652 
-87600 
-87532 
-87536 
-87492 
-87354 
-87275 
-87283 
-87276 
-87126 
-87119 
-87141 
-87131 
-87027 
-86947 
-86937 
-86970 
-86864 
-86756 
-86704 
-86770 
-86779 
-86613 
-86514 
-86496 
-86359 
-86122 
-85931 
-85737 
-85500 
-85147 
-84969 
-85094 
-85337 
-85449 
-85540 
-85691 
-85737 
-85620 
-85525 
-85516 
-85550 
-85525 
-85417 
-85349 
-85483 
-85384 
-85271 
-85202 
-85267 
-85211 
-85157 
-85051 
-85033 
-85017 
-84886 
-84855 
-84896 
-84843 
-84744 
-84686 
-84706 
-84706 
-84624 
-84483 
-84518 
-84517 
-84389 
-84302 
-84317 
-84358 
-84314 
-84223 
-84120 
-84131 
-84165 
-84063 
-84046 
-84026 
-83977 
-83875 
-83770 
-83828 
-83772 
-82341 
-67316 
-48158 
-38440 
-33116 
-29863 
-27836 
-26456 
-25431 
-24646 
-24145 
-23799 
-23410 
-23155 
-22981 
-22891 
-22726 
-22518 
-22445 
-22405 
-22293 
-22221 
-22130 
-22106 
-22071 
-21972 
-21832 
-21921 
-21943 
-21842 
-21792 
-21807 
-21813 
-21781 
-21670 
-21655 
-21715 
-21760 
-21695 
-21614 
-21660 
-21698 
-21634 
-21535 
-21611 
-21624 
-21607 
-21590 
-21581 
-21664 
-21584 
-21532 
-21588 
-21632 
-21571 
-21579 
-21544 
-21525 
-21600 
-21569 
-21522 
-21581 
-21664 
-21590 
-21588 
-21624 
-21646 
-21547 
-21504 
-21571 
-21675 
-21612 
-21541 
-21622 
-21725 
-21640 
-21613 
-21668 
-21724 
-21708 
-21617 
-21625 
-21683 
-21758 
-21714 
-21688 
-21749 
-21697 
-21699 
-21723 
-21776 
-21770 
-21785 
-21707 
-21801 
-21847 
-21756 
-21731 
-21828 
-21874 
-21819 
-21815 
-21895 
-21853 
-21804 
-21829 
-21834 
-21840 
-21881 
-21859 
-21882 
-21946 
-21909 
-21893 
-21940 
-21964 
-21986 
-22040 
-21989 
-22057 
-22087 
-21992 
-21993 
-22095 
-22101 
-22082 
-22090 
-22126 
-22167 
-22123 
-22131 
-22162 
-22235 
-22116 
-21969 
-21901 
-21846 
-21618 
-21393 
-21243 
-21278 
-21564 
-21791 
-21948 
-22145 
-22223 
-22188 
-22165 
-22257 
-22304 
-22301 
-22290 
-22337 
-22450 
-22431 
-22364 
-22361 
-22509 
-22487 
-22402 
-22378 
-22432 
-22495 
-22413 
-22371 
-22481 
-22493 
-22433 
-22396 
-22482 
-22558 
-22518 
-22461 
-22474 
-22553 
-22491 
-22422 
-22457 
-22601 
-22580 
-22388 
-22394 
-22585 
-22569 
-22418 
-22358 
-22481 
-22522 
-22394 
-22305 
-22405 
-22472 
-22376 
-22308 
-22387 
-22482 
-22424 
-22294 
-22435 
-22623 
-22549 
-22437 
-22532 
-22650 
-22675 
-22649 
-22676 
-22823 
-22855 
-22748 
-22691 
-22860 
-22985 
-22842 
-22762 
-22873 
-22972 
-22881 
-22753 
-22953 
-23047 
-22958 
-22835 
-22923 
-23044 
-22959 
-22858 
-22882 
-23071 
-23043 
-22893 
-22857 
-23033 
-23051 
-22970 
-22890 
-23052 
-23107 
-22976 
-22890 
-23036 
-23129 
-23021 
-22885 
-22966 
-23065 
-22986 
-22939 
-22962 
-23119 
-23065 
-22930 
-22969 
-23106 
-23141 
-23018 
-22981 
-23115 
-23185 
-23057 
-22955 
-23099 
-23150 
-23024 
-22898 
-22980 
-23115 
-23095 
-22957 
-22990 
-23125 
-23063 
-22954 
-23015 
-23148 
-23132 
-23051 
-23000 
-23147 
-23191 
-23057 
-23026 
-23077 
-23070 
-23031 
-23015 
-23085 
-23094 
-23011 
-22940 
-23025 
-23083 
-23021 
-22953 
-23062 
-23133 
-23065 
-23050 
-23111 
-23130 
-23119 
-23067 
-23023 
-23117 
-23158 
-23017 
-23000 
-23152 
-23185 
-23045 
-22962 
-23083 
-23162 
-22939 
-22754 
-22759 
-22709 
-22404 
-22188 
-22087 
-22172 
-22267 
-22426 
-22723 
-22855 
-22881 
-22897 
-22942 
-22948 
-22921 
-22901 
-22891 
-22955 
-22972 
-22865 
-22886 
-22995 
-22921 
-22840 
-22791 
-22931 
-22897 
-22856 
-22804 
-22855 
-22870 
-22805 
-22757 
-22814 
-22865 
-22755 
-22746 
-22793 
-22801 
-22759 
-22683 
-22718 
-22752 
-22695 
-22697 
-22627 
-22696 
-22688 
-22600 
-22587 
-22613 
-22595 
-22504 
-22439 
-22470 
-22529 
-22442 
-22341 
-22392 
-22377 
-22346 
-22286 
-22247 
-22349 
-22393 
-22327 
-22365 
-22477 
-22439 
-22447 
-22468 
-22580 
-22567 
-22565 
-22556 
-22569 
-22624 
-22513 
-22465 
-22538 
-22559 
-22480 
-22442 
-22483 
-22600 
-22553 
-22444 
-22496 
-22580 
-22507 
-22476 
-22414 
-22483 
-22446 
-22418 
-22415 
-22455 
-22425 
-22414 
-22312 
-22361 
-22362 
-22282 
-22320 
-22356 
-22353 
-22301 
-22203 
-22272 
-22294 
-22243 
-22167 
-22152 
-22328 
-22303 
-22203 
-22220 
-22248 
-22228 
-22114 
-22126 
-22181 
-22177 
-22133 
-22049 
-22111 
-22122 
-22053 
-22009 
-22049 
-22117 
-22038 
-21989 
-21964 
-22017 
-22086 
-21954 
-21947 
-21970 
-21902 
-21914 
-21895 
-21895 
-21936 
-21928 
-21843 
-21900 
-21904 
-21793 
-21726 
-21833 
-21877 
-21816 
-21737 
-21745 
-21810 
-21713 
-21638 
-21646 
-21720 
-21639 
-21583 
-21574 
-21647 
-21634 
-21551 
-21577 
-21669 
-21699 
-21621 
-21571 
-21583 
-21599 
-21568 
-21506 
-21542 
-21619 
-21512 
-21387 
-21489 
-21528 
-21481 
-21399 
-21365 
-21430 
-21317 
-21083 
-20879 
-20796 
-20638 
-20369 
-20303 
-20511 
-20754 
-20867 
-20977 
-21122 
-21209 
-21122 
-21069 
-21133 
-21204 
-21164 
-21058 
-21093 
-21113 
-21104 
-21061 
-21042 
-21091 
-21007 
-20974 
-20950 
-21015 
-20982 
-20965 
-20888 
-20938 
-20963 
-20900 
-20809 
-20830 
-20891 
-20836 
-20756 
-20760 
-20841 
-20772 
-20661 
-20664 
-20750 
-20652 
-20534 
-20608 
-20606 
-20560 
-20488 
-20449 
-20448 
-20436 
-20315 
-20360 
-20419 
-20328 
-20259 
-20164 
-20253 
-20321 
-20228 
-20120 
-20231 
-20253 
-20202 
-20154 
-20250 
-20367 
-20335 
-20263 
-20264 
-20377 
-20346 
-20217 
-20215 
-20373 
-20338 
-20252 
-20260 
-20363 
-20302 
-20161 
-20165 
-20262 
-20217 
-20110 
-20113 
-20182 
-20211 
-20162 
-20025 
-20071 
-20127 
-20040 
-19937 
-19925 
-20019 
-20081 
-19949 
-19909 
-19987 
-19939 
-19839 
-19830 
-19920 
-19867 
-19804 
-19768 
-19854 
-19849 
-19775 
-19716 
-19773 
-19789 
-19707 
-19629 
-19656 
-19710 
-19705 
-19631 
-19596 
-19651 
-19658 
-19525 
-19473 
-19502 
-19523 
-19480 
-19385 
-19482 
-19508 
-19465 
-19395 
-19446 
-19456 
-19385 
-19268 
-19303 
-19402 
-19354 
-19269 
-19296 
-19345 
-19307 
-19197 
-19177 
-19286 
-19268 
-19152 
-19089 
-19186 
-19209 
-19129 
-19018 
-19013 
-19034 
-18981 
-18897 
-19001 
-19048 
-18906 
-18857 
-18924 
-18942 
-18831 
-18854 
-18949 
-18974 
-18910 
-18868 
-18822 
-18877 
-18858 
-18793 
-18760 
-18816 
-18810 
-18686 
-18642 
-18718 
-18735 
-18722 
-18542 
-18488 
-18332 
-18115 
-17868 
-17733 
-17641 
-17626 
-17671 
-17892 
-18218 
-18375 
-18366 
-18358 
-18438 
-18403 
-18291 
-18348 
-18455 
-18451 
-18332 
-18243 
-18341 
-18322 
-18266 
-18177 
-18225 
-18272 
-18248 
-18137 
-18141 
-18197 
-18100 
-18025 
-18027 
-18076 
-18068 
-17969 
-17977 
-18006 
-17945 
-17853 
-17778 
-17898 
-17898 
-17794 
-17730 
-17774 
-17788 
-17735 
-17707 
-17720 
-17702 
-17586 
-17487 
-17501 
-17543 
-17483 
-17354 
-17380 
-17407 
-17375 
-17280 
-17304 
-17389 
-17404 
-17386 
-17357 
-17418 
-17437 
-17359 
-17340 
-17473 
-17453 
-17386 
-17396 
-17433 
-17484 
-17431 
-17361 
-17419 
-17458 
-17430 
-17344 
-17294 
-17365 
-17390 
-17299 
-17228 
-17331 
-17306 
-17248 
-17219 
-17167 
-17036 
-17116 
-17200 
-17075 
-16960 
-17029 
-17085 
-17064 
-17007 
-16969 
-16992 
-16936 
-16835 
-16822 
-16932 
-16909 
-16850 
-16775 
-16842 
-16844 
-16752 
-16705 
-16768 
-16827 
-16651 
-16524 
-16694 
-16779 
-16682 
-16566 
-16657 
-16697 
-16627 
-16582 
-16549 
-16641 
-16575 
-16495 
-16422 
-16531 
-16525 
-16348 
-16315 
-16490 
-16454 
-16434 
-16342 
-16378 
-16439 
-16296 
-16253 
-16351 
-16332 
-16292 
-16170 
-16165 
-16212 
-16161 
-16096 
-16076 
-16190 
-16169 
-16006 
-16052 
-16179 
-16122 
-16035 
-16020 
-16137 
-16118 
-16052 
-15981 
-15972 
-16040 
-16038 
-15879 
-15941 
-15981 
-15909 
-15822 
-15807 
-15876 
-15627 
-15352 
-15200 
-15218 
-14970 
-14810 
-14885 
-15219 
-15465 
-15489 
-15484 
-15670 
-15676 
-15562 
-15554 
-15576 
-15578 
-15577 
-15520 
-15519 
-15542 
-15506 
-15435 
-15456 
-15532 
-15464 
-15320 
-15354 
-15442 
-15440 
-15320 
-15251 
-15348 
-15346 
-15284 
-15173 
-14781 
-14702 
-14652 
-14715 
-14731 
-14670 
-14633 
-14640 
-14669 
-14585 
-14597 
-14657 
-14660 
-14561 
-14456 
-14485 
-14585 
-14525 
-14434 
-14506 
-14555 
-14499 
-14366 
-14357 
-14409 
-14428 
-14357 
-14293 
-14407 
-14385 
-14267 
-14200 
-14319 
-14387 
-14257 
-14171 
-14263 
-14330 
-14321 
-14162 
-14213 
-14268 
-14143 
-14054 
-14098 
-14206 
-14145 
-14042 
-14053 
-14101 
-14125 
-14074 
-14032 
-14159 
-14174 
-14030 
-13950 
-13981 
-14079 
-13971 
-13940 
-14024 
-14001 
-13908 
-13819 
-13838 
-13945 
-13871 
-13689 
-13780 
-13856 
-13855 
-13759 
-13716 
-13832 
-13829 
-13779 
-13767 
-13877 
-13825 
-13743 
-13740 
-13745 
-13814 
-13712 
-13620 
-13665 
-13703 
-13673 
-13571 
-13592 
-13660 
-13614 
-13481 
-13422 
-13446 
-13318 
-13016 
-12812 
-12773 
-12709 
-12707 
-12767 
-13073 
-13317 
-13332 
-13357 
-13397 
-13425 
-13298 
-13288 
-13376 
-13427 
-13358 
-13322 
-13324 
-13378 
-13360 
-13233 
-13254 
-11868 
-11968 
-11950 
-11841 
-11799 
-11809 
-11701 
-11519 
-11309 
-11176 
-10974 
-10849 
-10810 
-11065 
-11338 
-11523 
-11549 
-11626 
-11732 
-11741 
-11652 
-11611 
-11718 
-11735 
-11696 
-11646 
-11715 
-11707 
-11625 
-11541 
-11622 
-11653 
-11564 
-11524 
-11591 
-11615 
-11547 
-11447 
-11476 
-11569 
-11503 
-11415 
-11477 
-11549 
-11494 
-11433 
-11414 
-11495 
-11455 
-11378 
-11289 
-11389 
-11404 
-11328 
-11207 
-11238 
-11319 
-11247 
-11143 
-11176 
-11234 
-11166 
-11033 
-11032 
-11131 
-11123 
-11002 
-11022 
-11164 
-11161 
-10989 
-11003 
-11171 
-11136 
-11063 
-11090 
-11241 
-11281 
-11195 
-11171 
-11276 
-11307 
-11261 
-11154 
-11268 
-11313 
-11262 
-11187 
-11198 
-11284 
-11287 
-11188 
-11159 
-11252 
-11224 
-11117 
-11136 
-11220 
-11287 
-11146 
-11064 
-11158 
-11194 
-11120 
-11102 
-11145 
-11167 
-11109 
-10983 
-11071 
-11161 
-11102 
-10987 
-11045 
-11113 
-11087 
-10950 
-11034 
-11104 
-9876 
-10025 
-9963 
-9852 
-9960 
-9996 
-10020 
-9914 
-9933 
-10024 
-9942 
-9900 
-9897 
-9987 
-9977 
-9886 
-9876 
-9939 
-9864 
-9636 
-9437 
-9326 
-9254 
-9109 
-8982 
-9161 
-9456 
-9625 
-9675 
-9792 
-9895 
-9818 
-9703 
-9867 
-9907 
-9847 
-9751 
-9761 
-9922 
-9878 
-9826 
-9793 
-9846 
-9843 
-9802 
-9790 
-9883 
-9937 
-9835 
-9781 
-9878 
-9905 
-9837 
-9796 
-9774 
-9847 
-9829 
-9757 
-9785 
-9857 
-9795 
-9750 
-9732 
-9808 
-9794 
-9712 
-9620 
-9747 
-9799 
-9720 
-9617 
-9687 
-9743 
-9690 
-9579 
-9606 
-9653 
-9572 
-9555 
-9525 
-9634 
-9582 
-9574 
-9615 
-9685 
-9676 
-9658 
-9677 
-9799 
-9869 
-9805 
-9784 
-9897 
-9979 
-9942 
-9916 
-9989 
-9971 
-9955 
-9886 
-9927 
-10046 
-9964 
-9943 
-9968 
-10016 
-9999 
-9950 
-9962 
-10009 
-10008 
-9956 
-9983 
-10053 
-10048 
-9978 
-9942 
-10048 
-10217 
-10263 
-10183 
-10098 
-10230 
-10327 
-10252 
-10266 
-10320 
-10397 
-10366 
-10249 
-10320 
-10440 
-10427 
-10334 
-10348 
-10460 
-10485 
-10389 
-10337 
-10434 
-10469 
-10433 
-10425 
-10555 
-10626 
-10576 
-10480 
-10627 
-10706 
-10599 
-10509 
-10606 
-10717 
-10635 
-10593 
-10672 
-10763 
-10750 
-10680 
-10760 
-10811 
-10903 
-10806 
-10823 
-10941 
-11003 
-10943 
-10876 
-10969 
-11030 
-10996 
-10917 
-11008 
-11109 
-11020 
-10891 
-10848 
-10844 
-10642 
-10413 
-10321 
-10353 
-10331 
-10436 
-10640 
-10959 
-11148 
-11166 
-11168 
-11280 
-11295 
-11320 
-11319 
-11404 
-11398 
-11381 
-11350 
-11423 
-11498 
-11482 
-11415 
-11417 
-11494 
-11585 
-11566 
-11631 
-11721 
-11741 
-11665 
-11714 
-11807 
-11811 
-11771 
-11762 
-11888 
-11949 
-11872 
-11838 
-11928 
-11960 
-11913 
-11844 
-11927 
-12042 
-12063 
-12003 
-12020 
-12113 
-12100 
-12041 
-12131 
-12132 
-12146 
-12130 
-12147 
-12247 
-12203 
-16656 
-16646 
-16660 
-16721 
-16702 
-16664 
-16628 
-16763 
-16732 
-16671 
-16609 
-16596 
-16751 
-16718 
-16627 
-16655 
-16735 
-16729 
-16669 
-16704 
-16804 
-16807 
-16803 
-16827 
-16905 
-16975 
-16968 
-16956 
-17034 
-17077 
-17080 
-17115 
-17259 
-17297 
-17261 
-17191 
-17283 
-17381 
-17346 
-17282 
-17320 
-17503 
-17429 
-17377 
-17387 
-17479 
-17443 
-17458 
-17456 
-17537 
-17558 
-17556 
-17505 
-17554 
-17593 
-17614 
-17516 
-17583 
-17611 
-17606 
-17604 
-17648 
-17675 
-17684 
-17680 
-17729 
-17766 
-17747 
-17726 
-17727 
-17724 
-17760 
-17738 
-17827 
-17889 
-17875 
-17810 
-17822 
-17846 
-17834 
-17846 
-17917 
-17997 
-18003 
-17950 
-17948 
-17986 
-17996 
-17982 
-17943 
-18025 
-18088 
-18094 
-18049 
-18131 
-18137 
-18094 
-18098 
-18146 
-18200 
-18191 
-18190 
-18204 
-18306 
-18293 
-18271 
-18230 
-18294 
-18287 
-18320 
-18305 
-18344 
-18396 
-18340 
-18350 
-18409 
-18483 
-18414 
-19934 
-19932 
-19999 
-19966 
-19963 
-20021 
-20008 
-19946 
-19872 
-19845 
-19902 
-19889 
-19866 
-19884 
-19948 
-19882 
-19947 
-19899 
-19985 
-19970 
-20016 
-19997 
-20070 
-20028 
-20041 
-19975 
-20005 
-20040 
-19991 
-19942 
-20017 
-20039 
-20019 
-20009 
-19959 
-19888 
-19762 
-19630 
-19535 
-19330 
-19148 
-18966 
-18915 
-19152 
-19412 
-19635 
-19775 
-19910 
-19977 
-19992 
-19976 
-20012 
-20035 
-20019 
-20043 
-20091 
-20115 
-20036 
-20069 
-20174 
-20194 
-20069 
-20014 
-20032 
-20096 
-20060 
-19962 
-19952 
-20042 
-19991 
-19979 
-19995 
-19984 
-20011 
-19995 
-20013 
-20063 
-20020 
-19942 
-19873 
-19987 
-20029 
-19957 
-19916 
-19921 
-19889 
-19834 
-19865 
-19783 
-19816 
-19774 
-19731 
-19700 
-19704 
-19702 
-19698 
-19663 
-19710 
-19788 
-19712 
-19666 
-19755 
-19749 
-19711 
-19700 
-19804 
-19864 
-19894 
-19913 
-19921 
-20013 
-19989 
-20020 
-19968 
-19985 
-20032 
-19986 
-19960 
-20033 
-19698 
-19709 
-19729 
-19710 
-19623 
-19735 
-19784 
-19674 
-19611 
-19637 
-19733 
-19719 
-19650 
-19625 
-19643 
-19558 
-19536 
-19564 
-19605 
-19560 
-19565 
-19547 
-19521 
-19580 
-19568 
-19509 
-19607 
-19657 
-19587 
-19544 
-19606 
-19636 
-19609 
-19557 
-19545 
-19559 
-19532 
-19508 
-19538 
-19546 
-19489 
-19481 
-19435 
-19336 
-19237 
-19047 
-18781 
-18661 
-18456 
-18451 
-18572 
-18854 
-19052 
-19211 
-19298 
-19333 
-19431 
-19413 
-19362 
-19347 
-19361 
-19365 
-19369 
-19353 
-19388 
-19436 
-19359 
-19324 
-19426 
-19447 
-19365 
-19309 
-19372 
-19411 
-19326 
-19265 
-19303 
-19339 
-19259 
-19221 
-19300 
-19356 
-19315 
-19271 
-19239 
-19268 
-19246 
-19186 
-19224 
-19256 
-19230 
-19153 
-19195 
-19188 
-19115 
-19071 
-19025 
-19050 
-19085 
-19007 
-18975 
-18979 
-19003 
-18983 
-18896 
-18851 
-18950 
-19031 
-18995 
-19030 
-19080 
-19048 
-19042 
-19110 
-19174 
-19167 
-19195 
-19185 
-19284 
-19289 
-19221 
-19238 
-19246 
-19295 
-19259 
-19235 
-19298 
-19302 
-19261 
-19244 
-19252 
-19304 
-19244 
-19226 
-19253 
-19269 
-19240 
-19217 
-19231 
-19242 
-19328 
-19260 
-19259 
-19290 
-19296 
-19235 
-19203 
-19282 
-19287 
-19221 
-19205 
-19252 
-19217 
-19168 
-19142 
-19191 
-19260 
-19259 
-19224 
-19226 
-19258 
-19224 
-19195 
-19204 
-19276 
-19243 
-19145 
-19136 
-19262 
-19211 
-19132 
-19118 
-19139 
-19199 
-19138 
-19143 
-19152 
-19199 
-19138 
-19085 
-19146 
-19170 
-19158 
-19101 
-19101 
-19195 
-19220 
-19166 
-19137 
-19174 
-19171 
-19125 
-19057 
-19136 
-19091 
-19093 
-19032 
-19140 
-19160 
-19101 
-19045 
-19111 
-19252 
-19170 
-19105 
-19153 
-19169 
-19188 
-19126 
-19154 
-19137 
-19064 
-19104 
-19097 
-19142 
-19098 
-19075 
-19004 
-18977 
-18859 
-18651 
-18485 
-18403 
-18233 
-18196 
-18393 
-18632 
-18859 
-18961 
-18945 
-18982 
-19002 
-18971 
-19019 
-19016 
-19059 
-18984 
-18948 
-18963 
-19047 
-19017 
-18933 
-18929 
-19021 
-19018 
-18938 
-18939 
-18948 
-18948 
-18875 
-18836 
-18883 
-18901 
-18852 
-18778 
-18776 
-18859 
-18816 
-18805 
-18791 
-18758 
-18746 
-18739 
-18678 
-18724 
-18732 
-18671 
-18553 
-18641 
-18630 
-18534 
-18469 
-18517 
-18472 
-18395 
-18399 
-18389 
-18394 
-18393 
-18324 
-18313 
-18340 
-18311 
-18328 
-18357 
-18430 
-18465 
-18469 
-18506 
-18576 
-18537 
-18514 
-18556 
-18623 
-18573 
-18521 
-18539 
-18587 
-18620 
-18584 
-18557 
-18564 
-18578 
-18566 
-18503 
-18488 
-18514 
-18531 
-18490 
-18498 
-18477 
-18500 
-18397 
-18422 
-18480 
-18378 
-18389 
-18379 
-18409 
-18390 
-18282 
-18266 
-18368 
-18369 
-18302 
-18293 
-18345 
-18270 
-18189 
-18200 
-18240 
-18259 
-18205 
-18126 
-18145 
-18219 
-18173 
-18114 
-18128 
-18151 
-18120 
-18051 
-18015 
-18096 
-18150 
-18089 
-18056 
-18105 
-18152 
-18011 
-17913 
-18071 
-18079 
-18038 
-17956 
-17920 
-17982 
-17936 
-17841 
-17905 
-17981 
-17961 
-17920 
-17908 
-17925 
-17953 
-17926 
-17883 
-17981 
-17985 
-17935 
-17838 
-17934 
-17981 
-17910 
-17828 
-17941 
-17954 
-17822 
-17877 
-17911 
-17927 
-17890 
-17811 
-17791 
-17734 
-17563 
-17420 
-17205 
-17063 
-16929 
-16862 
-16947 
-17217 
-17510 
-17579 
-17616 
-17685 
-17739 
-17697 
-17615 
-17688 
-17738 
-17691 
-17687 
-17692 
-17767 
-17681 
-17626 
-17620 
-17686 
-17658 
-17602 
-17621 
-17705 
-17724 
-17623 
-17542 
-17632 
-17615 
-17591 
-17547 
-17604 
-17590 
-17559 
-17510 
-17515 
-17587 
-17515 
-17433 
-17457 
-17538 
-17510 
-17417 
-17372 
-17438 
-17402 
-17289 
-17218 
-17322 
-17293 
-17253 
-17175 
-17267 
-17267 
-17198 
-17110 
-17228 
-17278 
-17238 
-17171 
-17285 
-17407 
-17346 
-17306 
-17316 
-17434 
-17469 
-17304 
-17386 
-17525 
-17518 
-17435 
-17376 
-17500 
-17574 
-17488 
-17453 
-17522 
-17565 
-17528 
-17439 
-17468 
-17538 
-17521 
-17412 
-17458 
-17561 
-17436 
-17368 
-17387 
-17427 
-17444 
-17344 
-17346 
-17474 
-17479 
-17368 
-17264 
-17392 
-17475 
-17432 
-17308 
-17389 
-17456 
-17367 
-17305 
-17371 
-17425 
-17379 
-17260 
-17267 
-17412 
-17382 
-17300 
-17266 
-17572 
-17654 
-17547 
-17620 
-17743 
-17687 
-17580 
-17516 
-17603 
-17608 
-17538 
-17485 
-17530 
-17587 
-17489 
-17464 
-17499 
-17491 
-17415 
-17322 
-17429 
-17538 
-17413 
-17392 
-17464 
-17483 
-17469 
-17428 
-17470 
-17547 
-17514 
-17424 
-17427 
-17526 
-17524 
-17408 
-17393 
-17462 
-17468 
-17443 
-17425 
-17475 
-17533 
-17430 
-17307 
-17261 
-17184 
-17023 
-16773 
-16546 
-16433 
-16344 
-16375 
-16673 
-17016 
-17149 
-17181 
-17222 
-17314 
-17381 
-17367 
-17316 
-17345 
-17352 
-17323 
-17246 
-17304 
-17329 
-17296 
-17231 
-17305 
-17340 
-17259 
-17189 
-17234 
-17380 
-17259 
-17179 
-17235 
-17318 
-17229 
-17128 
-17179 
-17249 
-17263 
-17208 
-17113 
-17210 
-17263 
-17187 
-17095 
-17118 
-17171 
-17101 
-17013 
-17040 
-17112 
-16991 
-16898 
-16936 
-17021 
-16936 
-16841 
-16882 
-16939 
-16910 
-16827 
-16791 
-16860 
-16907 
-16869 
-16928 
-16953 
-17004 
-17011 
-16992 
-17014 
-17183 
-17087 
-17049 
-17087 
-17115 
-17084 
-17054 
-17082 
-17179 
-17136 
-17044 
-17065 
-17092 
-17124 
-17070 
-17051 
-17103 
-17086 
-17056 
-17069 
-17080 
-17113 
-17045 
-16925 
-17071 
-17186 
-17048 
-16908 
-17029 
-17099 
-17055 
-16957 
-16975 
-17053 
-17032 
-16958 
-16925 
-16970 
-16979 
-16916 
-16874 
-16957 
-16924 
-16900 
-16901 
-16930 
-16986 
-16896 
-16839 
-16909 
-16962 
-16907 
-16829 
-16879 
-16896 
-16851 
-16771 
-16809 
-16927 
-16846 
-16754 
-16779 
-16861 
-16835 
-16787 
-16715 
-16803 
-16846 
-16783 
-16725 
-16819 
-16874 
-16772 
-16720 
-16818 
-16815 
-16808 
-16693 
-16750 
-16817 
-16788 
-16754 
-16761 
-16845 
-16820 
-16738 
-16684 
-16807 
-16857 
-16781 
-16742 
-16871 
-16848 
-16792 
-16678 
-16667 
-16580 
-16352 
-16053 
-15916 
-15784 
-15655 
-15675 
-15963 
-16352 
-16474 
-16461 
-16547 
-16705 
-16660 
-16608 
-16553 
-16706 
-16711 
-16607 
-16590 
-16752 
-16719 
-16656 
-16586 
-16657 
-16661 
-16601 
-16558 
-16586 
-16664 
-16610 
-16524 
-16517 
-16610 
-16565 
-16472 
-16547 
-16611 
-16631 
-16527 
-16483 
-16588 
-16615 
-16447 
-16408 
-16529 
-16458 
-16439 
-16389 
-16460 
-16408 
-16370 
-16310 
-16316 
-16366 
-16262 
-16150 
-16228 
-16263 
-16177 
-16109 
-16184 
-16269 
-16270 
-16235 
-16228 
-16335 
-16373 
-16329 
-16369 
-16491 
-16517 
-16450 
-16387 
-16502 
-16533 
-16449 
-16355 
-16443 
-16550 
-16472 
-16378 
-16463 
-16578 
-16515 
-16464 
-16480 
-16567 
-16532 
-16472 
-16432 
-16460 
-16515 
-16397 
-16335 
-16426 
-16452 
-16337 
-16330 
-16392 
-16381 
-16349 
-16286 
-16364 
-16419 
-16341 
-16255 
-16366 
-16475 
-16461 
-16292 
-16286 
-16391 
-16379 
-16268 
-16249 
-16364 
-16353 
-16303 
-16224 
-16376 
-16391 
-16301 
-16245 
-16329 
-16342 
-16289 
-16231 
-16299 
-16356 
-16296 
-16275 
-16249 
-16348 
-16346 
-16261 
-16246 
-16330 
-16276 
-16228 
-16084 
-16178 
-16222 
-16134 
-16031 
-16121 
-16237 
-16130 
-16088 
-16146 
-16175 
-16248 
-16178 
-16209 
-16258 
-16192 
-16169 
-16169 
-16213 
-16154 
-16107 
-16085 
-16234 
-16172 
-16178 
-16151 
-16236 
-16166 
-16083 
-16028 
-16023 
-15845 
-15554 
-15297 
-15251 
-15273 
-15340 
-15468 
-15765 
-16009 
-16087 
-16023 
-16091 
-16184 
-16117 
-15979 
-15988 
-16111 
-16133 
-16039 
-16013 
-16081 
-16032 
-15999 
-15979 
-16002 
-16037 
-15914 
-15882 
-15978 
-15965 
-15924 
-15820 
-15881 
-15915 
-15818 
-15779 
-15828 
-15936 
-15832 
-15675 
-15683 
-15816 
-15728 
-15651 
-15635 
-15665 
-15640 
-15580 
-15540 
-15599 
-15562 
-15472 
-15463 
-15529 
-15543 
-15455 
-15369 
-15421 
-15434 
-15304 
-15224 
-15437 
-15513 
-15425 
-15361 
-15470 
-15630 
-15582 
-15544 
-15597 
-15752 
-15734 
-15674 
-15695 
-15718 
-15754 
-15696 
-15702 
-15754 
-15757 
-15655 
-15686 
-15714 
-15769 
-15727 
-15662 
-15736 
-15829 
-15735 
-15676 
-15663 
-15777 
-15732 
-15627 
-15651 
-15712 
-15757 
-15657 
-15601 
-15673 
-15745 
-15631 
-15551 
-15721 
-15739 
-15639 
-15637 
-15701 
-15787 
-15726 
-15617 
-15674 
-15723 
-15699 
-15560 
-15562 
-15950 
-16025 
-15977 
-15950 
-15962 
-15913 
-15819 
-15865 
-15953 
-15905 
-15899 
-15826 
-15823 
-15855 
-15805 
-15724 
-15785 
-15796 
-15705 
-15658 
-15726 
-15808 
-15740 
-15658 
-15666 
-15746 
-15814 
-15793 
-15812 
-15866 
-15889 
-15774 
-15713 
-15777 
-15805 
-15760 
-15692 
-15832 
-15829 
-15740 
-15675 
-15740 
-15779 
-15692 
-15573 
-15449 
-15442 
-15237 
-14872 
-14634 
-14687 
-14720 
-14839 
-15104 
-15420 
-15534 
-15492 
-15522 
-15700 
-15685 
-15565 
-15558 
-15710 
-15741 
-15637 
-15546 
-15623 
-15677 
-15686 
-15556 
-15609 
-15679 
-15597 
-15582 
-15595 
-15674 
-15612 
-15507 
-15567 
-15650 
-15615 
-15525 
-15484 
-15609 
-15607 
-15605 
-15517 
-15572 
-15529 
-15425 
-15400 
-15476 
-15500 
-15419 
-15362 
-15330 
-15404 
-15388 
-15313 
-15299 
-15346 
-15356 
-15274 
-15218 
-15361 
-15319 
-15171 
-15206 
-15326 
-15378 
-15319 
-15256 
-15387 
-15430 
-15452 
-15378 
-15478 
-15602 
-15502 
-15493 
-15520 
-15654 
-15625 
-15505 
-15516 
-15686 
-15691 
-15584 
-15575 
-15629 
-15617 
-15514 
-15499 
-15603 
-15666 
-15557 
-15490 
-15616 
-15678 
-15598 
-15481 
-15577 
-15652 
-15597 
-15519 
-15570 
-15677 
-15611 
-15526 
-15498 
-15613 
-15589 
-15488 
-15502 
-15563 
-15588 
-15489 
-15408 
-15537 
-15633 
-15519 
-15439 
-15523 
-15595 
-15568 
-15466 
-15469 
-15584 
-15492 
-15417 
-15457 
-15535 
-15499 
-15431 
-15458 
-15549 
-15514 
-15428 
-15337 
-15472 
-15519 
-15419 
-15344 
-15448 
-15477 
-15374 
-15365 
-15467 
-15493 
-15395 
-15362 
-15462 
-15558 
-15526 
-15354 
-15449 
-15585 
-15534 
-15421 
-15490 
-15569 
-15488 
-15437 
-15459 
-15521 
-15500 
-15377 
-15274 
-15211 
-15117 
-14866 
-14674 
-14559 
-14489 
-14599 
-14765 
-15106 
-15344 
-15346 
-15348 
-15357 
-15435 
-15452 
-15418 
-15400 
-15463 
-15431 
-15433 
-15448 
-15567 
-15528 
-15425 
-15414 
-15524 
-15561 
-15453 
-15396 
-15505 
-15519 
-15455 
-15379 
-15468 
-15499 
-15439 
-15385 
-15429 
-15513 
-15480 
-15387 
-15383 
-15469 
-15563 
-15415 
-15342 
-15445 
-15442 
-15305 
-15275 
-15440 
-15473 
-15365 
-15294 
-15358 
-15397 
-15310 
-15210 
-15255 
-15308 
-15342 
-15227 
-15276 
-15424 
-15379 
-15289 
-15366 
-15568 
-15558 
-15545 
-15541 
-15682 
-15756 
-15698 
-15699 
-15775 
-15801 
-15740 
-15767 
-15910 
-15912 
-15872 
-15816 
-15898 
-15990 
-15858 
-15900 
-15912 
-16001 
-16054 
-15912 
-15901 
-16012 
-15962 
-15850 
-16044 
-16082 
-16048 
-15995 
-15930 
-16084 
-16079 
-16046 
-15944 
-16086 
-16149 
-16096 
-16018 
-16062 
-16184 
-16187 
-16113 
-16155 
-16270 
-16223 
-16135 
-16189 
-16321 
-16321 
-16244 
-16241 
-16353 
-16285 
-16251 
-16323 
-16424 
-16351 
-16293 
-16287 
-16323 
-16476 
-16417 
-16343 
-16479 
-16531 
-16481 
-16442 
-16544 
-16607 
-16517 
-16410 
-16502 
-16581 
-16527 
-16448 
-16477 
-16656 
-16618 
-16569 
-16595 
-16689 
-16703 
-16668 
-16679 
-16828 
-16832 
-16715 
-16707 
-16848 
-16892 
-16811 
-16732 
-16821 
-16930 
-16926 
-16836 
-16889 
-16970 
-16898 
-16741 
-16673 
-16719 
-16544 
-16258 
-16073 
-16055 
-16050 
-16159 
-16384 
-16770 
-16948 
-16971 
-16921 
-17033 
-17140 
-17093 
-17029 
-17086 
-17204 
-17195 
-17151 
-17199 
-17331 
-17278 
-17197 
-17233 
-17281 
-17313 
-17308 
-17239 
-17302 
-17341 
-17279 
-17239 
-17326 
-17438 
-17349 
-17348 
-17461 
-17453 
-17427 
-17334 
-17340 
-17459 
-17493 
-17377 
-17349 
-17425 
-17432 
-17343 
-17401 
-17488 
-17504 
-17450 
-17369 
-17506 
-17472 
-17305 
-17292 
-17459 
-17462 
-17371 
-17401 
-17506 
-17624 
-17509 
-17454 
-17570 
-17754 
-17781 
-17677 
-17708 
-17841 
-17840 
-17765 
-17842 
-17945 
-17971 
-17895 
-17886 
-18015 
-18023 
-18039 
-17985 
-18060 
-18115 
-18078 
-17984 
-18110 
-18168 
-18109 
-18028 
-18131 
-18228 
-18116 
-18089 
-18199 
-18273 
-18219 
-18143 
-18169 
-18285 
-18288 
-18146 
-18120 
-18245 
-18257 
-18202 
-18138 
-18226 
-18397 
-18305 
-18241 
-18307 
-18341 
-18266 
-18247 
-18344 
-18441 
-18374 
-18273 
-18294 
-18459 
-18383 
-18250 
-18315 
-18424 
-18444 
-18390 
-18379 
-18489 
-18479 
-18403 
-18364 
-18460 
-18588 
-18545 
-18472 
-18505 
-18564 
-18516 
-18442 
-18546 
-18663 
-18590 
-18500 
-18530 
-18626 
-18594 
-18475 
-18529 
-18620 
-18611 
-18521 
-18456 
-18557 
-18581 
-18473 
-18503 
-18666 
-18748 
-18632 
-18555 
-18686 
-18807 
-18722 
-18673 
-18695 
-18779 
-18697 
-18707 
-18766 
-18842 
-18720 
-18664 
-18745 
-18881 
-18851 
-18754 
-18614 
-18591 
-18509 
-18209 
-17951 
-17851 
-17780 
-17743 
-17857 
-18199 
-18544 
-18675 
-18650 
-18753 
-18838 
-18812 
-18766 
-18835 
-18859 
-18833 
-18768 
-18812 
-18879 
-18858 
-18775 
-18705 
-18844 
-19017 
-18841 
-18801 
-18899 
-18911 
-18813 
-18844 
-18853 
-18871 
-18858 
-18818 
-18866 
-18893 
-18838 
-18754 
-18777 
-18866 
-18813 
-18755 
-18742 
-18808 
-18831 
-18755 
-18763 
-18811 
-18764 
-18685 
-18672 
-18735 
-18708 
-18659 
-18618 
-18635 
-18699 
-18699 
-18639 
-18641 
-18688 
-18661 
-18689 
-18749 
-18883 
-18881 
-18833 
-18792 
-18883 
-18912 
-18848 
-18826 
-18988 
-19046 
-18949 
-18878 
-19071 
-19081 
-18955 
-18896 
-18999 
-19093 
-18976 
-18896 
-19002 
-19054 
-18978 
-18880 
-18923 
-19056 
-18977 
-18867 
-18922 
-19061 
-18970 
-18967 
-18905 
-18958 
-18953 
-18847 
-18929 
-19037 
-19042 
-18924 
-18869 
-18989 
-19005 
-18938 
-18896 
-18889 
-19016 
-18998 
-18904 
-18914 
-19010 
-18961 
-18838 
-18833 
-18924 
-18917 
-18907 
-18885 
-18975 
-18965 
-18898 
-18778 
-18921 
-19013 
-18912 
-18810 
-18867 
-18990 
-18932 
-18836 
-18869 
-18976 
-18866 
-18783 
-18933 
-19024 
-18881 
-18860 
-18881 
-18973 
-18925 
-18904 
-18865 
-18964 
-18906 
-18823 
-18830 
-18912 
-18891 
-18856 
-18836 
-18848 
-18901 
-18822 
-18732 
-18773 
-18809 
-18837 
-18754 
-18758 
-18857 
-18851 
-18760 
-18797 
-18904 
-18918 
-18784 
-18805 
-18901 
-18876 
-18780 
-18744 
-18885 
-18872 
-18764 
-18737 
-18785 
-18806 
-18780 
-18675 
-18637 
-18531 
-18304 
-18025 
-17811 
-17788 
-17773 
-17818 
-18033 
-18396 
-18609 
-18578 
-18584 
-18700 
-18731 
-18609 
-18632 
-18745 
-18782 
-18694 
-18605 
-18673 
-18768 
-18680 
-18605 
-18654 
-18684 
-18749 
-18605 
-18630 
-18751 
-18666 
-18539 
-18544 
-18597 
-18676 
-18591 
-18591 
-18651 
-18638 
-18558 
-18500 
-18552 
-18551 
-18508 
-18396 
-18521 
-18588 
-18517 
-18400 
-18402 
-18456 
-18382 
-18285 
-18275 
-18355 
-18438 
-18290 
-18307 
-18345 
-18311 
-18191 
-18235 
-18341 
-18298 
-18264 
-18268 
-18353 
-18434 
-18404 
-18327 
-18466 
-18503 
-18461 
-18457 
-18494 
-18600 
-18561 
-18442 
-18477 
-18558 
-18569 
-18451 
-18441 
-18558 
-18611 
-18476 
-18463 
-18539 
-18560 
-18400 
-18381 
-18524 
-18502 
-18429 
-18349 
-18428 
-18509 
-18465 
-18412 
-18470 
-18511 
-18431 
-18336 
-18432 
-18475 
-18456 
-18401 
-18371 
-18510 
-18427 
-18339 
-18325 
-18366 
-18375 
-18272 
-18260 
-18415 
-18440 
-18370 
-18336 
-18446 
-18426 
-18368 
-18302 
-18386 
-18413 
-18365 
-18251 
-18281 
-18417 
-18351 
-18256 
-18237 
-18352 
-18385 
-18231 
-18276 
-18399 
-18349 
-18278 
-18215 
-18323 
-18316 
-18247 
-18184 
-18253 
-18351 
-18260 
-18112 
-18153 
-18285 
-18240 
-18123 
-18162 
-18205 
-18207 
-18094 
-18107 
-18224 
-18178 
-18105 
-18090 
-18308 
-18347 
-18226 
-18176 
-18248 
-18259 
-18221 
-18115 
-18241 
-18296 
-18218 
-18033 
-18107 
-18268 
-18239 
-18073 
-17994 
-18015 
-17897 
-17690 
-17454 
-17353 
-17228 
-17213 
-17387 
-17754 
-17910 
-17950 
-17992 
-18056 
-18034 
-18045 
-18012 
-18092 
-18124 
-18035 
-17951 
-18053 
-18143 
-18038 
-17899 
-18047 
-18145 
-17992 
-17921 
-18042 
-18142 
-18084 
-17958 
-17860 
-17986 
-18049 
-17943 
-17842 
-17919 
-17964 
-17914 
-17820 
-17909 
-17935 
-17815 
-17732 
-17785 
-17884 
-17794 
-17733 
-17709 
-17772 
-17702 
-17614 
-17685 
-17943 
-18211 
-18422 
-18563 
-18738 
-18835 
-18744 
-18771 
-18937 
-18969 
-18885 
-18942 
-19084 
-19186 
-19186 
-19147 
-19207 
-19387 
-19387 
-19318 
-19427 
-19549 
-19514 
-19454 
-19516 
-19641 
-19634 
-19541 
-19533 
-19634 
-19670 
-19552 
-19572 
-19689 
-19726 
-19685 
-19616 
-19677 
-19718 
-19693 
-19604 
-19661 
-19717 
-19688 
-19595 
-19620 
-19750 
-19739 
-19590 
-19667 
-19728 
-19753 
-19688 
-19690 
-19752 
-19808 
-19697 
-19580 
-19678 
-19826 
-19769 
-19614 
-19741 
-19836 
-19783 
-19656 
-19724 
-19807 
-19773 
-19734 
-19735 
-19830 
-19832 
-19763 
-19780 
-19913 
-19971 
-19861 
-19832 
-19980 
-19985 
-19948 
-19942 
-20027 
-20037 
-20020 
-19972 
-20064 
-20104 
-20044 
-20008 
-20062 
-20096 
-20016 
-19992 
-20011 
-20066 
-20058 
-20023 
-20019 
-20082 
-20131 
-20088 
-20071 
-20175 
-20205 
-20132 
-20102 
-20219 
-20216 
-20212 
-20126 
-20196 
-20207 
-20180 
-20163 
-20143 
-20280 
-20208 
-20142 
-20066 
-20061 
-19887 
-19649 
-19494 
-19470 
-19323 
-19222 
-19426 
-19832 
-20019 
-20033 
-20067 
-20210 
-20239 
-20170 
-20131 
-20220 
-20319 
-20198 
-20189 
-20217 
-20291 
-20267 
-20151 
-20250 
-20354 
-20343 
-20269 
-20252 
-20325 
-20266 
-20216 
-20170 
-20303 
-20377 
-20263 
-20156 
-20272 
-20357 
-20185 
-20132 
-20275 
-20335 
-20244 
-20164 
-20218 
-20262 
-20189 
-20077 
-20157 
-20269 
-20221 
-20100 
-20114 
-20175 
-20164 
-20093 
-19997 
-20042 
-20140 
-20076 
-19969 
-20071 
-20168 
-20059 
-20013 
-20188 
-20230 
-20189 
-20190 
-20262 
-20354 
-20353 
-20261 
-20310 
-20463 
-20452 
-20393 
-20340 
-20491 
-20526 
-20391 
-20356 
-20452 
-20491 
-20455 
-20382 
-20482 
-20564 
-20440 
-20392 
-20434 
-20484 
-20455 
-20333 
-20391 
-20440 
-20456 
-20381 
-20420 
-20513 
-20457 
-20384 
-20449 
-20525 
-20482 
-20422 
-20411 
-20496 
-20506 
-20457 
-20402 
-20462 
-20537 
-20421 
-20412 
-20544 
-20572 
-20463 
-20377 
-20419 
-20565 
-20550 
-20446 
-20422 
-20566 
-20554 
-20394 
-20376 
-20544 
-20537 
-20435 
-20383 
-20465 
-20516 
-20439 
-20472 
-20540 
-20534 
-20419 
-20362 
-20516 
-20582 
-20554 
-20492 
-20538 
-20568 
-20511 
-20390 
-20370 
-20474 
-20484 
-20401 
-20416 
-20485 
-20506 
-20405 
-20423 
-20527 
-20539 
-20525 
-20470 
-20535 
-20609 
-20562 
-20476 
-20551 
-20581 
-20526 
-20478 
-20535 
-20641 
-20596 
-20479 
-20510 
-20551 
-20300 
-20630 
-20709 
-20715 
-20624 
-20575 
-20661 
-20705 
-20606 
-20551 
-20657 
-20760 
-20674 
-20577 
-20658 
-20710 
-20710 
-20627 
-20603 
-20738 
-20750 
-20654 
-20627 
-20720 
-20669 
-20631 
-20637 
-20729 
-20678 
-20609 
-20627 
-20746 
-20775 
-20680 
-20560 
-20714 
-20781 
-20675 
-20658 
-20785 
-20817 
-20774 
-20663 
-20704 
-20799 
-20783 
-20695 
-20680 
-20799 
-20849 
-20727 
-20700 
-20833 
-20820 
-20799 
-20725 
-20787 
-20875 
-20777 
-20770 
-20855 
-20856 
-20792 
-20724 
-20801 
-20909 
-20884 
-20744 
-20760 
-20839 
-20828 
-20728 
-20820 
-20868 
-20950 
-20865 
-20781 
-20853 
-20950 
-20841 
-20864 
-20971 
-21068 
-20958 
-20898 
-21015 
-21080 
-21011 
-20936 
-20986 
-21069 
-21022 
-20906 
-20936 
-21051 
-21186 
-20967 
-20851 
-20883 
-20802 
-20499 
-20233 
-20144 
-20034 
-20033 
-20230 
-20628 
-20839 
-20902 
-20931 
-21084 
-21168 
-21053 
-20988 
-21149 
-21195 
-21163 
-21107 
-21161 
-21260 
-22343 
-22398 
-22363 
-22435 
-22487 
-22492 
-22384 
-22466 
-22550 
-22463 
-22437 
-22490 
-22568 
-22531 
-22440 
-22480 
-22563 
-22523 
-22484 
-22498 
-22564 
-22614 
-22479 
-22476 
-22649 
-22615 
-22548 
-22515 
-22625 
-22689 
-22674 
-22572 
-22721 
-22785 
-22725 
-22718 
-22708 
-22809 
-22788 
-22777 
-22821 
-22899 
-22817 
-22724 
-22773 
-22907 
-22866 
-22706 
-22539 
-22454 
-22379 
-22095 
-21911 
-21919 
-22137 
-22357 
-22508 
-22768 
-22919 
-22866 
-22733 
-22795 
-22983 
-22975 
-22890 
-22950 
-23042 
-23024 
-22975 
-22970 
-23042 
-23025 
-23000 
-23060 
-23120 
-23152 
-23081 
-23031 
-23139 
-23189 
-23073 
-22965 
-23126 
-23164 
-23128 
-23029 
-23060 
-23192 
-23195 
-23028 
-23066 
-23201 
-23182 
-23102 
-23109 
-23168 
-23120 
-23022 
-23036 
-23100 
-23130 
-23063 
-22993 
-23082 
-23110 
-23023 
-22998 
-23065 
-23094 
-23035 
-23007 
-23183 
-23271 
-23198 
-23134 
-23160 
-23309 
-23354 
-23304 
-24318 
-24177 
-24072 
-24012 
-23809 
-23547 
-23415 
-23553 
-23732 
-23915 
-24026 
-24275 
-24452 
-24391 
-24405 
-24522 
-24569 
-24479 
-24522 
-24563 
-24651 
-24626 
-24529 
-24511 
-24630 
-24614 
-24498 
-24516 
-24660 
-24631 
-24512 
-24505 
-24604 
-24683 
-24641 
-24527 
-24552 
-24728 
-24637 
-24498 
-24628 
-24683 
-24587 
-24514 
-24526 
-24606 
-24630 
-24568 
-24517 
-24589 
-24565 
-24519 
-24549 
-24636 
-24601 
-24458 
-24356 
-24546 
-24590 
-24455 
-24407 
-24557 
-24596 
-24531 
-24443 
-24566 
-24710 
-24662 
-24546 
-24701 
-24785 
-24734 
-24755 
-24756 
-24864 
-24869 
-24809 
-24848 
-24949 
-24948 
-24875 
-24869 
-24988 
-25004 
-24899 
-24854 
-24979 
-25138 
-24998 
-24880 
-24965 
-25051 
-25007 
-24895 
-25000 
-25115 
-25029 
-24941 
-25002 
-25107 
-25121 
-24979 
-25010 
-25112 
-25109 
-25095 
-25061 
-25119 
-25093 
-25017 
-24997 
-25073 
-25152 
-25127 
-25083 
-25142 
-25208 
-25139 
-25084 
-25171 
-25535 
-25499 
-25704 
-25699 
-25589 
-25587 
-25681 
-25727 
-25563 
-25456 
-25438 
-25243 
-24965 
-24687 
-24601 
-24645 
-24629 
-24875 
-25252 
-25472 
-25527 
-25533 
-25580 
-25705 
-25664 
-25603 
-25664 
-25774 
-25697 
-25704 
-25689 
-25725 
-25770 
-25709 
-25610 
-25739 
-25778 
-25732 
-25671 
-25758 
-25827 
-25752 
-25684 
-25805 
-25900 
-25860 
-25780 
-25816 
-25944 
-25890 
-25758 
-25772 
-25889 
-25871 
-25778 
-25767 
-25819 
-25847 
-25758 
-25736 
-25821 
-25814 
-25711 
-25654 
-25749 
-25762 
-25733 
-25652 
-25675 
-25840 
-25740 
-25634 
-25671 
-25794 
-25735 
-25647 
-25730 
-25940 
-25966 
-25870 
-25845 
-26019 
-26053 
-26008 
-25970 
-26103 
-26130 
-26084 
-26055 
-26174 
-26177 
-26111 
-26072 
-26139 
-26191 
-26167 
-26105 
-26126 
-26198 
-26277 
-26082 
-26118 
-26233 
-26189 
-26103 
-26148 
-26258 
-26224 
-26097 
-26084 
-26183 
-26229 
-26210 
-26136 
-26261 
-26274 
-26210 
-26106 
-26200 
-26359 
-26408 
-26322 
-26242 
-26307 
-26414 
-26364 
-26341 
-26364 
-26387 
-26439 
-26396 
-26374 
-26487 
-26444 
-26409 
-26472 
-26493 
-26487 
-26390 
-26420 
-26468 
-26563 
-26469 
-26457 
-26610 
-26627 
-26571 
-26483 
-26492 
-26538 
-26545 
-26410 
-26482 
-26612 
-26581 
-26480 
-26528 
-26633 
-26648 
-26546 
-26558 
-26708 
-26679 
-26602 
-26612 
-26748 
-26764 
-26669 
-26590 
-26774 
-26819 
-26711 
-26625 
-26726 
-26832 
-26749 
-26593 
-26629 
-26601 
-26378 
-26151 
-26030 
-25977 
-25869 
-25916 
-26066 
-26414 
-26670 
-26672 
-26663 
-26777 
-26854 
-26773 
-26776 
-26798 
-26898 
-26857 
-26761 
-26855 
-27005 
-26948 
-26854 
-26841 
-27004 
-27012 
-26864 
-26917 
-27096 
-27033 
-26913 
-26940 
-27087 
-27045 
-26941 
-26910 
-27072 
-27126 
-27025 
-26935 
-27022 
-27095 
-27070 
-26984 
-27060 
-27095 
-27026 
-26962 
-27054 
-27131 
-27091 
-26972 
-26944 
-27052 
-26958 
-26862 
-26887 
-26997 
-27038 
-26945 
-26880 
-26990 
-27112 
-27054 
-26966 
-27077 
-27187 
-27125 
-27110 
-27241 
-27378 
-27328 
-27283 
-27397 
-27493 
-27466 
-27371 
-27444 
-27595 
-27585 
-27487 
-27518 
-27659 
-27637 
-27536 
-27560 
-27641 
-27696 
-27684 
-27570 
-27574 
-27728 
-27716 
-27605 
-27669 
-27757 
-27709 
-27641 
-27651 
-27785 
-27812 
-27683 
-27627 
-27822 
-27848 
-27781 
-27733 
-27750 
-27805 
-27749 
-27704 
-27759 
-27818 
-27749 
-27714 
-27836 
-27955 
-27871 
-27808 
-27840 
-27952 
-27924 
-27787 
-27859 
-28014 
-27946 
-27880 
-27893 
-28021 
-28027 
-27956 
-27916 
-28013 
-28030 
-27951 
-27963 
-28051 
-28086 
-28042 
-27945 
-28047 
-28098 
-27969 
-27966 
-28058 
-28171 
-28109 
-27980 
-27976 
-28111 
-28081 
-28018 
-28053 
-28092 
-28127 
-28128 
-28094 
-28185 
-28207 
-28109 
-28124 
-28207 
-28279 
-28228 
-28123 
-28243 
-28288 
-28236 
-28147 
-28241 
-28325 
-28267 
-28143 
-28220 
-28325 
-28295 
-28254 
-28217 
-28344 
-28242 
-27979 
-27802 
-27797 
-27648 
-27363 
-27267 
-27493 
-27776 
-27946 
-28039 
-28220 
-28307 
-28218 
-28194 
-28247 
-28405 
-28436 
-28343 
-28360 
-28413 
-28352 
-28259 
-28280 
-28414 
-28389 
-28343 
-28304 
-28456 
-28421 
-28306 
-28249 
-28386 
-28481 
-28318 
-28268 
-28420 
-28470 
-28387 
-28252 
-28285 
-28372 
-28359 
-28219 
-28295 
-28418 
-28372 
-28298 
-28333 
-28386 
-28392 
-28294 
-28195 
-28299 
-28269 
-28143 
-28122 
-28193 
-28254 
-28218 
-28089 
-28153 
-28294 
-28260 
-28169 
-28197 
-28329 
-28347 
-28277 
-28281 
-28398 
-28406 
-28422 
-28394 
-28508 
-28595 
-28465 
-28443 
-28579 
-28618 
-28618 
-28547 
-28620 
-28648 
-28562 
-28441 
-28556 
-28631 
-28552 
-28442 
-28544 
-28591 
-28539 
-28533 
-28562 
-28629 
-28599 
-28606 
-28516 
-28621 
-28682 
-28526 
-28466 
-28618 
-28655 
-28554 
-28486 
-28646 
-28661 
-28587 
-28522 
-28569 
-28644 
-28587 
-28493 
-28541 
-28609 
-28510 
-28442 
-28528 
-28594 
-28621 
-28574 
-28531 
-28619 
-28638 
-28537 
-28524 
-28552 
-28636 
-28572 
-28508 
-28580 
-28648 
-28588 
-28518 
-28585 
-28625 
-28578 
-28504 
-28543 
-28638 
-28554 
-28570 
-28554 
-28602 
-28621 
-28595 
-28527 
-28667 
-28667 
-28570 
-28544 
-28680 
-28673 
-28630 
-28491 
-28633 
-28751 
-28625 
-28556 
-28601 
-28669 
-28627 
-28487 
-28526 
-28626 
-28539 
-28424 
-28553 
-28670 
-28634 
-28483 
-28475 
-28635 
-28630 
-28577 
-28453 
-28475 
-28620 
-28527 
-28436 
-28550 
-28629 
-28575 
-28438 
-28553 
-28673 
-28604 
-28506 
-28556 
-28606 
-28553 
-28416 
-28313 
-28324 
-28118 
-27781 
-27556 
-27542 
-27605 
-27716 
-27918 
-28280 
-28450 
-28430 
-28384 
-28522 
-28617 
-28584 
-28515 
-28586 
-28643 
-28553 
-28471 
-28523 
-28673 
-28639 
-28496 
-28507 
-28595 
-28563 
-28487 
-28456 
-28553 
-28552 
-28497 
-28476 
-28517 
-28578 
-28512 
-28488 
-28518 
-28512 
-28452 
-28428 
-28481 
-28517 
-28435 
-28438 
-28413 
-28449 
-28409 
-28379 
-28390 
-28460 
-28483 
-28410 
-28326 
-28372 
-28363 
-28357 
-28261 
-28346 
-28314 
-28270 
-28227 
-28249 
-28314 
-28234 
-28236 
-28334 
-28462 
-28450 
-28366 
-28426 
-28532 
-28501 
-28452 
-28520 
-28615 
-28640 
-28664 
-28684 
-28700 
-28664 
-28558 
-28529 
-28592 
-28636 
-28557 
-28481 
-28555 
-28644 
-28597 
-28551 
-28547 
-28603 
-28634 
-28536 
-28498 
-28651 
-28670 
-28558 
-28537 
-28608 
-28621 
-28512 
-28531 
-28610 
-28612 
-28551 
-28437 
-28517 
-28581 
-28462 
-28400 
-28589 
-28600 
-28549 
-28526 
-28536 
-28622 
-28542 
-28459 
-28504 
-28627 
-28557 
-28453 
-28501 
-28609 
-28597 
-28493 
-28506 
-28599 
-28618 
-28539 
-28541 
-28607 
-28694 
-28663 
-28552 
-28662 
-28702 
-28594 
-28556 
-28608 
-28661 
-28570 
-28482 
-28603 
-28655 
-28627 
-28627 
-28593 
-28726 
-28735 
-28640 
-28599 
-28673 
-28716 
-28668 
-28565 
-28647 
-28713 
-28608 
-28591 
-28669 
-28713 
-28622 
-28475 
-28568 
-28705 
-28666 
-28508 
-28569 
-28710 
-28735 
-28609 
-28572 
-28680 
-28664 
-28572 
-28563 
-28636 
-28720 
-28603 
-28559 
-28686 
-28764 
-28661 
-28594 
-28710 
-28778 
-28695 
-28625 
-28711 
-28792 
-28730 
-28675 
-28718 
-28778 
-28760 
-28676 
-28506 
-28490 
-28340 
-28044 
-27749 
-27748 
-27753 
-27837 
-28053 
-28335 
-28601 
-28617 
-28588 
-28683 
-28808 
-28753 
-28728 
-28792 
-28903 
-28895 
-28769 
-28813 
-28943 
-28845 
-28773 
-28875 
-28915 
-28894 
-28752 
-28825 
-28897 
-28890 
-28797 
-28758 
-28872 
-28938 
-28860 
-28778 
-28826 
-28931 
-28864 
-28758 
-28819 
-28898 
-28864 
-28756 
-28722 
-28918 
-28925 
-28750 
-28803 
-28878 
-28786 
-28769 
-28689 
-28803 
-28838 
-28725 
-28634 
-28703 
-28771 
-28738 
-28625 
-28670 
-28784 
-28801 
-28702 
-28748 
-28960 
-28975 
-28858 
-28935 
-29042 
-29010 
-28966 
-28978 
-29113 
-29163 
-29023 
-28971 
-29179 
-29343 
-29244 
-29157 
-29194 
-29340 
-29220 
-29166 
-29244 
-29273 
-29236 
-29126 
-29156 
-29289 
-29248 
-29146 
-29140 
-29278 
-29282 
-29195 
-29144 
-29364 
-29353 
-29286 
-29277 
-29338 
-29327 
-29230 
-29227 
-29276 
-29339 
-29243 
-29190 
-29232 
-29345 
-29310 
-29297 
-29288 
-29366 
-29306 
-29225 
-29247 
-29374 
-29392 
-29293 
-29272 
-29376 
-29387 
-29265 
-29208 
-29311 
-29317 
-29215 
-29165 
-29334 
-29402 
-29305 
-29252 
-29342 
-29404 
-29354 
-29305 
-29362 
-29439 
-29405 
-29342 
-29284 
-29383 
-29301 
-29216 
-29211 
-29353 
-29382 
-29314 
-29302 
-29414 
-29412 
-29334 
-29299 
-29450 
-29478 
-29393 
-29297 
-29345 
-29463 
-29464 
-29361 
-29338 
-29445 
-29360 
-29282 
-29255 
-29322 
-29417 
-29354 
-29281 
-29375 
-29410 
-29414 
-29364 
-29445 
-29501 
-29434 
-29365 
-29461 
-29551 
-29465 
-29347 
-29373 
-29529 
-29520 
-29396 
-29416 
-29483 
-29426 
-29342 
-29407 
-29330 
-29167 
-28984 
-28727 
-28647 
-28454 
-28456 
-28712 
-29019 
-29206 
-29245 
-29288 
-29342 
-29423 
-29391 
-29285 
-29393 
-29477 
-29419 
-29321 
-29404 
-29529 
-29371 
-29341 
-29395 
-29457 
-29486 
-29352 
-29290 
-29430 
-29454 
-29404 
-29320 
-29398 
-29426 
-29338 
-29185 
-29288 
-29433 
-29373 
-29264 
-29312 
-29339 
-29303 
-29195 
-29258 
-29329 
-29256 
-29139 
-29200 
-29274 
-29174 
-29086 
-29064 
-29112 
-29086 
-29025 
-28919 
-28984 
-29012 
-28893 
-28781 
-28916 
-28972 
-28887 
-28849 
-28911 
-29097 
-29092 
-28988 
-29124 
-29254 
-29226 
-29176 
-29184 
-29298 
-29288 
-29218 
-29131 
-29294 
-29450 
-29362 
-29254 
-29354 
-29367 
-29316 
-29249 
-29315 
-29391 
-29305 
-29188 
-29266 
-29316 
-29254 
-29190 
-29205 
-29235 
-29248 
-29128 
-29090 
-29235 
-29275 
-29173 
-29097 
-29193 
-29228 
-29193 
-29058 
-29126 
-29205 
-29098 
-29046 
-29099 
-29100 
-29126 
-29014 
-29110 
-29162 
-29107 
-29027 
-29058 
-29155 
-29121 
-29039 
-29017 
-29122 
-29118 
-29046 
-29028 
-29112 
-29103 
-28996 
-28928 
-29055 
-29091 
-28966 
-28878 
-29044 
-29113 
-29062 
-28960 
-28974 
-29060 
-29010 
-28878 
-28923 
-28989 
-28920 
-28869 
-28887 
-28975 
-28973 
-28833 
-28801 
-28898 
-28878 
-28697 
-28683 
-28759 
-28800 
-28695 
-28721 
-28786 
-28796 
-28795 
-28664 
-28712 
-28780 
-28697 
-28632 
-28635 
-28799 
-28789 
-28667 
-28690 
-28786 
-28749 
-28640 
-28651 
-28778 
-28820 
-28740 
-28699 
-28781 
-28853 
-28721 
-28624 
-28622 
-28589 
-28384 
-28117 
-27987 
-27936 
-27734 
-27559 
-27669 
-28025 
-28262 
-28296 
-28467 
-28585 
-28510 
-28457 
-28487 
-28636 
-28640 
-28497 
-28364 
-28542 
-28641 
-28516 
-28431 
-28510 
-28626 
-28536 
-28411 
-28400 
-28553 
-28502 
-28480 
-28468 
-28512 
-28492 
-28402 
-28359 
-28446 
-28435 
-28347 
-28323 
-28416 
-28433 
-28362 
-28259 
-28363 
-28383 
-28299 
-28277 
-28258 
-28240 
-28198 
-28083 
-28058 
-28114 
-28073 
-27981 
-27977 
-28011 
-27990 
-27910 
-27863 
-27999 
-27994 
-27896 
-27841 
-27945 
-28065 
-27958 
-27938 
-28099 
-28211 
-28118 
-28020 
-28074 
-28264 
-28235 
-28131 
-28246 
-28337 
-28282 
-28187 
-28210 
-28272 
-28235 
-28149 
-28120 
-28214 
-28198 
-28121 
-28103 
-28230 
-28269 
-28102 
-28012 
-28151 
-28237 
-28127 
-28060 
-28106 
-28169 
-28146 
-28070 
-27998 
-28118 
-28065 
-27983 
-27989 
-28097 
-28050 
-27968 
-27902 
-28056 
-28074 
-27924 
-27903 
-28046 
-28052 
-27998 
-27932 
-27990 
-28054 
-27965 
-27899 
-27979 
-28011 
-27914 
-27884 
-27933 
-28038 
-27989 
-28019 
-28124 
-28317 
-28425 
-28449 
-28408 
-28643 
-28720 
-28637 
-28658 
-28738 
-28744 
-28695 
-28683 
-28810 
-28933 
-28954 
-29000 
-29052 
-29188 
-29132 
-29031 
-29099 
-29272 
-29219 
-29118 
-29227 
-29309 
-29277 
-29154 
-29117 
-29290 
-29352 
-29278 
-29191 
-29261 
-29317 
-29285 
-29258 
-29288 
-29378 
-29365 
-29296 
-29421 
-29563 
-29531 
-29486 
-29523 
-29636 
-29588 
-29559 
-29601 
-29732 
-29713 
-29708 
-29717 
-29844 
-29915 
-29920 
-29782 
-29706 
-29656 
-29358 
-29062 
-29095 
-29140 
-29244 
-29370 
-29724 
-30041 
-30082 
-30004 
-30052 
-30243 
-30219 
-30124 
-30180 
-30315 
-30289 
-30259 
-30256 
-30327 
-30352 
-30256 
-30193 
-30348 
-30448 
-30290 
-30176 
-30309 
-30439 
-30400 
-30273 
-30336 
-30467 
-30427 
-30332 
-30383 
-30496 
-30513 
-30427 
-30431 
-30555 
-30520 
-30458 
-30489 
-30567 
-30592 
-30515 
-30533 
-30581 
-30637 
-30576 
-30572 
-30708 
-30800 
-30729 
-30701 
-30797 
-30934 
-30915 
-30792 
-30814 
-30981 
-31010 
-30944 
-30954 
-31201 
-31210 
-31186 
-31185 
-31345 
-31405 
-31529 
-31524 
-31575 
-31624 
-31581 
-31494 
-31589 
-31697 
-31639 
-31556 
-31608 
-31671 
-31718 
-31704 
-31690 
-31794 
-31784 
-31770 
-31772 
-31848 
-31865 
-31850 
-31861 
-31956 
-32089 
-32002 
-32011 
-32208 
-32359 
-32339 
-32245 
-32350 
-32475 
-32513 
-32448 
-32492 
-32625 
-32654 
-32572 
-32611 
-32727 
-32715 
-32711 
-32694 
-32812 
-32839 
-32823 
-32753 
-32883 
-32964 
-32983 
-32844 
-32977 
-33125 
-33044 
-33003 
-33069 
-33178 
-33167 
-33170 
-33271 
-33355 
-33365 
-33301 
-33156 
-33180 
-33318 
-33293 
-33311 
-33413 
-33369 
-33376 
-33422 
-33474 
-33557 
-33537 
-33520 
-33569 
-33668 
-33631 
-33525 
-33669 
-33806 
-33768 
-33708 
-33691 
-33803 
-33784 
-33752 
-33779 
-33945 
-33943 
-33875 
-33859 
-33933 
-33980 
-33969 
-33950 
-34152 
-34215 
-34100 
-34102 
-34237 
-34325 
-34282 
-34204 
-34287 
-34422 
-34351 
-34256 
-34328 
-34490 
-34496 
-34373 
-34356 
-34389 
-34302 
-34067 
-33896 
-33823 
-33669 
-33560 
-33678 
-34014 
-34382 
-34499 
-34574 
-34759 
-34807 
-34829 
-34758 
-34814 
-35018 
-35008 
-34919 
-34943 
-35086 
-35147 
-35026 
-35058 
-35169 
-35232 
-35185 
-35177 
-35322 
-35311 
-35247 
-35257 
-35330 
-35392 
-35378 
-35297 
-35401 
-35487 
-35420 
-35342 
-35388 
-35548 
-35505 
-35429 
-35501 
-35695 
-35610 
-35486 
-35535 
-35668 
-35740 
-35632 
-35574 
-35756 
-35716 
-35588 
-35603 
-35673 
-35729 
-35702 
-35687 
-35782 
-35864 
-35819 
-35758 
-35852 
-35943 
-36087 
-36013 
-36063 
-36269 
-36399 
-36306 
-36360 
-36462 
-36509 
-36491 
-36434 
-36588 
-36704 
-36653 
-36575 
-36662 
-36786 
-36776 
-36720 
-36774 
-36885 
-36860 
-36755 
-36780 
-36938 
-36942 
-36872 
-36904 
-37008 
-36996 
-36974 
-37047 
-37151 
-37183 
-37120 
-37096 
-37231 
-37289 
-37252 
-37170 
-37288 
-37449 
-37371 
-37315 
-37375 
-37488 
-37502 
-37414 
-37456 
-37600 
-37594 
-37547 
-37533 
-37663 
-37675 
-37658 
-37665 
-37833 
-37815 
-37692 
-37726 
-37886 
-37984 
-37892 
-37718 
-37907 
-38012 
-37929 
-37906 
-38025 
-38165 
-38167 
-38066 
-38129 
-38256 
-38228 
-38214 
-38196 
-38326 
-38360 
-38276 
-38278 
-38463 
-38440 
-38314 
-38366 
-38428 
-38465 
-38430 
-38341 
-38491 
-38585 
-38490 
-38439 
-38550 
-38696 
-38632 
-38503 
-38614 
-38860 
-38807 
-38702 
-38755 
-38912 
-38911 
-38818 
-38852 
-38960 
-38981 
-38963 
-38911 
-39064 
-39122 
-39109 
-39013 
-39078 
-39260 
-39204 
-39011 
-38909 
-38876 
-38825 
-38500 
-38318 
-38321 
-38304 
-38415 
-38704 
-39061 
-39174 
-39192 
-39178 
-39375 
-39384 
-39363 
-39386 
-39499 
-39566 
-39471 
-39385 
-39502 
-39663 
-39630 
-39516 
-39590 
-39710 
-39657 
-39579 
-39577 
-39716 
-39770 
-39701 
-39670 
-39840 
-39917 
-39798 
-39762 
-39925 
-39910 
-39846 
-39811 
-39952 
-39981 
-39847 
-39746 
-39851 
-39986 
-39921 
-39783 
-39872 
-39995 
-39906 
-39802 
-39862 
-40032 
-39972 
-39849 
-39872 
-39940 
-39988 
-39884 
-39833 
-39993 
-40011 
-39954 
-39864 
-40028 
-40319 
-40283 
-40247 
-40355 
-40457 
-40387 
-40371 
-40497 
-40572 
-40555 
-40538 
-40534 
-40713 
-40674 
-40600 
-40588 
-40664 
-40691 
-40662 
-40630 
-40737 
-40860 
-40734 
-40643 
-40773 
-40813 
-40791 
-40771 
-40788 
-40892 
-40929 
-40802 
-40793 
-40976 
-40988 
-40872 
-40855 
-40957 
-41022 
-40925 
-40900 
-41012 
-41082 
-41004 
-40974 
-41127 
-41193 
-41133 
-41049 
-41145 
-41198 
-41165 
-41116 
-41041 
-41183 
-41154 
-41080 
-41095 
-41231 
-41271 
-41158 
-41255 
-41393 
-41344 
-41276 
-41281 
-41387 
-41421 
-41311 
-41259 
-41420 
-41471 
-41384 
-41366 
-41435 
-41479 
-41467 
-41406 
-41471 
-41514 
-41479 
-41456 
-41533 
-41618 
-41594 
-41474 
-41514 
-41667 
-41721 
-41625 
-41580 
-41793 
-41876 
-41754 
-41698 
-41880 
-41934 
-41874 
-41781 
-41882 
-41930 
-41890 
-41793 
-41879 
-41915 
-41770 
-41525 
-41465 
-41398 
-41175 
-40974 
-40917 
-41175 
-41405 
-41514 
-41720 
-41976 
-42025 
-41926 
-41918 
-42027 
-42091 
-42018 
-41962 
-42086 
-42108 
-42058 
-42035 
-42065 
-42155 
-42121 
-42020 
-42064 
-42262 
-42233 
-42121 
-42031 
-42222 
-42275 
-42127 
-42092 
-42195 
-42178 
-42125 
-42133 
-42256 
-42283 
-42191 
-42117 
-42202 
-42316 
-42271 
-42156 
-42231 
-42331 
-42266 
-42157 
-42119 
-42211 
-42260 
-42157 
-42146 
-42239 
-42216 
-42162 
-42174 
-42244 
-42178 
-42144 
-42158 
-42303 
-42438 
-42459 
-42414 
-42458 
-42551 
-42510 
-42460 
-42583 
-42748 
-42739 
-42653 
-42704 
-42779 
-42782 
-42726 
-42732 
-42792 
-42827 
-42743 
-42742 
-42895 
-42943 
-42838 
-42808 
-42967 
-42997 
-42960 
-42925 
-43014 
-43042 
-42992 
-42936 
-42936 
-43024 
-43053 
-42955 
-42953 
-43038 
-43064 
-43029 
-42958 
-43134 
-43119 
-43019 
-42976 
-43115 
-43140 
-43012 
-43059 
-43142 
-43202 
-43135 
-43025 
-43093 
-43185 
-43153 
-43094 
-43169 
-43301 
-43325 
-43205 
-43221 
-43232 
-43209 
-43218 
-43233 
-43318 
-43334 
-43261 
-43256 
-43365 
-43355 
-43293 
-43264 
-43363 
-43406 
-43356 
-43294 
-43340 
-43417 
-43315 
-43313 
-43389 
-43451 
-43396 
-43320 
-43335 
-43439 
-43440 
-43384 
-43353 
-43459 
-43468 
-43501 
-43452 
-43540 
-43562 
-43488 
-43494 
-43527 
-43636 
-43626 
-43539 
-43640 
-43653 
-43660 
-43630 
-43680 
-43778 
-43722 
-43717 
-43681 
-43860 
-43882 
-43757 
-43663 
-43682 
-43553 
-43281 
-43003 
-42922 
-42915 
-42851 
-43009 
-43362 
-43590 
-43784 
-43813 
-43802 
-43912 
-43959 
-43909 
-44004 
-44063 
-44049 
-43956 
-43997 
-44054 
-44046 
-44091 
-44095 
-44178 
-44204 
-44153 
-44143 
-44252 
-44223 
-44183 
-44162 
-44250 
-44329 
-44290 
-44191 
-44280 
-44308 
-44346 
-44317 
-44317 
-44402 
-44343 
-44265 
-44321 
-44460 
-44448 
-44332 
-44447 
-44513 
-44480 
-44435 
-44389 
-44493 
-44519 
-44427 
-44516 
-44585 
-44589 
-44538 
-44495 
-44588 
-44644 
-44597 
-44630 
-44713 
-44817 
-44846 
-44848 
-44914 
-45136 
-45185 
-45079 
-45115 
-45268 
-45345 
-45297 
-45252 
-45369 
-45480 
-45367 
-45347 
-45452 
-45582 
-45563 
-45529 
-45585 
-45690 
-45696 
-45641 
-45696 
-45773 
-45866 
-45845 
-45807 
-45875 
-45928 
-45936 
-45896 
-46008 
-46064 
-46056 
-45978 
-46071 
-46173 
-46184 
-46134 
-46207 
-46219 
-46292 
-46336 
-46385 
-46466 
-46447 
-46429 
-46446 
-46598 
-46600 
-46577 
-46568 
-46667 
-46696 
-46704 
-46703 
-46785 
-46845 
-46859 
-46680 
-46668 
-46815 
-46861 
-46881 
-46968 
-47009 
-47031 
-47026 
-47071 
-47161 
-47159 
-47124 
-47239 
-47340 
-47360 
-47246 
-47300 
-47465 
-47486 
-47446 
-47466 
-47547 
-47554 
-47536 
-47535 
-47691 
-47688 
-47643 
-47630 
-47712 
-47757 
-47727 
-47711 
-47854 
-47979 
-47943 
-47891 
-47960 
-48046 
-48077 
-48104 
-48075 
-48189 
-48259 
-48236 
-48210 
-48311 
-48347 
-48262 
-48301 
-48444 
-48504 
-48465 
-48460 
-48509 
-48570 
-48577 
-48450 
-48423 
-48368 
-48147 
-47939 
-47890 
-47736 
-47729 
-47917 
-48222 
-48571 
-48684 
-48762 
-48797 
-48904 
-48977 
-48945 
-49012 
-49066 
-49185 
-49135 
-49087 
-49196 
-49306 
-49275 
-49163 
-49241 
-49352 
-49357 
-49300 
-49334 
-49437 
-49393 
-49405 
-49439 
-49515 
-49526 
-49541 
-49508 
-49663 
-49732 
-49620 
-49698 
-49758 
-49754 
-49746 
-49691 
-49730 
-49817 
-49766 
-49700 
-49751 
-49864 
-49869 
-49759 
-49769 
-49862 
-49810 
-49763 
-49807 
-49893 
-49839 
-49820 
-49950 
-50137 
-50097 
-50077 
-50030 
-50156 
-50282 
-50255 
-50190 
-50328 
-50425 
-50408 
-50388 
-50447 
-50549 
-50553 
-50540 
-50617 
-50652 
-50624 
-50563 
-50639 
-50713 
-50694 
-50674 
-50704 
-50817 
-50797 
-50766 
-50748 
-50814 
-50854 
-50808 
-50797 
-50836 
-50918 
-50878 
-50836 
-50855 
-51002 
-51023 
-50907 
-50958 
-51089 
-51103 
-51064 
-51017 
-51140 
-51116 
-51082 
-51022 
-51170 
-51220 
-51075 
-51060 
-51174 
-51184 
-51136 
-51137 
-51205 
-51227 
-51190 
-51124 
-51236 
-51277 
-51246 
-51258 
-51281 
-51382 
-51359 
-51261 
-51313 
-51419 
-51406 
-51349 
-51331 
-51464 
-51486 
-51476 
-51383 
-51491 
-51602 
-51494 
-51462 
-51485 
-51549 
-51493 
-51488 
-51515 
-51571 
-51582 
-51559 
-51565 
-51619 
-51610 
-51584 
-51582 
-51705 
-51691 
-51628 
-51593 
-51623 
-51641 
-51635 
-51582 
-51638 
-51721 
-51680 
-51667 
-51682 
-51802 
-51793 
-51729 
-51735 
-51821 
-51839 
-51814 
-51809 
-51915 
-51936 
-51820 
-51821 
-51908 
-51945 
-51881 
-51852 
-51989 
-52000 
-51920 
-51790 
-51673 
-51595 
-51428 
-51250 
-51088 
-51032 
-51089 
-51250 
-51467 
-51729 
-51819 
-51813 
-51887 
-51964 
-52069 
-52061 
-52024 
-52096 
-52072 
-52047 
-52042 
-52079 
-52067 
-52029 
-51966 
-52038 
-52079 
-52063 
-52017 
-52072 
-52170 
-52121 
-52072 
-52106 
-52207 
-52154 
-52145 
-52083 
-52119 
-52083 
-52118 
-52035 
-52086 
-52127 
-52109 
-52018 
-52107 
-52182 
-52067 
-52040 
-52068 
-52108 
-52060 
-51966 
-51976 
-52072 
-52009 
-51963 
-51938 
-51978 
-51979 
-51941 
-51889 
-51974 
-52022 
-52040 
-52088 
-52142 
-52122 
-52167 
-52143 
-52258 
-52305 
-52302 
-52246 
-52317 
-52397 
-52391 
-52325 
-52349 
-52458 
-52365 
-52392 
-52437 
-52517 
-52502 
-52432 
-52398 
-52514 
-52509 
-52439 
-52426 
-52467 
-52561 
-52473 
-52410 
-52495 
-52510 
-52473 
-52491 
-52509 
-52534 
-52497 
-52444 
-52447 
-52530 
-52446 
-52386 
-52458 
-52508 
-52443 
-52424 
-52466 
-52555 
-52523 
-52475 
-52432 
-52456 
-52596 
-52481 
-52375 
-52360 
-52458 
-52429 
-52364 
-52382 
-52476 
-52415 
-52342 
-52344 
-52513 
-52450 
-52368 
-52455 
-52460 
-52426 
-52390 
-52382 
-52482 
-52529 
-52425 
-52422 
-52448 
-52500 
-52429 
-52327 
-52447 
-52466 
-52447 
-52405 
-52467 
-52537 
-52521 
-52433 
-52422 
-52469 
-52428 
-52459 
-52423 
-52440 
-52427 
-52388 
-52360 
-52481 
-52499 
-52303 
-52396 
-52468 
-52418 
-52363 
-52327 
-52372 
-52487 
-52398 
-52324 
-52432 
-52466 
-52472 
-52448 
-52399 
-52484 
-52447 
-52306 
-52343 
-52427 
-52424 
-52318 
-52211 
-52288 
-52266 
-52096 
-51870 
-51733 
-51601 
-51417 
-51274 
-51545 
-51773 
-51935 
-52058 
-52196 
-52309 
-52278 
-52254 
-52359 
-52413 
-52406 
-52287 
-52255 
-52390 
-52394 
-52349 
-52368 
-52410 
-52415 
-52348 
-52338 
-52410 
-52423 
-52334 
-52322 
-52359 
-52379 
-52335 
-52264 
-52301 
-52387 
-52293 
-52222 
-52313 
-52301 
-52291 
-52261 
-52215 
-52271 
-52302 
-52272 
-52187 
-52258 
-52277 
-52239 
-52153 
-52165 
-52218 
-52178 
-52083 
-52162 
-52223 
-52126 
-52067 
-52087 
-52167 
-52283 
-52222 
-52185 
-52299 
-52276 
-52226 
-52228 
-52376 
-52341 
-52381 
-52472 
-52499 
-52538 
-52450 
-52399 
-52485 
-52467 
-52402 
-52470 
-52492 
-52509 
-52460 
-52384 
-52335 
-52481 
-52454 
-52415 
-52388 
-52446 
-52395 
-52375 
-52340 
-52343 
-52364 
-52304 
-52272 
-52285 
-52343 
-52266 
-52224 
-52245 
-52280 
-52304 
-52219 
-52237 
-52300 
-52289 
-52190 
-52264 
-52332 
-52273 
-52222 
-52234 
-52274 
-52207 
-52112 
-52110 
-52225 
-52272 
-52154 
-52051 
-52069 
-52051 
-52011 
-51943 
-52017 
-52131 
-52079 
-51993 
-52047 
-52159 
-52141 
-52027 
-52042 
-52135 
-52051 
-52016 
-51984 
-52022 
-52017 
-51956 
-51991 
-52038 
-52031 
-52001 
-51976 
-52006 
-52025 
-52032 
-51968 
-52019 
-52030 
-51968 
-51886 
-51923 
-51977 
-51933 
-51869 
-51872 
-51928 
-51904 
-51895 
-51863 
-51923 
-51875 
-51813 
-51863 
-51959 
-51980 
-51884 
-51834 
-51877 
-51874 
-51800 
-51730 
-51748 
-51778 
-51743 
-51669 
-51684 
-51779 
-51765 
-51689 
-51719 
-51810 
-51745 
-51688 
-51746 
-51824 
-51781 
-51745 
-51628 
-51690 
-51653 
-51603 
-51627 
-51628 
-51705 
-51644 
-51545 
-51576 
-51611 
-51580 
-51334 
-51285 
-51226 
-50894 
-50643 
-50472 
-50465 
-50584 
-50790 
-51042 
-51297 
-51428 
-51342 
-51304 
-51442 
-51482 
-51444 
-51410 
-51480 
-51529 
-51430 
-51366 
-51428 
-51531 
-51463 
-51336 
-51396 
-51483 
-51358 
-51273 
-51288 
-51372 
-51340 
-51218 
-51227 
-51298 
-51223 
-51124 
-51229 
-51266 
-51208 
-51186 
-51164 
-51172 
-51221 
-51193 
-51060 
-51029 
-51146 
-51056 
-50990 
-50954 
-51049 
-50977 
-50880 
-50848 
-50901 
-50853 
-50796 
-50720 
-50771 
-50786 
-50861 
-50797 
-50890 
-50860 
-50812 
-50741 
-50852 
-50903 
-50816 
-50772 
-50838 
-50949 
-50906 
-50837 
-50861 
-50971 
-50913 
-50916 
-50896 
-50904 
-50931 
-50863 
-50889 
-50951 
-50967 
-50879 
-50789 
-50833 
-50875 
-50816 
-50743 
-50796 
-50835 
-50770 
-50724 
-50704 
-50742 
-50698 
-50602 
-50592 
-50692 
-50703 
-50645 
-50629 
-50649 
-50628 
-50548 
-50508 
-50589 
-50613 
-50497 
-50424 
-50521 
-50542 
-50491 
-50460 
-50453 
-50471 
-50488 
-50392 
-50439 
-50509 
-50458 
-50276 
-50179 
-50314 
-50332 
-50268 
-50235 
-50314 
-50269 
-50253 
-50239 
-50334 
-50304 
-50268 
-50185 
-50210 
-50284 
-50242 
-50203 
-50235 
-50314 
-50239 
-50164 
-50157 
-50150 
-50192 
-50161 
-50162 
-50175 
-50140 
-50148 
-50111 
-50096 
-50177 
-50115 
-50047 
-50099 
-50140 
-50090 
-50056 
-50118 
-50146 
-50091 
-50054 
-50073 
-50193 
-50036 
-49959 
-49984 
-50076 
-50054 
-49957 
-49910 
-50042 
-50015 
-49877 
-49863 
-50018 
-49943 
-49954 
-49859 
-49930 
-49935 
-49862 
-49857 
-49852 
-49878 
-49822 
-49782 
-49832 
-49883 
-49857 
-49820 
-49903 
-49909 
-49885 
-49831 
-49831 
-49923 
-49899 
-49779 
-49788 
-49860 
-49825 
-49739 
-49657 
-49715 
-49737 
-49576 
-49401 
-49297 
-49172 
-48887 
-48663 
-48633 
-48794 
-48999 
-49157 
-49324 
-49558 
-49587 
-49541 
-49550 
-49601 
-49602 
-49499 
-49472 
-49658 
-49627 
-49594 
-49566 
-49624 
-49606 
-49571 
-49559 
-49592 
-49620 
-49560 
-49473 
-49491 
-49570 
-49509 
-49461 
-49421 
-49502 
-49595 
-49451 
-49377 
-49460 
-49482 
-49391 
-49366 
-49461 
-49421 
-49283 
-49309 
-49424 
-49380 
-49296 
-49173 
-49266 
-49303 
-49296 
-49192 
-49207 
-49201 
-49135 
-49052 
-49065 
-49118 
-49103 
-48995 
-48989 
-49105 
-49148 
-49078 
-49037 
-49155 
-49224 
-49208 
-49207 
-49333 
-49412 
-49327 
-49315 
-49379 
-49418 
-49428 
-49455 
-49442 
-49524 
-49455 
-49400 
-49458 
-49497 
-49462 
-49355 
-49297 
-49410 
-49393 
-49317 
-49304 
-49396 
-49426 
-49323 
-49256 
-49350 
-49364 
-49301 
-49144 
-49274 
-49394 
-49307 
-49211 
-49235 
-49239 
-49232 
-49241 
-49231 
-49300 
-49321 
-49250 
-49220 
-49322 
-49334 
-49291 
-49181 
-49273 
-49350 
-49279 
-49234 
-49292 
-49355 
-49325 
-49175 
-49213 
-49404 
-49340 
-49211 
-49191 
-49273 
-49297 
-49242 
-49159 
-49304 
-49334 
-49220 
-49155 
-49189 
-49358 
-49272 
-49155 
-49236 
-49344 
-49236 
-49118 
-49215 
-49243 
-49185 
-49206 
-49219 
-49268 
-49225 
-49133 
-49162 
-49280 
-49277 
-49202 
-49190 
-49317 
-49252 
-49109 
-49144 
-49353 
-49299 
-49181 
-49172 
-49218 
-49262 
-49208 
-49064 
-49152 
-49277 
-49228 
-49081 
-49222 
-49356 
-49266 
-49175 
-49175 
-49355 
-49337 
-49267 
-49192 
-49327 
-49323 
-49213 
-49178 
-49300 
-49360 
-49227 
-49147 
-49289 
-49357 
-49290 
-49138 
-49163 
-49169 
-49043 
-48801 
-48602 
-48588 
-48430 
-48287 
-48412 
-48724 
-48885 
-48983 
-49087 
-49228 
-49233 
-49150 
-49081 
-49267 
-49261 
-49231 
-49175 
-49193 
-49230 
-49198 
-49079 
-49099 
-49198 
-49148 
-49029 
-49111 
-49166 
-49148 
-49119 
-49114 
-49189 
-49210 
-49113 
-48980 
-49120 
-49204 
-49053 
-48949 
-49109 
-49086 
-49039 
-48951 
-49025 
-49104 
-48991 
-48951 
-49001 
-49057 
-48973 
-48826 
-48919 
-49035 
-48918 
-48819 
-48738 
-48808 
-48854 
-48760 
-48743 
-48774 
-48852 
-48765 
-48737 
-48848 
-48908 
-48876 
-48822 
-48913 
-49024 
-49024 
-48966 
-49056 
-49162 
-49126 
-49005 
-49060 
-49187 
-49182 
-49130 
-49068 
-49183 
-49180 
-49061 
-49115 
-49149 
-49159 
-49116 
-49075 
-49164 
-49153 
-49010 
-49047 
-49066 
-49183 
-49233 
-49087 
-49102 
-49170 
-49117 
-49083 
-49040 
-49166 
-49126 
-49056 
-49041 
-49141 
-49151 
-49108 
-49139 
-49211 
-49238 
-49144 
-49029 
-49167 
-49224 
-49125 
-49017 
-49100 
-49241 
-49102 
-48998 
-49082 
-49169 
-49134 
-49090 
-49132 
-49159 
-49151 
-49050 
-49068 
-49173 
-49201 
-49082 
-49086 
-49155 
-49133 
-49045 
-49053 
-49162 
-49247 
-49134 
-49038 
-49152 
-49244 
-49133 
-49052 
-49135 
-49238 
-49123 
-49025 
-49053 
-49141 
-49133 
-49084 
-49088 
-49163 
-49105 
-49039 
-49049 
-49157 
-49097 
-49049 
-49050 
-49106 
-49102 
-49068 
-49003 
-49007 
-49086 
-49013 
-48907 
-48961 
-49092 
-49056 
-48986 
-48994 
-49080 
-49035 
-48920 
-49000 
-49102 
-49096 
-48943 
-48948 
-49068 
-49089 
-49019 
-48913 
-49041 
-49009 
-48887 
-48851 
-48803 
-48707 
-48403 
-48143 
-47998 
-47987 
-48028 
-48075 
-48293 
-48620 
-48796 
-48833 
-48737 
-48887 
-48897 
-48674 
-48640 
-48766 
-48803 
-48732 
-48733 
-48822 
-48885 
-48832 
-48768 
-48884 
-48942 
-48986 
-48799 
-48792 
-48894 
-48950 
-48790 
-48788 
-48825 
-48806 
-48742 
-48683 
-48854 
-48819 
-48712 
-48646 
-48758 
-48818 
-48738 
-48619 
-48718 
-48781 
-48721 
-48563 
-48648 
-48675 
-48619 
-48498 
-48452 
-48589 
-48531 
-48406 
-48443 
-48606 
-48601 
-48497 
-48421 
-48558 
-48588 
-48465 
-48456 
-48620 
-48653 
-48621 
-48583 
-48679 
-48774 
-48681 
-48675 
-48798 
-48893 
-48829 
-48753 
-48770 
-48912 
-48902 
-48770 
-48745 
-48844 
-48805 
-48742 
-48661 
-48786 
-48840 
-48717 
-48679 
-48748 
-48759 
-48725 
-48673 
-48682 
-48731 
-48688 
-48568 
-48634 
-48746 
-48743 
-48621 
-48586 
-48704 
-48663 
-48599 
-48632 
-48763 
-48709 
-48631 
-48558 
-48624 
-48650 
-48594 
-48560 
-48665 
-48684 
-48624 
-48541 
-48568 
-48551 
-48471 
-48629 
-48630 
-48651 
-48580 
-48495 
-48526 
-48571 
-48572 
-48507 
-48441 
-48504 
-48487 
-48410 
-48379 
-48533 
-48577 
-48481 
-48471 
-48516 
-48520 
-48497 
-48355 
-48438 
-48594 
-48568 
-48466 
-48474 
-48562 
-48535 
-48444 
-48447 
-48527 
-48528 
-48409 
-48391 
-48491 
-48487 
-48391 
-48441 
-48516 
-48473 
-48407 
-48364 
-48328 
-48336 
-48340 
-48289 
-48181 
-48277 
-48374 
-48382 
-48257 
-48263 
-48382 
-48371 
-48296 
-48302 
-48403 
-48350 
-48274 
-48343 
-48360 
-48352 
-48399 
-48344 
-48378 
-48458 
-48341 
-48273 
-48343 
-48421 
-48335 
-48236 
-48265 
-48397 
-48350 
-48298 
-48288 
-48408 
-48424 
-48318 
-48329 
-48455 
-48394 
-48342 
-48373 
-48427 
-48424 
-48390 
-48339 
-48388 
-48441 
-48360 
-48349 
-48433 
-48477 
-48416 
-48339 
-48402 
-48493 
-48511 
-48431 
-48456 
-48528 
-48581 
-48515 
-48476 
-48593 
-48545 
-48451 
-48400 
-48462 
-48482 
-48461 
-48424 
-48456 
-48519 
-48508 
-48450 
-48556 
-48586 
-48566 
-48477 
-48577 
-48611 
-48587 
-48534 
-48522 
-48618 
-48603 
-48532 
-48501 
-48622 
-48604 
-48589 
-48527 
-48592 
-48547 
-48397 
-48235 
-48148 
-47931 
-47671 
-47524 
-47642 
-47903 
-48053 
-48199 
-48497 
-48552 
-48537 
-48496 
-48544 
-48640 
-48638 
-48551 
-48586 
-48707 
-48716 
-48586 
-48502 
-48653 
-48751 
-48636 
-48599 
-48755 
-48751 
-48673 
-48655 
-48671 
-48685 
-48690 
-48616 
-48617 
-48677 
-48662 
-48584 
-48721 
-48783 
-48741 
-48676 
-48722 
-48726 
-48647 
-48654 
-48710 
-48746 
-48771 
-48672 
-48655 
-48793 
-48710 
-48642 
-48629 
-48693 
-48693 
-48590 
-48569 
-48670 
-48728 
-48660 
-48556 
-48559 
-48754 
-48637 
-48589 
-48622 
-48673 
-48627 
-48656 
-48655 
-48746 
-48745 
-48672 
-48624 
-48749 
-48796 
-48763 
-48702 
-48721 
-48776 
-48782 
-48702 
-48737 
-48761 
-48703 
-48630 
-48618 
-48573 
-48363 
-48108 
-47988 
-47952 
-47878 
-47896 
-48074 
-48356 
-48485 
-48501 
-48585 
-48606 
-48596 
-48552 
-48570 
-48633 
-48660 
-48628 
-48613 
-48654 
-48697 
-48656 
-48638 
-48635 
-48730 
-48573 
-48579 
-48613 
-48705 
-48704 
-48618 
-48597 
-48642 
-48581 
-48581 
-48553 
-48583 
-48531 
-48584 
-48547 
-48582 
-48608 
-48537 
-48540 
-48550 
-48580 
-48544 
-48479 
-48446 
-48518 
-48479 
-48364 
-48343 
-48421 
-48348 
-48248 
-48240 
-48239 
-48305 
-48257 
-48180 
-48244 
-48229 
-48140 
-48110 
-48199 
-48298 
-48293 
-48302 
-48393 
-48489 
-48453 
-48428 
-48419 
-48500 
-48563 
-48547 
-48558 
-48624 
-48600 
-48521 
-48622 
-48708 
-48645 
-48543 
-48544 
-48616 
-48659 
-48606 
-48544 
-48548 
-48650 
-48628 
-48573 
-48632 
-48660 
-48602 
-48487 
-48499 
-48654 
-48650 
-48536 
-48493 
-48631 
-48613 
-48577 
-48506 
-48569 
-48625 
-48553 
-48504 
-48578 
-48623 
-48500 
-48486 
-48454 
-48506 
-48579 
-48503 
-48556 
-48661 
-48607 
-48526 
-48604 
-48711 
-48582 
-48509 
-48476 
-48615 
-48579 
-48501 
-48540 
-48541 
-48541 
-48585 
-48544 
-48609 
-48726 
-48565 
-48482 
-48533 
-48609 
-48560 
-48479 
-48480 
-48573 
-48533 
-48461 
-48430 
-48511 
-48500 
-48484 
-48490 
-48557 
-48489 
-48437 
-48470 
-48556 
-48600 
-48485 
-48517 
-48572 
-48518 
-48481 
-48459 
-48514 
-48506 
-48487 
-48476 
-48514 
-48557 
-48548 
-48522 
-48531 
-48543 
-48523 
-48299 
-48131 
-48053 
-47888 
-47618 
-47475 
-47565 
-47727 
-48021 
-48139 
-48313 
-48401 
-48364 
-48282 
-48396 
-48496 
-48416 
-48302 
-48419 
-48465 
-48428 
-48341 
-48354 
-48471 
-48481 
-48409 
-48348 
-48451 
-48408 
-48350 
-48365 
-48365 
-48401 
-48404 
-48368 
-48359 
-48419 
-48310 
-48267 
-48338 
-48361 
-48317 
-48279 
-48288 
-48329 
-48318 
-48240 
-48212 
-48343 
-48306 
-48219 
-48184 
-48219 
-48206 
-48126 
-48084 
-48199 
-48208 
-48066 
-48014 
-48091 
-48132 
-48059 
-48010 
-48087 
-48169 
-48153 
-48094 
-48178 
-48256 
-48257 
-48247 
-48269 
-48377 
-48409 
-48386 
-48353 
-48427 
-48423 
-48395 
-48327 
-48431 
-48461 
-48415 
-48379 
-48503 
-48551 
-48449 
-48425 
-48460 
-48482 
-48464 
-48344 
-48380 
-48587 
-48523 
-48387 
-48332 
-48473 
-48513 
-48399 
-48318 
-48502 
-48503 
-48375 
-48338 
-48406 
-48459 
-48369 
-48381 
-48452 
-48443 
-48400 
-48351 
-48404 
-48475 
-48404 
-48318 
-48351 
-48481 
-48385 
-48360 
-48438 
-48461 
-48414 
-48289 
-48331 
-48466 
-48452 
-48370 
-48298 
-48384 
-48419 
-48379 
-48331 
-48315 
-48502 
-48510 
-48401 
-48428 
-48481 
-48433 
-48394 
-48388 
-48395 
-48442 
-48456 
-48420 
-48491 
-48472 
-48375 
-48346 
-48395 
-48455 
-48409 
-48325 
-48404 
-48418 
-48458 
-48395 
-48387 
-48433 
-48457 
-48445 
-48483 
-48606 
-48505 
-48563 
-48593 
-48600 
-48594 
-48486 
-48551 
-48628 
-48616 
-48523 
-48458 
-48528 
-48589 
-48503 
-48435 
-48375 
-48313 
-48141 
-47858 
-47692 
-47611 
-47526 
-47558 
-47867 
-48161 
-48348 
-48368 
-48436 
-48585 
-48531 
-48489 
-48492 
-48591 
-48558 
-48462 
-48498 
-48579 
-48573 
-48545 
-48453 
-48523 
-48606 
-48616 
-48547 
-48551 
-48542 
-48620 
-48506 
-48513 
-48596 
-48571 
-48485 
-48439 
-48548 
-48606 
-48533 
-48516 
-48569 
-48597 
-48552 
-48497 
-48533 
-48584 
-48585 
-48481 
-48506 
-48539 
-48457 
-48353 
-48347 
-48411 
-48394 
-48328 
-48333 
-48374 
-48385 
-48328 
-48327 
-48399 
-48428 
-48342 
-48350 
-48524 
-48503 
-48465 
-48512 
-48565 
-48633 
-48657 
-48599 
-48701 
-48781 
-48717 
-48665 
-48657 
-48772 
-48765 
-48723 
-48736 
-48832 
-48750 
-48781 
-48734 
-48830 
-48849 
-48779 
-48760 
-48855 
-48906 
-48803 
-48795 
-48884 
-48903 
-48860 
-48852 
-48850 
-48879 
-48834 
-48754 
-48773 
-48856 
-48815 
-48862 
-48816 
-48915 
-48916 
-48854 
-48808 
-48811 
-48886 
-48904 
-48842 
-48945 
-48996 
-48952 
-48893 
-48907 
-48957 
-48922 
-48841 
-48893 
-48981 
-48914 
-48842 
-48957 
-49051 
-48983 
-48906 
-48931 
-49004 
-48992 
-48927 
-48873 
-48972 
-49019 
-48926 
-48930 
-49035 
-49049 
-48947 
-48854 
-48931 
-48991 
-48946 
-48894 
-48960 
-49075 
-49016 
-48951 
-48993 
-49087 
-49047 
-48987 
-48950 
-49085 
-49080 
-49020 
-48966 
-49014 
-49058 
-49007 
-48966 
-49032 
-49069 
-48981 
-48953 
-49031 
-49005 
-48994 
-49016 
-49071 
-49136 
-49168 
-49092 
-49067 
-49097 
-49158 
-49122 
-49107 
-49187 
-49146 
-49111 
-49110 
-49168 
-49240 
-49160 
-49125 
-49214 
-49127 
-48981 
-48829 
-48717 
-48578 
-48324 
-48144 
-48166 
-48452 
-48679 
-48804 
-48903 
-49082 
-49130 
-49080 
-49068 
-49252 
-49263 
-49119 
-49116 
-49321 
-49286 
-49205 
-49146 
-49224 
-49245 
-49204 
-49198 
-49236 
-49211 
-49186 
-49120 
-49166 
-49236 
-49169 
-49116 
-49108 
-49218 
-49259 
-49212 
-49165 
-49235 
-49295 
-49193 
-49177 
-49210 
-49230 
-49203 
-49151 
-49173 
-49166 
-49121 
-49036 
-49100 
-49164 
-49094 
-48965 
-48998 
-49099 
-49056 
-48941 
-48937 
-49066 
-49041 
-48918 
-49009 
-49142 
-49151 
-49095 
-49094 
-49259 
-49291 
-49284 
-49279 
-49373 
-49440 
-49387 
-49355 
-49419 
-49507 
-49488 
-49414 
-49441 
-49573 
-49530 
-49387 
-49456 
-49610 
-49597 
-49515 
-49477 
-49556 
-49591 
-49512 
-49496 
-49594 
-49629 
-49580 
-49567 
-49633 
-49657 
-49528 
-49552 
-49621 
-49726 
-49657 
-49548 
-49578 
-49644 
-49677 
-49597 
-49559 
-49665 
-49663 
-49592 
-49576 
-49631 
-49653 
-49563 
-49558 
-49678 
-49709 
-49660 
-49606 
-49657 
-49718 
-49628 
-49629 
-49681 
-49775 
-49764 
-49639 
-49710 
-49794 
-49824 
-49749 
-49715 
-49809 
-49817 
-49764 
-49722 
-49834 
-49851 
-49803 
-49779 
-49857 
-49935 
-49838 
-49760 
-49861 
-49941 
-49878 
-49775 
-49901 
-49945 
-49917 
-49836 
-49779 
-49931 
-49926 
-49858 
-49891 
-49994 
-49952 
-49862 
-49899 
-49988 
-50032 
-49975 
-49900 
-50025 
-50070 
-50057 
-49975 
-50025 
-50076 
-50049 
-49987 
-50035 
-50131 
-50185 
-50114 
-50032 
-50099 
-49934 
-49709 
-49547 
-49484 
-49356 
-49209 
-49226 
-49482 
-49740 
-49883 
-50022 
-50100 
-50124 
-50077 
-50028 
-50175 
-50264 
-50215 
-50090 
-50178 
-50245 
-50182 
-50140 
-50157 
-50232 
-50260 
-50168 
-50127 
-50244 
-50288 
-50200 
-50171 
-50257 
-50273 
-50229 
-50171 
-50261 
-50315 
-50245 
-50210 
-50249 
-50334 
-50255 
-50173 
-50186 
-50310 
-50265 
-50202 
-50258 
-50385 
-50306 
-50189 
-50181 
-50204 
-50204 
-50153 
-50064 
-50097 
-50206 
-50117 
-50113 
-50143 
-50191 
-50170 
-50122 
-50157 
-50248 
-50288 
-50284 
-50345 
-50479 
-50468 
-50433 
-50414 
-50589 
-50630 
-50552 
-50523 
-50656 
-50722 
-50629 
-50617 
