2589.293132936136,2506.5916784515,2316.3559813923816,2420.33629659847,2629.548624700144,2616.6516681494318,2346.1955602402163,2377.845630388931,2618.909194339418,2659.0752791256045,2403.6171917459,2300.1286149178286,2571.03175771615,2672.866305454529,2477.266189726137,2373.1294123088614,2595.7304353392647,2748.6610709024753,2544.8355132145302,2521.813216425564,3144.108133805768,3258.414954950208,3034.986917374959,2767.7494606673076,2842.448990636944,3021.084132323758,2929.464331801454,2673.581561277099,2719.514396132755,2948.686832033018,2956.375832125644,2659.7011279703534,2655.387241290479,2914.7792356943173,2901.435244254499,2642.490284739767,2608.783854101164,2811.93885945545,2905.86088965665,2661.1763431044037,2503.484785972212,2686.880849228007,2896.76372966334,2679.772994491219,2489.939628832296,2658.248264580758,2861.5597321462315,2734.9147480624615,2480.686006627799,2601.8324615755632,2864.7783833477956,2840.996127247349,2678.72246250182,2823.6511735500308,3143.392877983198,3175.8699626767593,2923.7869887098063,2940.8413697292053,3115.5649561363407,2895.959066862949,2449.9970614906624,2277.6427599957897,2526.4847310167233,2717.6144978540538,2572.3728623834686,2472.7958408350755,2656.8624564245292,2853.8483803091503,2678.76716599073,2470.717128600732,2661.9586541603394,2859.5480751452537,2753.310233749179,2495.5499166905784,2567.947216981318,2808.31787685369,2805.054522163215,2546.176617881849,2560.9511209668067,2825.9757549733827,2855.569464632209,2595.5739731280773,2552.099830162505,2786.770795198774,2869.874581083606,2642.065601595116,2526.551786250089,2762.809725142685,2927.1397503781022,2679.393014835479,2506.0328848401173,2731.2937654607017,2952.531332079331,2771.6610159469865,2563.476868090256,2730.578509638132,2946.5187128208536,2827.540377085254,2610.2814209796693,2701.4094831239563,2979.219314958968,2934.113494648158,2645.5301219856888,2697.8555557555624,2949.5585500667753,2972.759660811384,2720.095541488593,2655.9236831574062,2921.4624072864544,3009.9753153294705,2763.4355739874336,2689.451299840367,2926.4915497888983,3062.948949688548,2811.1118449106034,2645.5301219856888,2844.281833682279,3032.5058737404197,2815.2916211237457,2533.4137717978683,2219.148244756251,2324.112036718373,2286.762271733555,2069.413908650149,2195.477747378081,2438.2623956516263,2430.886319981375,2202.183270714673,2244.986861346586,2498.3438847474918,2507.2622307851593,2288.282190356516,2278.805050707466,2512.1349110764163,2562.135763422938,2374.537572209546,2284.5270972880244,2545.9307486928406,2733.8195125841517,2561.040527944628,2352.6105108988895,2511.665524442855,2747.0070418127825,2598.1444237404376,2346.7767055960544,2518.0134198681617,2766.900094378006,2672.4639740543334,2383.3218077804813,2472.01352977914,2737.775771352741,2767.3918327560227,2484.619913651933,2448.72301205671,2734.735934106819,2768.285902534235,2540.9239579348514,2473.622855379922,2735.719410862853,2836.615185334109,2564.706214035298,2439.5364450855786,2691.440605096889,2843.0301359927817,2638.71283992682,2448.6783085677994,2799.60069651612,3435.0831431249553,3183.9836459140356,2873.2943979852676,2920.7695032083398,3113.128615990712,2978.057024247292,2684.355102104557,2767.324777522657,3025.59918470373,2978.7499283254065,2665.28906408418,2706.5503843486767,2974.2348759454344,3035.568062730797,2762.5415042092213,2669.3347298305907,2909.7053897029627,3032.5729289737856,2760.8204198861627,2568.908341992896,2795.666789491986,2974.3242829232554,2746.6047104125873,2582.095871221527,2777.2266003163577,2950.2291024004344,2793.5880772576425,2549.6411382724214,2702.258849413258,2924.8375206992055,2837.4869033678656,2578.8995717644184,2666.965444918328,2928.7043724899736,2896.1378808185914,2708.092654716093,2800.539469783243,3180.161497612178,3309.779263708504,3094.911944259637,3014.378608987166,3172.3160353083654,3018.8489578782273,2552.4351063293348,2262.1977045771723,2481.7365386171987,2729.125646248537,2608.8732610789853,2479.7695851051312,2687.6855120283976,2928.838482956706,2777.0477863607152,2506.099940073483,2618.2386420057587,2905.4809100009097,2850.026232007293,2537.5488445221004,2593.2717434491806,2857.737583844374,2826.5569003292208,2567.9025134924073,2528.4516845287903,2815.1128071681032,2895.4896802293874,2599.843156319041,2507.4410447408018,2810.597754788131,2939.567320295253,2665.5349332731885,2501.361370248958,2756.126553550548,2974.8607247901828,2763.189704798425,2551.4739813177566,2739.1392277645145,2999.7382163689394,2841.0855342251702,2593.1823364713596,2743.54252142221,3028.6837254385623,2976.313588179778,2653.643805222965,2693.318151631135,3031.8800248956713,3053.538865272864,2721.391942667001,2657.0412703801717,2992.2056784875012,3099.561107106341,2833.508292854821,2700.001323223272,2992.987989543437,3186.8670209487705,2931.6771545025294,2722.643640356498,2994.7537773554063,3229.5588528584067,3053.2259408504897,2762.385041998034,2951.257282645379,3199.115776910279,3033.466998751998,2761.222751286358,2861.7832495907846,3073.342510860266,2552.2562923736923,2073.325463929828,2210.989858030064,2537.392382310913,2628.9227758553957,2336.427847913247,2254.9780911181083,2547.6741847603544,2653.2191220783143,2402.656066734322,2264.1646580892393,2546.847170215508,2756.886512862028,2516.9852396232177,2319.6416878273117,2562.6051500564995,2790.8164609451846,2569.690653048832,2311.416245867759,2502.233088282715,2796.918487181483,2676.777860734208,2409.987438915663,2507.038713340606,2856.731755343885,2813.9505164564275,2502.858937127464,2528.585794995522,2835.1623219445137,2881.4527847114546,2555.4749435752565,2491.2583817551595,2798.259591848802,2915.2262705834237,2615.1541012709263,2495.5052132016676,2770.0740420906595,3145.136314050712,3325.3360778493975,2983.555553383297,3101.7068745740503,3312.8191009544257,3080.539772574875,2778.321835794668,2898.507165730854,3141.403572726676,3006.2202222609785,2662.8974274274624,2737.127570763537,3033.5787574742744,2997.3465797122217,2682.030520681205,2688.423119595423,2995.1114052666912,3040.2842808108667,2699.420177867434,2614.32708672608,2955.146486180602,3106.244278698478,2844.795923804751,2668.1500873744594,2896.1378808185914,3127.9701743090363,2854.4071739205333,2614.550604170633,2816.498615324332,3057.0033856634363,2861.2244559794017,2597.742092340242,2786.167298098481,3024.012210847403,2935.119323148647,2620.674982151387,2718.4638641433557,3004.9685245714813,2972.245570688912,2642.557339973133,2654.4261162789007,3004.8120623602945,3065.854676467738,2720.475521144333,2687.461994583845,3111.0052002674583,3362.194104456199,3186.9340761821363,3088.2511244119555,3411.4349974912407,3581.8894007074123,3191.136204139734,2646.8935783974625,2632.744924157253,2806.9767721863714,2658.00239539175,2466.067965754028,2676.710805500842,3010.3105914963,2936.862759216161,2642.914967884418,2727.1139892475594,3053.9635484175146,3030.918899884093,2722.8895095455064,2676.2190671228254,3003.8956408376266,3092.4532523695534,2788.447176032922,2696.8497272550735,2993.4350244325433,3097.013008238436,2826.51219684031,2671.882828698496,2943.054192430281,3152.870017632248,2916.2544508283677,2666.0490233956607,2905.8161861677395,3146.4774187180305,3002.68864663704,2719.223823454836,2838.2692144238013,3115.944935792081,2960.2203321719567,2704.136395947504,2781.4287282739556,3126.070276030335,3119.0965317602795,2760.3063297636904,2775.997254371316,3102.4444821410757,3183.0895761358233,2898.149537819569,2788.6483417330196,3073.2531038824445,3217.913593997192,2957.2922536483115,2768.8446961456175,3016.3232107547774,3255.1516002597336,3033.60110921873,2772.2421613028246,2950.273805889345,3227.5471958574294,3087.46881335602,2782.993350385827,2915.092160116692,3215.007867218002,3122.9857352955028,2796.627914503564,2826.9145282405057,3093.012045980936,2617.3445722275465,2092.123281016741,2229.63121290579,2593.741130082742,2664.685566983887,2384.037063603051,2279.7438239745884,2583.392272399935,2757.601768684598,2518.5722134795446,2311.729170290133,2564.326234379558,2829.5967375751425,2656.594235491066,2368.010862828596,2570.8082402715972,2822.4218276049887,2684.064529426638,2391.882525906864,2524.987164138218,2858.7210606004073,2748.1693325244587,2409.987438915663,2419.6210407759,2726.644602613998,2773.1138793365812,2449.594730090467,2339.110057247884,2636.097685825549,2799.734806982852,2553.999728441206,2509.2291842972263,3319.8599004578473,3568.768926712147,3185.235343603533,2858.6316536225863,3016.6808386660623,3183.6707214916614,2923.7869887098063,2604.8275953325747,2754.3607657385787,3012.3669519861883,2864.5101624143317,2563.0298332011503,2645.9771568747947,3007.606030417208,2976.8723817911605,2681.4940788142776,2740.7932568542074,3136.463837202053,3161.4977909919967,2794.929181924961,2745.867102845562,3070.9285224590926,3176.2499423324994,2883.6879591569855,2717.793311809696,2980.6721783485627,3195.2489251195107,2948.4633145884654,2708.696151816386,2940.4837418179204,3167.8903899062148,2954.0288989578366,2676.397881078468,2821.5277578267765,3096.6777320716064,2993.0997482657135,2654.1355436009817,2733.0819050171262,3034.69634469704,2904.6091919671526,2108.8200341248553,2103.969705578054,2547.294205104614,2686.7914422501854,2407.9534301702297,2338.6183188698674,2679.4377183243896,2878.971741076916,2709.657276827965,2671.6593112539426,3050.3202140712997,3300.995028137568,3055.9528536740368,2749.8457133586066,2774.253818303802,2787.2401818323356,2445.4373056217796,2109.89291785871,2325.0061064965853,2673.4698025548223,2628.654554921932,2345.525007906557,2455.8755702824083,2778.2994840502124,2732.478407916833,2349.6153771418785,2240.672974666712,2425.298383867548,2338.730077592144,1903.4075025805835,1653.1350199145104,1877.0547958677764,1994.1332333246748,1642.0262029202227,1460.8876658544143,1705.3039914731971,1951.7319740929574,1742.139666335543,1456.8420001080037,1694.8433750681133,1975.6706924045914,1792.8781262490902,1443.2297877347216,1538.604681325517,1786.977265712889,1607.3139437811308,1175.23237171559,1108.110083116303,1304.291344200533,1122.1469786342357,598.423254301936,428.1253132969515,633.2696239077598,611.230803874827,187.44172900220502,33.32645098286283,361.2935973755834,567.0861085755955,299.87100361239953,89.80930922142377,362.7911642540889,643.4173158904691,440.0834965805408,213.05682814798692,469.14076437243995,833.6753646940429,733.2489768563482,434.04852557760785,536.3971634384588,683.8069181212089,455.70736595480037,84.57900101888193,201.03158963103172,737.4064013250353,970.4233372716114,771.9398465084847,774.86792503213,1153.5735313383975,1329.4594084572088,1113.072170385381,1015.2162331600468,1361.4224030282978,1625.150635856466,1414.7760170431159,1313.5226146605748,1660.3769851180298,1901.3287903462399,1701.9959332938115,1470.4989159701963,1697.592639636116,2048.895007240177,1970.8427156022449,1688.9872180208229,1844.8682838521343,2184.793613528444,2140.8724356737657,1856.3570805021623,1942.7242210774687,2310.276306900538,2346.1955602402163,2034.5004838109594,2023.9057569391439,2385.2217060591825,2499.103844058972,2218.2318232335833,2116.3972754952047,2438.9329479852854,2633.9742701022947,2367.362662239392,2200.953924769631,2456.926102271808,2690.9935702077833,2527.0882281170166,2251.245349794072,2436.854235750942,2733.2607189727687,2571.2105716717924,2203.278506192983,2279.9449896746864,2633.0578485796273,2608.739150612253,2297.6922747722,2332.181016466739,2675.6602735114425,2720.5649281221545,2431.0651339370174,2412.982572672674,2758.898169863006,2896.1378808185914,2589.9860370142505,2439.424686363302,2736.032335285227,2992.0939197652247,2777.5171729942767,2529.569271751556,2718.5979746100875,2935.700468504485,2781.316969551679,2478.1826112488047,2659.09763087006,2966.657634575085,2830.6919730534523,2503.462434227757,2627.961650843817,2990.1269662531577,3005.8178908607833,2698.0567214556604,2693.809890009152,2972.9161230225714,3024.0792660807692,2717.413332153956,2678.5436485461773,3039.6137284772076,3284.6335511962834,3097.013008238436,3082.0149877089248,3353.9239590077354,3481.708882058726,3141.045944815391,2724.5211868907436,2704.225802925325,2828.5238538412877,2649.2852150541803,2409.6074592599225,2670.9887589202835,3035.3892487751546,3016.12204505468,2785.899077165017,2865.337176959178,3178.1498406112005,3157.6085874567734,2806.417978574989,2785.6532079760086,3129.087761531802,3486.693321072259,3568.1430778673985,3351.3088049064645,3541.723315921225,3625.7435233287247,3292.680179200194,3068.492182313464,3303.8113479389367,3501.4231206683066,3294.155394334244,3043.7711529458948,3272.384795234775,3560.61053998596,3364.1163544793553,3076.784679506383,3211.2527741495105,3455.423230579285,3380.902514565291,3049.850827437738,3136.0838575463126,3494.896411287357,3457.0772596689776,3106.2889821873882,3069.185086391579,3387.8315553464363,3483.049986726044,3203.5190705679743,3136.307374990866,3450.1705706322878,3630.8397210645344,3348.80540952747,3185.2800470924435,3480.5242396025947,3708.5790882800925,3488.6826263287817,3245.8309228218704,3468.610759807916,3743.559568352648,3597.9379532263224,3314.22726085511,3451.8469514664357,3767.3194727086393,3696.307980574129,3361.6576625892717,3384.747014611604,3685.6461984689477,3682.8745821564894,3360.1153922218555,3260.270149739999,3553.2344643157085,3655.270177754185,3349.9229967502356,3195.9194774531697,3475.092765699955,3642.5520351591153,3374.8451918179026,3172.427794030642,3438.9499949157234,3658.1088493000093,3413.647820192316,3152.7135554210613,3354.7286218081263,3608.063293464577,3472.8799429988794,3198.422872832164,3330.253461629565,3625.989392517733,3554.9779003832223,3220.4169893761864,3251.128286257778,3589.556049055582,3641.300337469618,3339.194159411688,3288.321589031409,3604.7552352851912,3699.30311433114,3372.341796438908,3291.1826123216883,3637.2323199787525,3825.7916362037226,3497.958600277734,3272.4071469792307,3508.5309754050945,3716.826881984101,3526.702943647259,3269.9037516002363,3463.2910446275528,3750.9132922784443,3594.7193020247582,3254.54810315944,3369.056090003978,3682.963989134311,3630.213872219786,3264.226408508588,3296.4129205242302,3605.895174252412,3659.0699743115874,3331.70632501916,3270.2390277670656,3606.0963399525094,3726.9969257112657,3400.4602909636847,3276.7880888924706,3597.401511359395,3789.850031119589,3492.92945777529,3262.4829724410743,3451.82459972198,3647.089439283543,3459.3347858589636,3196.3888640867312,3380.5001831650957,3645.1224857714756,3502.339542190974,3193.7066547520944,3275.4916877140627,3579.2742466061413,3538.6834786753034,3207.2071084031,3250.88241706877,3569.37242381244,3630.6832588533475,3314.5625370219395,3286.779318663993,3690.563582249115,3921.9935443393642,3727.756885022746,3319.2116998686433,3227.122512712778,3536.5600629520495,3249.4072019347195,2827.1156939406033,2939.0979336616915,3169.7008812070944,3067.553409046341,2843.4324673929773,3120.370581194232,3450.215274121198,3364.965720768657,3074.460098083031,3223.7697510444823,3545.053725845066,3484.0111117376223,3190.353893083798,3181.592009257318,3481.127736702888,3572.3228540805408,3289.975618121102,3184.3859773142312,3447.0413264085446,3673.151573318431,3394.6264856608495,3217.8241870193706,3497.8468415554576,3725.007620454743,3479.3619488909185,3229.5812046028623,3431.9762506456677,3659.0476225671323,3484.480498371184,3243.5733966318844,3443.308585084508,3700.241887598263,3628.626898363459,3314.8531096998586,3397.487508951129,3720.2466988857627,3655.24782600973,3366.5973981138945,3387.250409990598,3684.327445546084,3745.817094542634,3447.510713042106,3336.199025654677,3647.9611573172997,3834.5982235191136,3513.8730423299126,3318.295278345976,3619.149758714409,3822.371819302061,3602.900040495401,3369.4360696597187,3613.181842944842,3890.0305497682753,3716.6480680284585,3444.3367653294526,3588.885496721923,3844.790618990734,3757.954091781866,3452.964538689201,3471.7847075205696,3783.0998042940864,3776.9754263133323,3391.519593181562,3317.289449845487,3607.9738864867554,3704.511070789227,3369.257255704076,3240.488855897052,3524.5571761795495,3670.2905500281518,3387.4962791796065,3231.4811028815634,3489.286123429075,3650.956291074311,3402.29313400902,3184.743605225516,3413.424302747763,3691.6811694718804,3544.0031938556667,3226.0272772344683,3372.1629824832658,3690.407120037928,3631.800846076113,3297.329342046898,3359.1542672102773,3645.927148571867,3684.618018224003,3382.221267488154,3326.4983685610737,3610.5443370991156,3722.1913006533746,3426.1647970872878,3339.7306012786153,3604.2858486516297,3758.110553993053,3491.8789257858907,3296.681141457694,3558.576531240527,3773.0638710336534,3571.4958395356944,3314.3390195773864,3530.8156646270354,3790.2747142642397,3672.7045384293247,3530.592147182482,4138.716058578022,4414.715399112153,4243.679850540144,3820.6730867234573,3855.295938884728,4147.276776704404,4139.878349289697,3785.2232200173403,3743.112533463542,4075.125345602673,4172.333082238803,3880.262837441306,3736.2952514046733,4009.3665134151597,4184.537134711401,3943.942957394476,3714.8152249831232,3953.0177656433307,4161.447782689069,3933.080009589197,3657.594759177537,3813.0511418641977,4051.5666069467793,3948.458009774448,3618.412151147384,3716.558661050637,4033.059362537785,3988.512335838358,3688.8424979260562,3698.654913741936,4018.038990263819,4037.03797305083,3694.6092479955255,3649.3916689624393,3995.620190575146,4100.38281683717,3877.6029798511245,3831.0666478951753,4214.376713559236,4476.74148997563,4243.501036584501,4069.0680228552847,4241.22115865006,4209.146405356694,3788.911257852466,3379.092023264411,3507.2345742266866,3850.847941738122,3815.241612820818,3539.801065898069,3631.6443838649257,3960.5279517803137,3952.4366202874926,3626.503482640205,3599.256706149186,3917.791416381767,3992.937981240509,3657.505352199716,3573.798069214591,3894.7020643594346,4040.2789759968496,3760.435135416405,3592.9982177016996,3886.0295875107754,4057.221598293972,3800.981199858332,3576.145002382398,3812.0900168526196,4061.714298929489,3899.7982620952444,3626.5481861291155,3760.658652860958,3988.422928860537,3889.069424756697,3635.4218286778723,3744.0960102195754,4041.910653342087,4006.12551046914,3726.3487251220618,3730.662611801936,4062.1836855630504,4117.43719785657,3817.3873802885273,3801.3164760251616,4140.481846389991,4288.048063283928,4047.699755156011,3836.9675084313762,4118.823006012798,4361.697061264165,4148.05908776034,3911.1305965340853,4130.602375340745,4388.519154610533,4196.45061450608,3917.791416381767,4076.33233980326,4290.618513896288,4197.724663940032,3925.4133612410265,3991.7980422732885,4286.9081243167075,4246.406763363691,3582.6493600188924,3176.4734597770525,3589.891325222412,3711.8200912261123,3451.086992154955,3396.8616601063804,3667.429526737872,3814.526356998248,3579.2518948616857,3463.2686928830976,3732.495454847271,3846.757572502801,3629.05158150811,3415.123035326366,3640.272157224674,3907.330799976683,3754.4225161579275,3453.121000900388,3573.887476192412,3892.064558513708,3801.204717302885,3499.344408433963,3558.934159151812,3878.452346140426,3844.4106393349934,3531.1062373049544,3534.570757695527,3846.914034713988,3929.9954688543644,3625.2070814617973,3516.9128795758343,3805.6080109605805,3949.5308935083026,3707.8638324575227,3518.566908665527,3784.7314816393236,4000.4034638885814,3763.430269173416,3513.64952488536,3741.659670073947,3958.1810186125067,3864.750726789323,3576.8155547160572,3657.8182766220903,3956.6834517340008,3921.390047239071,3596.8650694924677,3624.089494239032,4006.103158724685,4525.982383010672,4286.841069083342,4097.410034824614,4318.893470632252,4358.791334484975,4034.422818949559,3850.266796382284,4112.363351865215,4265.562208361889,3976.97883569942,3768.884094820511,4028.0302200353412,4237.622527792755,4014.9991530178972,3709.406102824939,3912.7846256237776,4192.717873182043,4035.316888727771,3688.663683970414,3739.69271656188,4003.9126877680646,3932.6106229556353,3583.968112941756,3554.8661416609457,3888.778852078778,3944.680564961501,3636.6511746229144,3545.4113537563508,3856.4135261074935,3962.517257036836,3624.1341977279426,3415.413608004285,3711.529518548193,3862.2473314103286,3563.4268597873283,3356.8296857869254,3626.659944851392,3971.4356030745034,3813.94521164241,3632.3372879430403,3934.5552247232467,4279.912028302197,4154.228169230005,3626.1235029844647,3496.773957821603,3700.1301288759864,3546.0819060900103,3274.709376658127,3459.804172492525,3794.7674148997567,3851.5631975606916,3571.2052668577753,3505.0664550145216,3809.273697051251,3942.8924254050767,3646.7765148611684,3493.3317891754855,3820.1813483454407,4050.6278336796563,3741.078524718109,3489.6213995959047,3763.139696495497,4027.516129912869,3864.773078533778,3608.063293464577,3780.1940775148964,4037.1497317731064,3940.4784370039033,3632.0243635206657,3716.536309306182,4033.1711212600617,4014.172138473051,3705.427492311894,3706.433320812383,4008.6959610815006,4043.9446620875196,3738.3516118945618,3691.122375860498,3972.4414315749923,4117.727770534489,3863.4990290998257,3664.2555790252186,3933.772913667311,4130.3565061517365,3939.919643392521,3716.5139575617263,3940.4113817705374,4175.104698551261,4044.458752209992,3830.3737438170606,3948.413306285537,4192.136727826206,4108.451796585536,3810.078359851642,3914.2151372689177,4270.256074697504,4292.876040086275,3981.4938880793916,3993.005036473875,4327.342430036358,4396.163451214248,4070.319720544782,3956.906969178554,4266.590388606834,4402.265477450547,4121.460511858525,3608.2868109091296,3443.576806017972,3790.2970660086953,3640.4956746692274,3413.7595789145926,3677.82308790959,3982.4103096020594,3851.8537702386107,3577.9331419388227,3678.426585009883,4017.2343274634277,3916.450311714448,3607.3927411309173,3693.9386956618664,4054.1147058146844,4047.699755156011,3764.4137459294498,3796.1755748004407,4083.6860637290556,4133.686916075578,3842.466037567382,3752.2096934568517,4065.80466816481,4255.7944960349205,3956.169361611529,3723.1524256649527,4005.387902902115,4279.174420735171,4080.355653805215,3842.2201683783733,3972.217914130439,4206.9559344000745,4034.4675224384696,3785.625551417536,3927.1791490529954,4191.846155148287,4091.129194632673,3767.9676732978432,3841.1025811556083,4185.610018445256,4143.365221424726,3789.760624141768,3789.693568908402,4135.475055632002,4248.7536965314985,3939.4055532700486,3808.0890545951197,4246.630280808244,4892.998026966814,4583.202848816258,4249.938338987629,4432.932070843229,4625.335887114512,4371.129497424305,4096.38185457967,4327.923575392196,4589.796613430573,4414.938916556706,4065.4693919979804,4188.471041735535,4508.391560124345,4437.9388616012175,4129.86476777372,4143.141703980173,4451.506370485588,4432.865015609863,4086.748252719433,3999.710559810467,4321.441569500157,4455.172056576259,4094.414901067603,3947.5862917406907,4292.049025541428,4455.753201932097,4190.773271414432,3961.802001214266,4175.797602629376,4397.325741925924,4225.463178809068,3968.7980972287774,4134.625689342701,4520.506205619122,4531.257394702125,4310.064531572406,4521.243813186146,4829.3402587580995,4753.6796037768845,4305.772996636987,4075.035938624852,4160.888989077686,4083.5296015178683,3787.3689874850497,3756.300062692173,4186.906419623664,4377.566799827433,4063.4577349970027,3989.3169986387493,4285.3211504603805,4397.593962859388,4123.025133970396,3911.6893901454678,4178.68097766411,4439.21291103517,4248.2843098979365,3997.2742196648387,4212.767387958454,4461.877579912851,4314.020790340995,3978.4093473445596,4047.99032783393,4381.72422429612,4291.154955763216,3939.3384980366827,3929.459026987437,4287.981008050562,4322.112121833816,3949.1956173414733,3890.9693230353982,4186.749957412477,4296.027636054473,4054.3382232592376,3889.9858462793645,4145.890968548175,4400.0750064939275,4194.058977849362,3964.327748337716,4192.427300504124,4481.681225500253,4321.553328222433,4058.093316327729,4254.252225667504,4552.737421123675,4439.659945924276,4116.565479822812,4248.865455253775,4560.225255516202,4528.75399932313,4204.988980888007,4210.152233857183,4555.352575224945,4629.1803871608245,4297.636961655255,4188.560448713356,4489.481984315155,4587.114404095937,4327.387133525269,4158.720869865521,4437.06714356746,4579.090127836482,4330.181101582182,4081.6967584725335,4265.718670573076,4537.582938382976,4300.788557623453,4051.5666069467793,4165.336986224293,4426.271250995547,4298.463976200102,3992.2450771623944,4024.677458367045,4365.988596199584,4317.395903753746,3958.06925989023,3982.4326613465146,4341.558139509933,4330.270508560003,4032.969955559964,3981.002149701375,4312.18794729566,4423.477282938634,4226.580766031833,4058.5850547057457,4217.885937438719,4382.238314418592,4018.0166385193634,3506.7428358486695,3416.1288638268547,3451.466971810695,3181.234381346033,2725.5270153912325,2723.8953380459952,2942.473047074443,2833.8435690216506,2579.36895839798,2578.765461297686,2920.7471514638846,2962.924893251049,2635.6953544253533,2639.1598748159263,3010.243536262934,3268.115612043812,3046.1627896026125,3017.5749084442746,3386.445747190207,3574.312159337063,3393.061863548978,3210.939849727136,3497.31039968853,3719.9784779522993,3543.2655862886413,3344.4021158697747,3501.1996032237535,3702.9911521662657,3545.478408989717,3311.1427201202778,3493.085919986477,3854.3124621286947,3709.070826658109,3446.549588030528,3537.9458711082784,3840.364973588583,3845.796447491223,3561.504609764172,3548.160618324354,3831.513682784281,3912.851680857144,3687.881372914478,3642.3508694590178,4014.4403594065143,4199.892783152197,3955.7670302113333,3826.0822088816417,3997.676551065034,4163.772364112421,3867.1647151904963,3440.15698911631,3867.723508801879,4413.620163633843,4484.586952279443,4323.028543356484,4581.839392404484,4856.989366649314,4402.958381528661,3665.8649046260007,3771.8345250886114,4153.6023203852565,4291.154955763216,4100.606334281723,4159.570236154823,4527.055266744526,4680.92467557486,4463.196332835714,4361.00415718605,4623.100712668981,4774.757298798239,4573.725709167208,4432.485035954122,4642.926710000838,4813.3140579836445,4643.843131523506,4391.871916278829,4591.540049498088,4838.884453640515,4725.181129596368,4465.2303415811475,4530.318621435002,4753.232568887779,4716.262783558701,4401.773739072531,4423.700800383187,4671.715756859274,4664.272625955657,4323.967316623606,4259.102554214305,4528.597537111943,4593.149375098869,4387.781547043508,4277.386281178747,4529.08927548996,4680.92467557486,4423.387875960812,4249.088972698328,4465.498562514611,4606.202793860769,4436.106018555882,4261.98592924904,4392.676579079221,4591.785918687096,4478.686091743242,4247.524350586456,4305.124796047783,4559.822924116007,4495.136975662348,4202.664399464655,4290.059720284906,4539.907519806328,4514.493586360644,4221.618678762756,4180.580875942812,4428.796998118996,4509.978533980672,4235.7226295140545,4068.9786158774637,4252.17351343316,4389.5696865999325,4141.9794132684965,3975.2353996319057,4127.6742968171,4270.32312993087,4122.9580787370305,3883.7050060874235,3985.3383881257046,4212.320353069348,4053.913540114587,3782.9656938273542,3873.0208722377865,4111.9833722094745,4052.0806970692515,3785.7373101398125,3779.344711225595,4022.554042643791,4096.918296446597,3809.050179606698,3760.7033563498685,4016.183795474028,4108.787072752366,3913.544584935258,3803.5069469817818,4011.7805018163326,4164.085288534795,3981.650350290579,3837.101618898108,4081.0709096277847,4325.598993968844,4197.121166839739,3934.421114256515,4109.792901252854,4342.295747076958,4254.676908812155,3985.7407195259,4060.5520082178127,4299.603915167322,4208.475853023035,3872.171505948485,3839.850883466111,4047.766810389377,4034.6910398830228,3707.7744254797017,3660.947520845833,3935.672811946012,4036.8144556062766,3808.692551695413,3684.7074252018247,3869.265779169295,4007.421911647548,3786.4078624734716,3589.176069399842,3809.586621473625,4062.3401477742373,3914.751579135845,3648.050564295121,3764.2125802293517,3985.517202081347,3869.913979758499,3596.0380549476213,3660.7463551457354,3932.9011956335544,3884.9567037769207,3619.5520901146047,3554.7767346831247,3804.2445545488067,3899.48533767287,3646.888273583445,3557.056612617566,3734.5965188260698,3869.7351658028565,3684.1262798459866,3547.6465282018817,3783.233914760818,4036.993269561919,3925.7262856634006,3810.8159674186672,4012.004019260886,4292.138432519249,4183.598361444278,3925.972154852409,3822.5729850021585,3800.7353306693235,3603.838813762524,3293.7530629340486,3398.091006051422,3758.468181904338,3794.298028266195,3522.2549465006527,3563.471563276239,3852.7925435057336,3945.4405242729813,3702.4100068104276,3622.48016863825,3909.9012505890432,4032.6570311375895,3773.6673681339466,3631.6443838649257,3773.3544437115725,3925.838044385677,3838.5321305432476,3634.237186221741,3756.590635370092,4086.5694387637905,3954.358870310649,3678.8959716434447,3786.7654903847565,4087.731729475466,4044.3693452321704,3781.669292648947,3827.535072271237,4138.805465555843,4146.717983093022,3866.1588866900074,3829.904357183499,4171.528419438412,4212.409760047169,3962.874884948121,3896.981942293876,4175.976416585018,4298.776900622475,4038.4684846959694,3900.6252766400908,4204.83251867682,4472.762879462585,4262.768240304976,4000.3811121441263,4173.338910739292,4439.369373246357,4380.62898881781,4111.648096042645,4165.828724602309,4400.589096616399,4420.9738875596395,4169.740279881988,4222.244527607504,4463.486905513633,4483.916399945784,4062.049575096318,4018.5530803862907,4339.010040642028,4416.2800212240245,4072.1749153345727,3945.5299312508027,4197.970533129041,4365.250988632559,4149.511951149935,3895.4843754153703,4083.5296015178683,4274.212333466093,4157.625634387211,3941.2160445709283,4081.2720753278827,4346.900206434751,4207.268858822448,3953.1742278545175,4062.742479174433,4314.356066507825,4212.365056558258,3837.526302042759,3772.3262634666285,4046.090429555229,4009.4335686485256,3693.469309028305,3611.5054621106938,3847.8081044922,3929.5707857097136,3518.4551499432505,3169.1867910846227,3175.713500465572,3124.3715434517317,2766.8777426335505,2348.8107143414873,2397.8727934208864,2495.952248090774,2298.049902683485,2054.54999858737,2199.411654402215,2553.4409348298236,2707.9808959938164,2652.660328466932,2881.7433573893736,3322.9220894482246,3509.6932661167702,3348.850113016381,3915.0421518137637,4423.901966083285,4389.636741833298,3986.523030581836,3845.3717643465716,4101.567459293301,4273.430022410157,4021.682324610034,3834.8664444525775,4022.3752286881486,4217.103626382784,4102.550936049335,3926.0839135746855,4131.362334652225,4367.329700866902,4220.948126429096,3922.9546693509424,4090.615104510201,4364.759250254542,4327.342430036358,4042.156522531095,4057.4004122496144,4316.457130486623,4268.602045607811,3952.5260272653136,3944.389992283582,4219.651725250688,4242.0034697059955,3973.067280419741,3835.0229066637644,4099.1311191476725,4256.800324535408,4045.129304543651,3896.1549277490294,4062.697775685522,4309.103406560827,4267.775031062964,4109.569383808302,4378.81849751693,4730.344382565544,4576.989063857683,4256.532103601945,4199.065768607351,4196.517669739445,3941.2160445709283,3499.1432427338655,3573.6863104923145,3988.1770596715287,4117.817177512309,3904.4697766864037,3912.8293291126884,4232.302812612393,4324.4143515127125,4055.4111069930923,3928.855529887144,4233.174530646149,4430.853358608885,4126.6014130832455,3852.971357461376,4130.624727085201,4307.672894915688,4073.9407031465416,3770.0016820432766,4012.7192750834556,4323.81085441242,4199.423396518636,3898.948895805943,4000.2470016773946,4283.063624270395,4217.483606038524,3867.7682122907895,3895.0820440151747,4268.870266541275,4296.027636054473,3953.330690065705,3907.397855210049,4240.260033638481,4398.912715782251,4110.217584397506,3992.446242862492,4298.0616447999055,4471.533533517544,4274.838182310842,4048.5267697008576,4273.810002065898,4488.36439709239,4291.311417974403,4046.224540021961,4172.489544449991,4472.584065506943,4386.909829009751,4027.493778168414,4094.258438856416,4466.727908459653,4427.321782984946,4126.154378194139,4111.938668720564,4373.610541058843,4458.904797900295,4154.831666330298,4106.551898306835,4368.402584600757,4491.337179104946,4217.282440338426,4026.3314874567377,4244.8197895073645,4303.962505336107,3483.049986726044,3201.5074135669965,3568.0089674006663,3908.426035454993,3774.784955356712,3526.971164580723,3679.8794483994784,4002.5715831007465,3903.3074859747276,3576.3014645935855,3673.1292215739754,4010.4393971490144,3951.2519778313613,3649.414020706895,3691.0106171382213,4046.358650488693,4113.7491600214435,3806.144452827508,3752.07558299012,4075.482973513958,4226.871338709752,3986.83595500421,3832.2736420957617,4101.410997082115,4318.111159576316,4090.4586422990137,3882.0286252532755,4111.268116386905,4396.0293407475165,4272.982987521051,3932.2976985332607,4058.473295983469,4344.419162800213,4272.1112694872945,3948.1450853520737,4034.020487549363,4301.950848335129,4278.839144568342,3954.515332521836,4001.2751819223386,4362.367613597824,4415.676524123732,4101.165127893106,3995.195507430495,4271.306606686903,4400.9020210387735,4101.120424404196,3918.3502099931493,4141.912358035131,4367.821439244919,4188.0016551019735,3954.224759843917,4202.195012831094,4802.920496811927,5073.041328554312,4631.683782539819,4606.783939216607,4864.164276619467,4698.806071139106,4301.66027565721,4343.569796510911,4634.321288385545,4597.999703645672,4264.221103694571,4211.470986780047,4534.788970326063,4634.097770940992,4296.407615710213,4169.181486270605,4450.478190240645,4599.541974013087,4343.346279066358,4133.8210265423095,4361.987633942083,4550.792819356063,4374.705776537154,4253.358155889292,4536.286537204568,4849.412125278965,4767.984720228282,4460.000033378606,4615.344657342989,4847.981613633825,4512.057246215016,3999.7552632993775,3934.3764107676043,4307.047046070939,4357.67374726221,4031.740609614922,4016.6978855965003,4372.761174769542,4435.2343005221255,4097.387683080159,4006.7960628027995,4366.145058410771,4541.002755284638,4179.73150965351,4011.60168786069,4328.929403892685,4643.574910590042,4402.153718728271,4090.8833254436645,4291.020845296484,4627.504006326676,4519.947412007739,4148.684936605088,4258.208484436093,4638.67987855433,4614.182366631314,4271.552475875911,4264.5563798614,4626.319363870545,4617.222203877235,4266.813906051387,4217.036571149418,4562.058098561537,4580.677101692808,4320.905127633229,4216.075446137839,4520.953240508227,4702.561164207597,4404.813576318452,4177.004596829963,4452.623957708354,4726.902213919427,4484.452841812711,4219.294097339403,4421.9126608267625,4664.8090678225835,4580.274770292613,4307.739950149054,4368.223770645114,4698.35903625,4666.172524234357,4287.735138861553,4321.933307878174,4735.015897156703,4775.293740665167,4471.958216662195,4415.117730512349,4731.171397110391,4760.2733683912,4515.074731716482,4359.908921707741,4548.825865843995,4723.951783651327,4431.25569000908,4108.496500074447,4322.447398000646,4599.676084479819,4358.1654856402265,3489.286123429075,3538.8399408864907,4040.2119207634832,3976.442393832492,3708.176756879897,3863.7001947999233,4254.676908812155,4292.630170897266,3878.38529090706,3860.2133226648957,4299.156880278216,4349.269491347014,4046.3362987442374,3945.485227761892,4258.454353625101,4455.641443209821,4140.258328945438,3976.755318254867,4294.977104065073,4491.583048293955,4244.238644151526,3967.4346408170036,4231.162873645171,4457.429582766245,4264.690490328132,3968.3063588507607,4148.327308693803,4448.578291961943,4310.71273216161,3969.0216146733305,4092.38089232217,4464.269216569569,4367.374404355813,4050.225502279461,4110.642267542156,4409.932125798718,4997.313618339732,4842.460732753365,4601.173651358325,4827.708581412862,4927.106789005612,4558.0347845595825,4313.059665329417,4590.981255886705,4816.935040585404,4555.978424069694,4292.473708686079,4491.381882593856,4753.411382843421,4596.345674555979,4269.049080496917,4343.659203488732,4647.978204247738,4530.855063301929,4161.425430944613,4217.908289183175,4609.19792761778,4554.302043235546,4239.321260371359,4196.964704628552,4485.83864996894,4528.977516767683,4282.013092280995,4137.263195188427,4466.727908459653,4664.004405022193,4361.205322886148,4111.357523364726,4352.5775495264,4595.943343155783,4394.285904680002,4245.1103621852835,4491.717158760686,4811.011828304748,4747.84579847405,4544.131999508381,4739.46389430331,5064.011223794369,4830.681363425418,4244.395106362714,4054.3605750036927,4306.823528626386,4296.742891877043,3998.4365103765144,4029.9971735474082,4401.6619803502535,4498.154461163815,4169.740279881988,4083.574305006779,4393.928276768717,4603.252363592668,4294.798290109431,4086.703549230522,4371.308311379947,4660.986919520727,4422.136178271315,4113.5703460658015,4351.795238470464,4637.718753542752,4449.204140806692,4133.463398631025,4282.258961470004,4601.19600310278,4546.322470465001,4149.981337783496,4135.340945165271,4390.843736033886,4341.424029043202,3968.4181175730373,3869.8245727806775,4199.870431407742,4322.290935789459,4004.002094745886,3907.2190412544064,4253.849894267309,4423.119655027349,4144.77338132541,3914.2151372689177,4179.910323609152,4446.074896582949,4275.061699755394,3913.544584935258,4120.365276380215,4472.896989929318,4357.584340284388,4088.7152062315,4190.415643503147,4562.393374728367,4554.838485102473,4231.1405219007165,4244.909196485186,4576.251456290657,4612.416578819344,4233.509806812979,4202.932620398119,4538.7228773501965,4632.510797084666,4306.0412175704505,4129.328325906793,4387.781547043508,4554.212636257725,4249.133676187239,3946.6028149846575,4164.711137379544,4400.879669294318,4115.9172792336085,3777.489516435804,3977.0235391883302,4238.784818504431,4051.387792991137,3751.025051000721,3875.43486063896,4233.912138213174,4242.718725528565,3879.10054672963,3363.579912612428,3579.1624878838647,3861.8002965212227,3623.2177762052747,3674.626788452481,4083.864877684698,4247.390240119725,3975.123640909629,3828.4738455383595,4167.616864158734,4411.8767275663295,4165.314634479837,3927.0450385862637,4137.263195188427,4411.295582210491,4196.6294284617225,3835.492293297326,4011.2440599494053,4341.8487121878525,4219.316449083859,3879.2123054519066,3957.219893600928,4312.120892062294,4267.439754896135,3906.660247643024,3930.420151999015,4278.70503410161,4339.881758675785,3996.290742908805,3858.3357761306497,4176.602265429767,4354.142171638271,4055.031127337352,3811.1512435854966,4048.5714731897683,4301.66027565721,4048.7055836565,3744.6771555754135,3989.071129449741,4286.662255127699,4091.28565684386,3679.5218204881935,3765.5983883855806,4094.1466801341394,3941.7524864378556,3538.9069961198566,3576.4579268047723,3943.831198672199,3901.944029562954,3497.3327514329853,3424.5331197420505,3758.5799406266146,3827.915051926977,3494.7175973317144,3423.5272912415617,3713.3847133379836,3803.194022559407,3503.613591624927,3354.2815869190204,3712.960030193333,4057.1098395716954,3949.2850243192943,3717.0280476841986,3872.327968159672,4106.641305284656,3709.4731580583048,3128.439560942598,3153.786439154916,3489.196716451254,3361.4341451447185,3012.277545008367,3109.261764199944,3475.83037326698,3504.6641236143264,3128.7077818760613,3088.2958279008662,3476.903257000835,3482.424137881296,3120.594098638785,3015.78676888785,3316.8647667008363,3517.8069493540465,3258.057327038923,3073.2754556269,3368.318482436953,3645.1001340270204,3389.5973431584052,3173.8583056757816,3473.349329632441,3783.2562665052733,3669.3517767610288,3340.3117466344534,3469.5495330750387,3813.274659308751,3727.7792367672014,3357.299072420487,3427.8635296658913,3840.9014154555102,3869.6681105694906,3563.7174324652474,3552.9885951267,3938.1538555805514,4010.037065748819,3659.762878389702,3531.955603594256,3910.7282651338896,4109.681142530578,3833.4806362963486,3601.4918805947163,3897.920715560999,4176.535210196401,3915.7574076363335,3638.8416455795345,3860.9285784874655,4154.652852374656,3998.5929725877018,3676.72785243128,3849.1939126484294,4255.570978590367,4184.559486455856,3822.036543135231,3905.9896953093644,4263.729365316554,4288.673912128676,3894.657360870524,3807.2173365613626,4080.668578227589,4106.395436095648,3739.335088650595,3513.8059870965467,3734.1271321925087,3827.3786100600496,3517.1140452759323,3267.109783543323,3514.8565190859463,3783.725653138835,3582.7164152522587,3338.3000896334756,3536.023621085122,3856.3688226185827,3762.469144161838,3501.7136933462257,3688.1272421034864,3935.717515434923,3808.491385995315,3430.0987041114217,3448.8518177094243,3802.5681737146588,3776.9530745688767,3406.3387997554305,3375.4710406626514,3664.5908551920484,3727.890995489478,3359.578950354928,3221.623983576773,3541.36568800994,3661.7521836462242,3261.9241788296913,3050.4543245380314,3319.0999411463667,3526.390019224885,3200.456881577597,2853.6472146090528,2979.5545911257973,3196.5453262979186,2997.9053733236046,2598.010313273706,2666.965444918328,2993.2562104769004,2935.968689437949,2683.4386805818895,2788.4918795218327,3153.585273454818,3243.774562331982,2950.117343678158,3022.5816992022633,3861.487372098848,4079.5062875159133,3573.7757174701355,3358.036679987512,3620.468511637272,3715.597536039059,3328.979412195613,3002.9345158260485,3164.7611456824716,3351.6440810732943,3012.791635130839,2597.876202806974,2690.792404507685,2901.055264598759,2637.0811625815827,2246.1715038027173,2313.7408272911107,2571.4787926052563,2498.321533003036,2174.6235698012792,2249.2336927930946,2615.578784415577,2606.973362800284,2320.178129694239,2359.919531335775,2791.4870132788437,2911.851157170672,2556.5701790535663,2386.8980868933304,2581.984112499251,2617.2998687386357,2200.417482902704,1936.2422151854296,2313.5620133354682,2719.6261548550315,2656.3930697909677,2485.357521218958,2745.2636057452687,3132.462874944553,3031.5894522177523,2808.4519873204217,2993.92676281056,3377.482697663629,3336.6237087993277,3061.1608101321235,3248.222559478588,3748.9239870219217,3876.3065786727166,3649.2352067512525,3723.2194808983186,4240.46119933858,4492.924152961273,4259.057850725395,4164.331157723804,4539.3710779394005,4785.016749503226,4517.5334236065655,4318.04410434295,4606.001628160671,4777.730080810796,4503.407121110812,4158.542055909879,4276.648673611721,4566.3719852414115,4306.890583859752,3846.5787585471585,3886.6330846110686,4136.39147715467,4000.9622574999644,3558.1741998403313,3483.8099460375247,3740.7656002957347,3648.832875351057,3214.8290532623596,3076.94114171757,3329.9852406961013,3361.0094620000677,3030.784789417361,2812.028266433271,3061.563141532319,3280.431423238686,3010.8023298743165,2767.1012600781037,3057.405717063632,3358.99780499909,3164.917607893659,2944.9093872200715,3265.209885264622,3690.697692715847,3665.3508145035285,3490.0684344850106,3684.975646135288,4097.342979591248,4165.761669368943,3984.3996148585816,4112.944497221052,4583.985159872193,4752.22674038729,4180.82674513182,3638.4169624348838,4246.8761499972525,4579.470107492221,4414.424826434234,4349.2471396025585,4685.439727954832,5013.138653414089,4848.607462478574,4641.831474522528,4938.327364722177,5266.026290181433,5147.249120145932,4889.980541465347,5072.236665753921,5380.087242136865,5224.407342005652,4889.06411994268,4957.192237042455,5291.194354438109,5262.427659324129,4903.324532905166,4855.491799770809,5142.957585210513,5186.565838642817,4791.230534461801,4673.347434204511,4993.603228760151,5089.179288051044,4751.489132820265,4554.302043235546,4828.4014854909765,5052.9247585445355,4789.800022816661,4487.492679058633,4711.278344545168,5034.484569368908,4868.9028464439925,4606.046331649582,5290.18852593762,5717.665638645368,5467.817839123945,5018.145444172078,5049.795514320793,5394.392358588262,5348.0571923324105,5009.361208601143,4988.507031024341,5344.659727175203,5439.945213788177,5147.584396312761,5062.871284827147,5380.556628770427,5589.925419083288,5317.502357662005,5168.304463422831,5480.334816018917,5763.240845589739,5579.15187825583,5365.8491809188345,5678.281864915117,6049.834912995686,5911.164690394961,5606.309247769028,5790.197049402839,6199.435138635056,6168.74619349792,5829.267898710716,5912.617553784556,6162.97944342845,5977.281150493759,5447.634213880803,5123.645678001128,5244.747429459981,5181.424937418096,4775.13727845398,4641.809122778073,4971.653815705039,5138.822512486281,4787.140165226479,4463.755126447097,4658.327061930545,4729.763237209706,4248.686641298133,3766.2242372303294,3757.954091781866,3720.917251219422,3172.2266283305444,2516.0688181005503,2304.9789434646304,2076.275894197928,1391.1949266427669,548.1541810219504,159.61380715534773,200.3386855529172,73.67134972469208,-386.0369784876083,-361.24889388667276,169.2921125044957,451.95227288630883,270.5008113981261,171.10260380537557,538.7888000951767,805.6015736581771,602.3348095816148,472.31471208509356,883.2738856403691,1279.6597218107847,1060.7467366155072,780.1652884680377,1015.082122693315,1345.3962022538426,1253.843456964905,1035.8915967812059,1340.6352806848622,1831.8372168346903,1939.7514390649128,1759.3952130550401,1958.035166029354,2522.483768759223,2812.6988187669303,2811.7823972442625,3148.8020001413825,3904.156852264029,4454.568559475966,4582.733462182697,4849.725049701339,5559.504694879615,6197.4905368674445,6233.745066373953,6264.545770233366,6761.983843086225,7162.638862447604,6998.130023256544,6603.174698731268,6351.49405616451,5793.974494215786,5416.364123387829,4879.810497738183,4768.051775461648,4935.667507131995,4707.4785479877655,4205.16779484365,4143.812256313831,4388.3403406548905,4330.2258050710925,3973.849591475677,3958.0245564013194,4327.789464925464,4495.561658806999,4266.679795584654,4209.906364668174,4646.68180306933,4989.848135691659,4818.85729060856,4649.341660659512,5019.039513950291,5430.780998561501,5224.69791468357,4966.289397035765,5171.478411135485,5489.387272523317,5363.032861117466,5024.918022742036,5112.268640073376,5350.851160389324,5237.8854439122015,4860.7444597178055,4854.888302670515,5147.919672479591,5177.7145478385155,4829.787293647206,4721.537795250153,5063.318319716253,5145.863311989702,4827.842691879594,4648.179369947836,5096.018921854368,5982.846734863131,5752.959043140298,5368.06200361991,5511.783720467534,5788.990055202253,5574.212142731207,5212.851490122258,5374.499306023038,5649.939852945788,5473.003443837577,5140.454189831518,5193.2713619794085,5501.680731973735,5462.453420454672,5105.8089859257925,5094.700168931505,5434.692553841181,5502.306580818485,5144.477503833474,5003.952086442958,5324.319639720874,5432.949117773666,5069.353290719187,4903.950381749914,5217.36654250223,5434.7596090745465,5172.283073935875,4995.346664827664,5328.074732789366,5681.74638530569,5490.907191146278,5230.799940919869,5382.25536134903,5587.980817315676,5291.954313749589,4830.7484186587835,4828.267375024245,5210.370446487719,5261.198313379087,4942.373030468587,4924.268117459788,5281.404290366685,5369.470163520595,5012.46810108043,4918.188442967945,5189.002178788445,5319.62577338526,5013.920964470025,4786.916647781926,5086.050043827301,5318.441130929128,5051.226025965932,4742.391972826955,4986.674187979006,5290.166174193165,5008.645952778573,4730.836120943561,4913.092245232135,5197.227620747998,5028.136673943601,4626.274660381635,4642.054991967081,4927.352658194621,4906.096149217624,4628.15220691588,4563.868589862417,5009.7188365124275,5072.415479709563,4688.479565200754,4586.846183162473,4951.827818373182,5164.906998265624,4777.975949999804,4533.13494123637,4835.598747205585,5024.314525641743,4569.6576916763415,4139.1630934671275,4235.096780669306,4458.971853133661,4198.842251162798,3773.488554178304,3810.368932529561,3998.0788824652295,3744.923024764422,3147.8632268742595,3036.372725531188,3210.4034078602085,3049.403792548632,2585.1133567229936,2401.6725899782887,2214.4543784206367,1651.1904181468985,1385.7187492512167,1269.2661606390668,1525.3277451190645,1728.7509714068142,1382.4330428162866,1131.8699874722943,1339.74121090665,1645.5577785441612,1462.2064187772773,1387.126909151901,1831.6136993901373,2333.544472878513,2239.3318699993933,2005.0408846188648,2200.283372435972,2561.755783767198,2598.3679411849907,2291.567896791446,2374.559923954001,2730.5561578936768,2717.100407731582,2491.4148439663463,2585.962723012295,2966.657634575085,3082.193801664567,2867.639406638075,2799.868917449584,3155.14989556669,3382.9365233107237,3221.78044578796,3077.075252184302,3380.522534909551,3680.818221666601,3596.4850898367276,3405.936468355235,3694.1622131064196,3931.49303573287,3845.3717643465716,3603.3917788734175,3728.3827338674946,4043.60938592069,4002.9515627564865,3785.1338130395193,3895.8867068155655,4237.242548137016,4264.444621139124,4012.942792528009,4030.0865805252292,4324.1237788347935,4400.477337894123,4161.850114089264,4053.265339525383,4297.435795955157,4459.105963600393,4237.019030692462,4067.972787376975,4307.1588047932155,4498.914420475295,4301.503813446023,4108.608258796723,4244.260995895982,4457.40723102179,4326.828339913885,4086.9717701639856,4241.3552691167915,4499.830841997962,4471.824106195463,4221.328106084837,4280.202600980116,4586.3320930400005,4650.794524049106,4351.281148347992,4373.051747447461,4664.652605611397,4775.539609854175,4551.798647856552,4557.923025837305,4892.6180473110735,5100.019884111868,4845.791142677205,4639.283375654623,4858.308119572177,4875.898942458504,4460.64823396781,4096.940648191053,4294.217144753593,4659.44464915331,4599.899601924372,4324.146130579249,4489.012597681594,4767.113002194525,4739.620356514497,4469.857152683396,4491.605400038409,4831.620136692541,4791.275237950711,4467.510219515589,4450.187617562726,4731.685487232863,4860.00685215078,4544.981365797683,4397.929239026218,4651.152151960391,4760.474534091298,4498.959123964206,4254.453391367601,4455.999071121106,4705.690408431341,4482.485888300645,4124.545052593357,4319.988706110562,4626.453474337277,4444.3314605154355,4137.598471355256,4263.729365316554,4573.681005678297,4489.571391292977,4088.5363922758575,4120.678200802588,4424.818387605952,4483.044681912027,4061.736650673944,3925.9945065968645,4227.430132321136,4370.168372412726,4052.773601147366,3841.61667127808,4140.973584768008,4359.193665885171,4083.574305006779,3832.3854008180383,4108.6976657745445,4460.5364752455325,4745.252996117234,4645.407753635377,4665.189047478324,4852.362555547065,4650.079268226536,4254.632205323244,4303.2248977690815,4618.138625399903,4554.883188591384,4216.522481026946,4174.456497962057,4540.153388995336,4589.729558197208,4178.613922430744,4051.4995517134134,4409.328628698424,4591.920029153827,4222.423341563147,4058.6297581946565,4412.63668687781,4655.175465962347,4413.083721766916,4138.358430666737,4386.82042203193,4701.890611873939,4489.213763381692,4183.084271321806,4341.625194743299,4682.332835475545,4581.325302282012,4219.316449083859,4317.0159240980065,4682.802222109106,4620.507910312165,4220.8140159623645,4189.566277213845,4559.577054926998,4592.523526254121,4216.857757193775,4159.659643132644,4480.384824321845,4627.325192371034,4323.4755782455895,4072.2419705679386,4372.001215458062,4580.297122037068,4334.070305117405,4067.704566443511,4323.028543356484,4622.094884168492,4384.071157463927,4026.867929323665,4169.762631626443,4536.1971302267475,4438.341193001413,4052.997118591919,4039.004926562897,4438.072972067949,4418.291678225002,4032.3441067152153,3994.4578998634697,4335.076133617894,4442.811541892474,4039.2060922629944,3925.1451403075625,4256.666214068677,4432.3062219984795,4104.652000028133,3903.329837719183,4206.173623344138,4470.862981183885,4248.574882575856,3901.6758086294903,4106.306029117826,4406.713474597153,4200.138652341206,3862.71671804389,3992.4909463514027,4359.081907162894,4271.686586342644,3883.0791572426747,3873.2443896823397,4234.850911480297,4227.519539298956,3878.5194013737923,3790.4758799643378,4138.24667194446,4211.918021669152,3938.6008904696573,3916.9867535813755,4287.757490606009,4611.790729974596,4372.805878258452,4219.07057989485,4543.863778574918,4731.216100599301,4240.818827249865,3665.3284627590733,3848.6127672925913,4174.501201450968,4098.102938902729,3749.8404085445895,3987.0818241932184,4478.12729813186,4384.764061542041,3991.351007384182,3929.9954688543644,4347.324889579402,4416.883518324318,4062.1166303296845,4008.740664570411,4320.994534611051,4387.0439394764835,4074.8571246692095,3976.420042088037,4301.459109957113,4501.440167598745,4159.525532665913,3845.0364881797423,4254.766315789976,4563.66742416232,4242.383449361736,3946.3122423067384,4225.843158464809,4522.853138786929,4443.459742481678,4052.348918002715,4165.53815192439,4526.697638833241,4489.191411637236,4181.363186998748,4296.161746521205,4534.788970326063,4603.855860692962,4273.98881602154,4157.91620706513,4580.587694714987,4690.312408246089,4302.844918113341,4150.7860005838875,4560.895807849862,4760.496885835753,4530.206862712725,4181.340835254292,4447.617166950366,4753.6796037768845,4610.404921818366,4337.579528996888,4466.683204970742,4768.811734773128,4553.18445601278,4177.563390441345,4284.963522549096,4644.044297223603,4619.971468445238,4194.438957505102,4235.834388236331,4510.067940958494,4393.9729802576285,4040.3683829746706,3996.514260353358,4219.249393850493,4242.919891228663,3922.641744928568,3493.0412164975664,3266.774507376493,2789.184783599947,1939.4385146425386,769.2129336849373,468.09023238304053,721.0896278726611,368.78143176811125,279.35210220242766,955.0676888308154,1653.0903164255997,1750.9909571398446,1549.1994081973326,1722.112503303588,2220.176425001195,2368.301435506515,1980.4092622291164,1999.5647072273146,2645.3736597745014,2722.3977711674897,2394.363569541403,2265.863390667843,2625.748828142742,2879.061148054737,3135.301546490377,3196.590029786829,3454.417402078796,3707.8638324575227,3352.0911159624,3021.084132323758,3264.137001530767,3673.531552974171,3477.797326779047,3023.587527702752,3240.3547454303202,3650.084573040554,3468.968387719201,3083.2219819095117,3255.755097360027,3653.1020585420206,3646.888273583445,3206.223631647066,3150.210160042067,3584.8174792310574,3712.2224226263074,3344.5362263365064,3222.87568126627,3565.9302551663227,3781.043443804198,3326.453665072163,3084.8313075102938,3444.5379310295502,3750.9132922784443,3459.223027136687,3135.6368226572067,3446.8178089639914,3847.2269591363624,3627.8222355630683,3302.738464205082,3501.8254520685023,3807.1949848169074,3092.207383180545,2405.2488690911377,2706.1704046929367,3241.047649508435,3307.0076473960457,2986.2824662068447,2988.048254018814,3399.610924674383,3499.12089098941,3033.6458127076403,2891.9357528609935,3328.8005982399704,3513.6271731409042,3291.7861094219816,3039.814894177305,3365.3009969354866,3682.025215867188,3525.2947837465745,3302.7608159495376,3620.3567529149955,4151.121276750717,4057.5345227163466,3707.103873146042,3718.6373732849806,3901.3181807182054,3527.7758273811137,3014.6468299206294,2967.954035753493,3481.1053849584328,3644.988375304744,3395.520555439062,3376.163944740766,3836.2746043532616,3998.190641187506,3712.8259197266007,3567.6289877449262,3903.9556865639315,4126.042619471863,3891.6622271135125,3697.0679398856096,3944.25588181685,4242.450504595102,4072.8901711571425,3841.326098600161,4030.5336154143356,4399.180936715715,4166.231056002504,3842.555444545203,3929.749599665356,4268.020900251973,4217.573013016345,3875.09958447213,3974.006053686864,4246.898501741708,4261.337728659836,3979.415175845048,3941.238396315384,4288.89742957323,4330.42697077119,4124.76857003791,4026.7338188569333,4264.623435094766,4457.697803699709,4272.2900834429365,4097.320627846793,4355.10329664985,4478.082594642949,4363.686366520687,4138.447837644558,4316.2559647865255,4592.344712298478,4400.924372783229,4282.862458570296,4325.33077303538,4581.101784837459,4599.430215290811,4336.0372586294725,4359.774811241008,4618.004514933171,4659.3999456644,4375.488087593089,4275.866362555786,4484.631655768354,4675.4932016722205,4439.101152312894,4220.769312473454,4498.17681290827,4643.6196140789525,4406.266439708047,4142.649965602156,4327.588299225366,4524.954202765728,4297.078168043872,4082.0096828949077,4209.6604954791665,4426.271250995547,4304.94598209214,4041.5977289197126,4048.415010978581,4327.342430036358,4372.694119536176,4125.6626398161225,4093.833755711765,4338.138322608272,4467.532571260044,4167.169829269627,4099.734616247966,4373.476430592112,4478.283760343046,4276.469859656079,4156.619805886723,4396.006989003061,4594.155203599358,4421.979716060128,4241.243510394515,4417.196442746692,4631.504968584177,4512.124301448382,4268.3561764188025,4373.096450936371,4583.582828471998,4523.501339376133,4268.087955485339,4297.458147699613,4546.166008253814,4572.4740114777105,4280.22495272457,4268.8255630523645,4617.043389921593,4616.663410265853,4386.328683653914,4321.598031711344,4541.0698105180045,4650.34748916,4493.214725639192,4368.894322978774,4951.64900441754,5279.347929876796,5003.192127131478,4769.28112140669,4904.151547450012,5093.7166921754715,4931.554786152218,4664.987881778226,4736.692277990852,4919.507195890808,4848.495703756297,4599.698436224275,4619.882061467417,4834.592918705096,4826.725104656828,4486.911533702795,4452.109867585882,4684.478602943254,4685.126803532458,4439.481131968633,4334.562043495422,4532.397333669345,4686.847887855517,4471.667643984276,4286.0811097718615,4459.955329889694,4633.136645929414,4460.938806645729,4260.466010626079,4383.892343508285,4715.12284459148,4771.94097899687,4572.518714966621,4652.15798046088,4953.50419920733,4799.500679910264,4376.762137027042,4203.536117498412,4240.572958060856,4171.193143271583,3973.491963564392,3943.1829980829953,4225.016143919962,4400.700855338676,4161.894817578175,4073.1807438350615,4301.123833790282,4455.328518787446,4220.8140159623645,4064.642377453134,4338.361840052824,4480.273065599569,4310.399807739235,4114.822043755298,4210.666323979655,4467.085536370938,4378.4832213501,4137.285546932882,4224.88203345323,4421.1527015152815,4437.871806367852,4120.119407191206,4137.352602166248,4399.695026838187,4414.11190201186,4150.070744761318,4111.178709409083,4324.839034657363,4423.566689916455,4195.73535868351,4053.6900226700336,4304.677761158677,4441.805713391986,4222.713914241065,4042.2459295089166,4214.8237484483425,4427.053562051483,4196.517669739445,3979.973969456431,4221.082236895828,4447.952443117195,4365.027471188006,4101.902735460131,4119.828834513287,4432.4179807207565,4414.178957245226,4166.29811123587,4252.2182169220705,4555.620796158409,4582.24172380468,4375.577494570911,4346.833151201386,4568.942435853772,4602.715921725741,4367.664977033732,4295.200621509626,4601.91125892535,4748.248129874245,4557.252473503647,4353.2928053489695,4511.7219700481855,4700.21423103979,4555.866665347417,4290.283237729459,4421.957364315673,4648.179369947836,4144.438105158581,3881.849811297633,4030.421856692059,4362.121744408816,4399.829137304919,4170.589646171289,4168.242713003482,4466.012652637083,4488.520859303577,4209.124053612239,4140.213625456528,4461.654062468298,4585.885058150895,4299.022769811484,4222.468045052057,4441.82806513644,4598.312628068045,4470.997091650616,4300.050950056428,4425.488939939612,4618.3397911,4449.114733828871,4279.0403102684395,4425.734809128619,4682.645759897919,4576.47497373521,4276.402804422713,4316.524185719989,4609.890831695894,4585.0356918615935,4307.762301893509,4308.991647838551,4546.61304314292,4545.093124519959,4335.679630718188,4240.975289461051,4508.9056502468175,4959.472114976897,4769.8175632736165,4565.947302096761,4689.664207656885,4776.7466040547615,4492.097138416426,4245.356231374291,4396.878707036818,4593.57405824352,4382.3500731408685,4163.057108289851,4275.1064032443055,4488.945542448228,4379.421994617223,4110.351694864237,4121.169939180606,4322.112121833816,4301.459109957113,4052.5947871917238,3988.758205027367,4218.1094548832725,4277.878019556763,4072.5548949903127,4039.4072579630924,4256.420344879669,4388.720320310631,4180.06678582034,4051.7454209024218,4338.831226686386,4602.023017647626,4421.867957337851,4225.55258578689,4513.51010960461,4853.368384047554,4876.502439558797,4772.65623481944,4965.216513301911,5258.940787189101,5152.881759748669,4775.85253427655,4530.139807479359,4666.060765512081,4667.468925412765,4444.934957615728,4531.302098191035,4809.3801509595105,4859.224541094844,4725.583460996564,4632.980183718227,4824.869909867038,4895.59082932363,4710.138405577946,4630.074456939037,4826.367476745543,4983.053205377246,4783.4968308802645,4569.814153887529,4702.874088629972,4907.325495162666,4795.075034508113,4498.981475708661,4520.75207480813,4711.479510245265,4651.912111271872,4342.183988354682,4370.078965434905,4601.643037991887,4590.131889597403,4426.07008529545,4323.341467778858,4559.130020037892,4674.442669682821,4472.31584457348,4345.089715133871,4570.328244010001,4724.085894118059,4543.796723341551,4431.769780131553,4646.391230391411,4838.169197817945,4660.562236376076,4474.9757021636615,4685.93146633285,4915.886213289048,4835.352878016577,4658.975262519749,4733.674792489385,5004.5555835432515,4978.582856486185,4763.961406226326,4780.2781796787,4957.035774831268,5049.706107342971,4906.118500962079,4793.890392051982,5051.851874810681,5157.799143528837,4920.0883412466455,4804.2839532237,4941.255443245822,5092.442642741518,4857.011718393769,4653.722602572751,4840.091447841102,4999.70525499645,4866.5559132761855,4631.035581950615,4474.394556807823,4489.83961222644,4484.676359257264,4269.406708408202,4359.350128096357,4600.167822857836,4544.467275675211,4338.8535784308415,4394.621180846832,4618.116273655448,4631.460265095266,4351.527017537001,4296.429967454668,4548.04355478806,4667.692442857318,4452.042812352516,4333.735028950576,4536.0853715044705,4688.613675667486,4478.417870809779,4280.649635869221,4493.661760528298,4673.4368411823325,4544.310813464023,4295.334731976358,4431.92624234274,4640.400962877388,4545.763676853619,4274.949941033118,4311.875022873285,4606.426311305322,4595.988046644694,4268.534990374445,4304.94598209214,4550.859874589429,4546.881264076384,4289.2550574845145,4250.944167488118,4645.184236190825,5125.500872790918,4909.5830213526515,4692.972265836271,4809.290743981689,4988.5293827687965,4798.159575242946,4617.982163188715,4788.5483251271635,4954.353565496632,4808.776653859217,4584.074566850015,4660.8751607984495,4874.021395924258,4824.847558122583,4634.209529663269,4725.136426107458,4904.106843961102,4802.6299241340075,4553.3409182239675,4574.910351623339,4734.837083201061,4780.524048867708,4565.90259860785,4511.453749114722,4688.032530311648,4783.742700069273,4580.542991226076,4432.865015609863,4624.933555714316,4813.939906828393,4635.617689563953,4423.834910849919,4609.063817151048,4776.4560313768425,4685.015044810181,4600.793671702584,4810.43068294891,5071.744927375905,4975.431260517987,4745.744734495251,4818.276145252722,5002.588630031184,4741.207330370824,4337.512473763522,4240.260033638481,4409.619201376343,4481.949446433717,4339.457075531134,4283.331845203858,4526.138845221859,4640.110390199469,4441.246919780603,4278.302702701414,4509.50914734711,4690.915905346383,4329.1082178483275,4153.6023203852565,4378.8855527502965,4602.648866492375,4473.2769695850575,4172.243675260982,4344.150941866749,4721.470740016787,4591.137718097892,4323.1850055676705,4282.907162059208,4577.838430146984,4531.995002269149,4255.45921986809,4274.949941033118,4501.2166501541915,4595.093976866481,4356.153828639249,4264.779897305953,4470.907684672795,4559.934682838283,4193.254315048971,3694.0951578730537,3903.419244697004,4176.289341007393,4075.9076566586086,3899.4406341839594,4101.545107548846,4322.3579910228245,4248.418420364669,4062.3401477742373,4189.968608614041,4432.753256887586,4371.129497424305,4159.279663476904,4229.866472466764,4538.141731994358,4532.956127280728,4294.842993598341,4254.408687878691,4439.905815113284,4556.648976403353,4362.658186275743,4322.514453234012,4535.995964526649,4635.72944828623,4467.197295093214,4288.271580728481,4339.747648209053,4513.174833437781,4403.2489542065805,4239.41066734918,4286.304627216414,4470.192428850225,4406.221736219137,4159.614939643734,4254.453391367601,4512.70544680422,4385.389910386791,4205.056036121373,4302.643752413243,4464.1798095917475,4461.050565368005,4255.570978590367,4276.916894545186,4470.415946294778,4515.566470094499,4299.648618656232,4247.07731569735,4416.5705939019435,4492.8794494723625,4292.339598219347,4132.725791063999,4374.839887003885,4627.146378415391,4402.936029784207,4240.1259231717495,4423.834910849919,4598.044407134582,4536.308888949024,4307.650543171232,4330.628136471288,4625.112369669959,4610.069645651537,4300.207412267615,4323.453226501135,4587.71790119623,4621.893718468395,4418.068160780449,4365.318043865925,4574.2397992896795,4670.173486491858,4447.393649505812,4332.7515521945425,4565.321453252012,4660.383422420433,4475.556847519499,4273.117097987783,4472.584065506943,4665.725489345252,4463.330443302446,4302.42023496869,4516.5946503394425,4726.633992985963,4554.23498800218,4294.351255220325,4464.872713669863,4691.385291979944,4602.2912385810905,4407.0040472750725,4413.821329333941,4605.532241527109,4658.952910775293,4410.960306043662,4323.229709056582,4485.548077291021,4571.2446655326685,4371.5318288245,4269.205542708104,4452.020460608061,4583.3369592829895,4378.1255934388155,4202.463233764557,4458.614225222376,4718.207385326313,4499.361455364401,4301.123833790282,4497.12628091887,4840.583186219119,4903.726864305361,4746.41528682891,4847.735744444817,5066.246398239899,4956.5440364532515,4486.732719747152,4261.0248042374615,4401.4831663946115,4437.804751134486,4236.415533592169,4236.370830103258,4532.866720302906,4623.927727213827,4514.851214271929,4330.248156815548,4529.871586545895,4695.162736792891,4586.399148273367,4386.887477265296,4458.703632200198,4712.395931767933,4562.303967750546,4333.757380695031,4479.758975477097,4689.395986723422,4594.334017555001,4334.115008606316,4389.748500555575,4611.656619507864,4725.918737163393,4867.293520843211,4815.258659751255,4973.061975605724,4972.659644205528,4726.0304958856705,4664.920826544861,4853.748363703295,4948.832684616171,4772.142144696969,4671.0899080145255,4810.408331204454,4977.353510541143,4766.397746371955,4597.887944923395,4745.923548450894,4899.055349714202,4743.733077494273,4538.56641513901,4693.2181350252795,4907.079625973657,4807.882584081004,4525.356534165923,4567.176648041803,4835.4422849943985,4820.690133653896,4666.5078004011875,4618.049218422082,4838.169197817945,4891.29929438821,4641.496198355699,4624.86650048095,4843.690078698406,4885.3984338520095,4752.360850854022,4599.832546691006,4780.300531423156,4841.499607741786,4287.936304561652,3907.129634276585,4112.519814076401,4352.868122204319,4274.681720099655,4061.04374659583,4168.667396148133,4414.82715783443,4397.281038437014,4152.820009329321,4118.398322868147,4392.765986057042,4369.296654378969,4141.062991745829,4119.270040901904,4413.553108400477,4525.602403354932,4275.821659066875,4164.152343768161,4454.1438763313145,4615.05408466507,4367.396756100268,4225.463178809068,4447.9747948616505,4533.403162169834,4382.327721396413,4180.960855598552,4340.105276120338,4588.723729696719,4432.038001065016,4176.44580321858,4323.609688712321,4571.669348677319,4462.928111902251,4259.929568759152,4255.123943701261,4492.767690750085,4462.592835735421,4215.226079848538,4194.97539937203,4467.532571260044,4556.179589769792,4389.972018000129,4607.990933417193,4797.198450231368,4857.726974216339,4681.751690119707,4467.420812537767,4604.705226982263,4802.786386345195,4558.772392126607,4342.675726732698,4466.571446248466,4651.710945571774,4557.028956059094,4282.571885892378,4356.645567017265,4616.261078865657,4573.703357422753,4302.911973346707,4350.789409969975,4576.81024990204,4525.110664976914,4215.471949037546,4210.263992579459,4512.3701706373895,4489.392577337334,4180.424413731625,4071.4373077675473,4359.618349029822,4526.854101044429,4281.409595180702,4100.785148237365,4297.145223277238,4458.256597311091,4339.635889486777,4125.372067138203,4249.536007587434,4500.32258037598,4437.134198800826,4260.153086203705,4460.000033378606,4825.76397964525,4851.200264835389,4630.365029616956,4691.675864657863,4780.3899384009765,4535.571281381998,4078.612217737701,3933.728210178401,4203.781986687421,4366.636796788788,4188.381634757714,4077.2711130703824,4355.617386772321,4561.387546227878,4346.408468056735,4211.448635035591,4481.994149922628,4629.560366816565,4486.531554047055,4234.850911480297,4350.074154147405,4607.365084572445,4504.837632755952,4192.9860941155075,4342.295747076958,4650.258082182179,4558.839447359973,4352.510494293034,4386.641608076287,4610.360218329456,4615.3893608319,4323.967316623606,4269.697281086121,4493.9970366951275,4603.72175022623,4372.649416047266,4275.08405149985,4533.291403447557,4683.673940142863,4465.185638092236,4226.9160421986635,4451.931053630239,4713.98290562426,4602.715921725741,4348.62129075781,4490.2419436266355,4774.824354031605,4689.373634978966,4435.614280177865,4526.22825219968,4694.670998414874,4737.452237302332,4485.056338913005,4479.490754543634,4778.579447100097,4830.659011680962,4565.008528829638,4492.946504705728,4715.033437613659,4885.10786117409,4669.145306246914,4468.851324182907,4668.966492291271,4838.325660029132,4685.462079699288,4452.579254219443,4446.253710538592,4457.116658343871,4070.386775778148,3872.4173751374933,4064.2400460529384,4338.294784819458,4240.304737127392,4011.7134465829668,4096.650075513134,4338.42889528619,4375.86806724883,4131.6752590746,4148.394363927169,4382.685349307698,4435.16724528876,4164.644082146177,4096.851241213231,4349.895340191762,4430.629841164332,4169.025024059418,4021.2799932098383,4285.924647560674,4473.5675422629765,4269.384356663747,4011.288763438316,4210.621620490744,4373.141154425282,4240.863530738775,4033.4616939379807,4191.577934214823,4501.4625193432,4433.423809221245,4173.16009678365,4215.449597293091,4554.190284513269,4588.746081441174,4317.1947380536485,4289.299760973426,4643.306689656579,4715.435769013854,4392.006026745561,4327.364781780813,4579.961845870238,5023.979249474914,5018.212499405444,4742.146103637946,4932.672373374984,5041.055982238768,4828.066209324147,4531.771484824596,4651.576835105042,4910.410035897498,4768.789383028672,4480.764803977586,4594.401072788367,4864.946587675404,4775.003167987248,4452.758068175086,4471.779402706552,4794.3597786855435,4808.3296189701105,4476.517972531077,4405.305314696469,4724.667039473897,4758.976967212792,4419.118692769849,4326.917746891707,4561.454601461244,4691.184126279846,4418.269326480547,4281.0966707583275,4475.065109141482,4719.772007438184,4526.697638833241,4245.579748818845,4399.247991949081,4682.109318030992,4570.328244010001,4231.721667256555,4406.914640297251,4686.847887855517,4691.765271635684,4523.233118442669,4714.02760911317,5053.6847178560165,5051.874226555136,4734.41240005641,4486.710368002698,4509.039760713549,4391.179012200715,4062.2507407964163,3987.9758939714307,4259.035498980939,4528.262260945113,4325.755456180031,4179.060957319851,4394.978808758117,4602.58181125901,4452.780419919542,4245.311527885381,4442.655079681287,4623.547747558087,4488.990245937139,4242.606966806289,4343.681555233187,4634.544805830098,4505.530536834066,4161.805410600354,4235.007373691485,4557.453639203744,4603.140604870392,4255.995661735018,4177.295169507882,4482.687054000742,4573.323377767012,4302.241421013048,4209.92871641263,4480.563638277488,4591.115366353437,4357.2267123731035,4190.30388478087,4429.109922541371,4618.228032377724,4465.744431703619,4242.986946462029,4363.418145587224,4628.48748308271,4534.788970326063,4291.669045885688,4377.231523660604,4598.156165856858,4551.820999601006,4247.770219775465,4296.385263965758,4593.3728925434225,4638.657526809875,4357.651395517754,4288.696263873132,4525.423589399289,4660.115201486969,4376.493916093578,4258.834333280842,4505.932868234261,4614.830567220517,4399.91854428274,4244.328051129348,4441.425733736245,4656.762439818674,4453.898007142307,4212.655629236177,4322.447398000646,4537.180606982781,4430.428675464234,4057.825095394265,4063.5694937192793,3931.3812770105933,3862.33673838815,3690.3624165490173,3744.587748597592,4078.545162504335,4094.3031423453267,3831.2454618508177,3734.1941874258746,3996.514260353358,4214.711989726065,3914.863337858121,3758.98227202681,4033.394638704615,4193.6342947047115,3975.1459926540847,3788.3077607521727,4021.5035106543914,4284.22591498207,4067.1010693432177,3801.4058830029826,3935.1587218235404,4189.767442913943,4136.279718432394,3863.2308081663623,3959.9691581689312,4180.849096876275,4172.936579339097,3903.039265041264,3934.8681491456214,4211.3592280577695,4221.305754340381,3898.2783434722837,3869.9586832474097,4100.606334281723,4196.9200011396415,3989.4734608499366,3784.8432403616002,4009.679437837534,4231.095818411805,4157.737393109488,4365.3850990992905,4463.375146791357,4604.5264130266205,4465.587969492432,4179.060957319851,4289.791499351442,4549.049383288549,4509.911478747306,4216.522481026946,4216.567184515856,4494.444071584234,4504.234135655658,4208.2523355784815,4244.395106362714,4508.70448454672,4518.628659084876,4269.831391552852,4116.990162967463,4363.082869420394,4505.84346125644,4255.570978590367,4075.0135868803964,4329.555252737433,4523.0543044870265,4309.393979238746,4094.481956300969,4259.214312936582,4512.996019482139,4359.663052518732,4114.106787932728,4212.432111791624,4503.5635833219985,4534.341935436957,4323.520281734501,4502.4459960992335,4832.8047791486715,4904.553878850207,4649.051087981593,4506.93869673475,4594.937514655294,4382.528887096511,3982.1420886685955,3829.6137845055805,4196.674131950633,4416.324724712936,4218.467082794557,4106.618953540201,4362.255854875548,4548.088258276971,4351.8846454482855,4100.7180930039995,4239.611833049278,4470.147725361315,4408.099282753383,4127.942517750564,4241.198806905604,4458.770687433564,4423.276117238536,4124.746218293455,4156.843323331275,4475.467440541678,4506.961048479206,4211.40393154668,4121.751084536443,4406.780529830519,4527.502301633633,4275.978121278063,4073.6054269797123,4370.458945090645,4544.489627419666,4324.1237788347935,4094.638418512156,4240.192978405115,4494.958161706706,4357.182008884193,4078.3663485486927,4231.185225389627,4479.155478376803,4336.19372084066,4107.71418901851,4170.902570593664,4467.241998582125,4489.660798270797,4216.678943238133,4230.358210844781,4495.852231484918,4567.064889319527,4297.368740721791,4237.041382436917,4573.032805089093,4705.176318308869,4426.360657973368,4333.243290572559,4599.072587379526,4754.596025299553,4556.246645003158,4361.562950797433,4563.019223573116,4778.981778500292,4596.81506118954,4336.484293518579,4385.9934074870835,4588.0308256186045,4543.573205896999,3917.769064637311,3708.8920127024667,4110.709322775522,4157.335061709293,3915.712704147423,3954.560036010747,4259.638996081233,4285.745833605031,4027.247908979405,3972.8884664640987,4313.193775796149,4469.3430625609235,4171.304901993859,4024.7668653448663,4269.026728752462,4510.202051425225,4350.968223925617,4072.6666537125893,4246.183245919138,4569.992967843172,4377.790317271986,4084.0436916403405,4206.397140788691,4479.714271988186,4459.530646745044,4124.857977015731,4186.727605668021,4473.612245751888,4473.344024818423,4165.761669368943,4096.873592957687,4378.10324169436,4376.873895749319,4105.635476784168,4030.645374136612,4337.311308063425,4439.794056391008,4148.304956949349,3978.163478155551,4259.437830381135,4778.981778500292,4799.835956077094,4460.804696178996,4575.491496979177,4736.647574501941,4542.61208088542,4334.42793302869,4399.672675093731,4617.825700977529,4601.285410080602,4242.092876683817,4258.342594902825,4556.604272914443,4522.56256610901,4180.290303264893,4160.576064655312,4491.672455271775,4559.107668293437,4251.704126799599,4132.569328852812,4404.835928062907,4517.175795695281,4227.139559643217,4066.4081652651034,4305.70594140362,4519.27685967408,4284.672949871177,4054.874665126165,4271.775993320464,4497.439205341245,4315.183081052671,4052.281862769349,4154.58579714129,4471.846457939918,4378.05853820545,4031.874720081654,4037.842635851221,4309.28222051647,4394.956457013662,4227.340725343314,4303.359008235813,4646.100657713492,4728.690353475851,4425.108960283871,4305.035389069962,4405.439425163201,4242.9422429731185,3814.9286883984437,3525.9429843357784,3861.129744187563,4197.724663940032,4087.776432964377,3830.7313717283455,4048.482066211947,4322.134473578271,4182.301960265871,3915.86916635861,4044.5034556989026,4323.9449648791515,4248.463123853579,3978.1187746666405,3993.317960896249,4308.321095504892,4313.730217663076,4037.8873393401313,4020.4306269205367,4266.746850818021,4343.458037788634,4064.262397797394,3955.230588344406,4194.327198782826,4388.116823210338,4096.158337135117,3930.174282810007,4200.362169785759,4377.611503316343,4157.8268000873095,3904.358017964127,4064.262397797394,4367.1508869112595,4299.156880278216,4007.5336703698244,4109.8152529973095,4398.130404726316,4350.074154147405,4055.3887552486367,4130.155340451639,4434.340230743913,4453.294510042013,4168.734451381499,4107.736540762966,4418.984582303117,4529.893938290351,4278.727385846065,4135.475055632002,4368.29082587848,4553.3409182239675,4341.871063932307,4101.589811037757,4294.775938364975,4515.857042772418,4338.227729586092,4064.418860008581,4236.616699292266,4521.89201377535,4386.82042203193,3996.0448737197967,3582.179973385331,3830.0608193946864,3891.014026524309,3644.0272502931657,3702.0523788991427,4003.398597645593,4060.8425808957318,3830.9548891728987,3710.0319516696877,3952.4142685430375,4102.863860471709,3858.4475348529263,3686.8084891806234,3973.9613501979534,4200.406873274669,3955.0741261332187,3639.981584546755,3780.5740571706365,4079.8415636827426,3999.5988010881906,3708.824957469101,3883.3473781761386,4126.7802270388875,4038.0885050402294,3731.891957746978,3764.6149116295474,4095.5324882903683,4132.7034393195445,3849.9315202154544,3857.821686008178,4140.168921967616,4184.514782966946,3937.907986391543,3834.844092708122,4126.221433427505,4266.858609540297,3928.497901975859,3813.788749431223,4075.102993858218,4218.131806627727,4047.9232726005644,3803.1269673260413,3985.517202081347,4299.447452956135,4156.06101227534,4247.300833141903,4497.372150107879,4634.477750596732,4481.882391200351,4130.088285218273,4208.297039067393,4430.898062097795,4341.893415676763,4049.264377267883,4004.5385366128135,4295.602952909822,4362.725241509109,4068.0174908658855,3980.5104113233583,4296.318208732392,4431.546262686999,4183.665416677644,4019.8718333091538,4178.099832308273,4406.646419363788,4198.819899418342,3939.87493990361,4113.235069898971,4343.592148255366,4225.820806720353,3890.455232912926,3945.820503928722,4226.737228243021,4162.833590845298,3841.6390230225356,3937.7291724359006,4222.490396796513,4162.475962934013,3897.585439394169,3906.5708406652025,4222.848024707798,4301.503813446023,4121.952250236542,4140.459494645535,4529.268089445602,4738.323955336089,4470.862981183885,4277.095708500828,4403.606582117865,4346.296709334459,3957.801038956766,3666.468401726294,3858.6710522974795,4209.772254201443,4146.762686581932,3872.9538170044207,4014.0156762618635,4323.587336967867,4251.257091910493,3942.6018527271576,4001.543402855802,4265.852781039808,4298.151051777727,3983.840821247199,3940.9254718930097,4222.9821351745295,4296.251153499026,4029.0807520247404,3919.2889832602723,4225.574937531345,4404.120672240338,4120.834663013776,3913.4328262129816,4162.028928044907,4362.457020575645,4202.999675631485,3963.366623326138,4154.988128541485,4417.174091002237,4267.149182218216,3989.8981439945874,4132.792846297365,4401.885497794807,4309.170461794193,4032.32175497076,4089.899848687631,4407.16050948626,4461.050565368005,4105.523718061891,4042.290632997827,4357.76315424003,4456.356699032391,4190.885030136708,4057.199246549517,4310.489214717057,4476.160344619792,4269.585522363845,4086.860011441709,4301.123833790282,4529.201034212236,4362.635834531287,4111.469282087002,4261.896522271219,4513.353647393424,4443.839722137418,4158.497352420968,4206.330085555325,4449.941748373717,4387.558029598955,3807.2396883058177,3484.614608837916,3849.1492091595187,3888.9576660344205,3626.637593106937,3630.795017575624,3923.8263873846995,3997.0283504758304,3789.3135892526616,3642.015593292188,3822.5729850021585,4036.926214328553,3824.0258483917537,3603.6152963179707,3842.108409656097,4059.903807628609,3900.9829045513757,3653.5043899422158,3808.0890545951197,4073.1136886016952,3962.047870403275,3674.3809192634726,3752.3214521791283,4081.450889283525,4055.4334587375474,3765.017243029743,3747.2252544433186,4101.0086656819185,4144.885140047686,3810.592449974114,3686.0932333580536,3988.0876526937072,4153.848189574264,3847.3163661141834,3746.6441090874805,4005.454958135481,4175.931713096108,3936.1198468351186,3696.4197392964056,3883.6379508540576,4112.855090243232,3921.4123989835266,3713.0941406600646,3902.0334365407753,4239.321260371359,4580.788860415085,4320.927479377685,4283.1530312482155,4519.65683932982,4460.514123501078,4101.410997082115,4098.684084258567,4420.25863173707,4448.466533239667,4130.736485807477,4005.320847668749,4247.41259186418,4408.568669386944,4148.349660438259,3963.5454372817803,4172.198971772072,4369.587227056888,4126.199081683049,3907.6660761435123,4074.2759793133714,4358.120782151315,4203.670227965144,3893.7632910923116,4067.972787376975,4323.721447434598,4197.635256962211,3884.4202619099933,3865.5330378452586,4211.538042013412,4242.1152284282725,3939.0926288476744,3867.947026246432,4178.233942775005,4266.053946739906,3925.838044385677,3818.5943744891138,4124.679163060089,4246.071487196861,3948.4356580299927,3797.986066101321,4044.190531276528,4294.351255220325,4132.278756174893,3954.649442988568,4244.618623807267,4591.137718097892,4473.545190518522,4200.183355830116,4267.864438040786,4269.250246197015,3923.7593321513336,3510.2967632170635,3625.2964884396183,3981.203315401473,4049.0855633122405,3844.6118050350915,3826.752761215301,4140.39243941217,4228.927699199641,3926.262727530328,3816.828586677145,4117.616011812212,4240.148274916205,3978.1187746666405,3804.266906293262,4056.0369558378407,4231.989888190018,4043.519978942869,3804.8704033935555,3959.097440135174,4263.617606594277,4148.953157538553,3809.8324906626335,3914.2821925022836,4223.004486918984,4201.479757008524,3847.159903902996,3919.065465815719,4230.469969567057,4251.011222721484,3898.0324742832754,3832.586566518136,4172.9142275946415,4291.959618563606,4011.3334669272267,3860.9956337208314,4174.702367151066,4330.516377749012,4086.6811974860666,3905.140329020063,4162.140686767183,4346.0731918899055,4166.007538557951,3938.1091520916407,4124.522700848902,4427.947631829695,4301.392054723747,3963.813658215244,4100.494575559446,4390.575515100421,4329.309383548425,4061.513133229391,4052.6618424250896,4364.28986362098,4377.432689360701,4054.941720359531,3968.619283273135,4232.593385290312,4349.895340191762,4023.8280920777433,3910.4600442004257,3908.1801662659846,3678.404233265428,3538.6834786753034,3415.3018492820083,3652.1632852748976,3951.5425505092803,3799.885964380022,3512.509585918139,3697.358512563528,3978.7222717669338,3819.555499500692,3489.6884548292705,3641.4120961918948,3955.4764575334143,3923.267593773317,3561.504609764172,3621.8096163045907,3957.219893600928,4003.1750802010397,3656.5442271881375,3601.603639316993,3899.887669073066,4014.797987317799,3775.6343216460136,3569.640644745904,3826.529243770748,4049.8008191348104,3810.9053743964882,3602.8106335175794,3852.52432257227,4111.9833722094745,3913.4328262129816,3660.0534510676207,3848.6127672925913,4124.321535148804,4012.227536705439,3705.785120223179,3764.6372633740025,4109.770549508399,4049.957281345997,3694.2292683397854,3749.527484122215,4077.4946305149356,4101.746273248944,3754.5119231357485,3678.5606954766154,3973.3802048421153,4088.37993006467,3764.4137459294498,3622.4578168937946,3918.104340804141,4104.495537816946,3891.394006180049,3622.4578168937946,3838.979165432354,4120.253517657938,3978.588161300202,3658.466477211294,3818.2814500667396,4162.811239100843,4055.6793279265557,3743.581920097103,3808.8490139066,4116.297258889349,4163.280625734404,3869.332834402661,3777.690682135902,4073.6054269797123,4105.210793639516,3768.012376786754,3649.6151864069925,3962.7631262258446,4079.863915427198,3813.006438375287,3614.277078423152,3891.9080963025212,4097.387683080159,3870.517476858792,3570.8252872020353,3793.426310232438,4123.650982815145,3967.524047794825,3656.2313027657633,3819.779016945245,4243.992774962518,4258.588464091833,4064.3071012863043,4161.559541411346,4491.381882593856,4483.223495867669,4073.2701508128825,3711.1495388924527,3845.148246902019,3867.321177401683,3583.8563542194793,3556.0060806281667,4192.896687137686,4668.295939957612,4341.446380787656,4069.6715199555783,4219.651725250688,4421.2644602375585,4148.684936605088,3928.6320124425906,4117.928936234586,4339.680592975687,4144.1475324806615,3820.2931070677173,3959.902102935565,4230.022934677951,4135.430352143091,3836.095790397619,3953.934187165998,4249.0442692094175,4229.2629753664705,3898.904192317032,3880.553410119225,4189.2310010470155,4289.612685395799,4004.091501723707,3865.264816911795,4119.985296724474,4281.878981814263,4004.1138534681627,3834.3076508411946,4047.386830733637,4295.267676742992,4102.90856396062,3820.2260518343514,4011.847557049699,4304.18602278066,4183.061919577351,3860.101563942619,4011.5346326273243,4357.33847109538,4297.346388977336,3970.005091429364,4021.1458827431065,4364.24516013207,4409.708608354164,4100.606334281723,4091.866802199698,4395.224677947125,4542.522673907599,4263.774068805465,4072.6219502236786,4288.5621534064,4476.406213808801,4219.651725250688,4032.768789859866,4214.220251348049,4392.877744779318,4150.763648839432,3692.9105154169224,3357.969624754146,3728.0698094451204,3666.468401726294,3418.3416865279305,3544.1596560668536,3806.815005161167,3739.245681672774,3503.479481158195,3538.6164234419375,3861.710889543401,3894.4785469148815,3577.9331419388227,3538.929347864312,3838.263909609784,4039.7201823854666,3735.9599752378435,3527.0382198140887,3871.836229781655,4069.157429833106,3830.7984269617114,3570.1100313794655,3837.012211920287,4077.584037492757,3883.526192131781,3630.9961832757217,3743.045478230176,4018.5307286418356,3925.1004368186523,3584.951589697789,3667.2283610377744,4045.2857667548383,3988.6911497940005,3658.0641458110986,3641.277985725163,4023.9174990555643,4012.4734058944473,3685.4450327688496,3670.1117360725093,3986.187754415006,4071.504363000913,3743.604271841559,3726.9075187334442,4517.913403262306,4730.813769199106,4309.706903661121,4049.3090807567933,4222.31158284087,4469.857152683396,4269.183190963649,3930.2413380433727,4035.965089316975,4312.634982184766,4200.451576763579,3862.2249796658734,3942.0430591157747,4241.623490050255,4164.77819261291,3883.6379508540576,3865.5330378452586,4186.682902179111,4254.453391367601,3864.6389680670463,3763.2738069622287,4072.4654880124917,4215.427245548635,3932.9235473780095,3723.1971291538634,3968.239303617395,4191.443823748091,3954.0906493771854,3723.4429983428718,3961.422021558526,4205.346608799292,4047.096258055718,3756.233007458807,3866.8964942570324,4168.645044403678,4067.637511210145,3736.6752310604134,3805.786824916223,4233.710972513077,4293.501888931023,4066.3634617761927,4185.453556234069,4527.010563255616,4521.981420753172,3989.4958125943917,3608.957363242789,3765.2854639632064,3824.5175867697703,3566.80197320008,3477.1714779342983,3848.769229503778,4124.232128170983,3912.4717012014034,3698.1408236194643,3838.263909609784,4131.831721285787,4032.5005689264026,3743.894844519478,3858.9839767198537,4161.067803033328,4059.5685314617795,3781.3787199710277,3831.267813595273,4137.687878333078,4150.473076161513,3787.7489671407902,3777.9589030693655,4082.635531739656,4154.116410507728,3819.0190576337645,3730.7073152908465,4070.1185548446842,4221.1045886402835,3886.297808444239,3701.8735649435002,3982.3656061131487,4219.316449083859,4007.019580247352,3749.4157253999383,3944.1217713501183,4240.774123760953,4075.930008403064,3804.6021824600916,3949.106210363652,4237.309603370381,4184.8277073893205,3898.0324742832754,3952.928358665509,4296.2958569879365,4291.601990652322,3948.1897888409844,3875.7030815724233,4230.022934677951,4348.442476802168,4044.32464174326,3921.0547710722417,4235.566167302867,4321.106293333327,4039.0943335407183,3850.490313826837,4101.0086656819185,4388.832079032908,4192.0473208483845,3841.683726511446,4006.0808069802297,4317.261793287014,4132.479921874991,3790.498231708793,3873.803183293722,4103.333247105271,3551.446324759284,3220.841672520837,3353.18635144071,3765.8442575745894,3801.6294004475358,3479.674873313293,3401.734340397637,3746.6664608319356,3900.7370353623674,3582.4928978077055,3426.6341837208493,3723.957088465344,3912.8293291126884,3666.4907534707495,3442.9509571732233,3598.049711948599,3885.1131659881075,3733.2777659032067,3499.344408433963,3621.3849331599395,3895.9314103044762,3819.3766855450494,3490.962504263223,3614.657058078892,3966.1158878941405,3951.2072743424505,3628.67160185237,3598.3849881154288,3927.6932391754676,4007.019580247352,3708.73555049128,3639.5569014021044,3973.201390886473,4082.322607317282,3767.8112110866564,3631.24205246473,3925.6592304300348,4121.505215347435,3871.545657103736,3785.17851652843,4456.468457754667,4585.639188961886,4320.502796233034,3984.6231323031348,4130.736485807477,4343.592148255366,4186.8840678792085,3937.8632829026324,3986.232457903917,4261.427135637658,4274.927589288663,3924.005201340342,3900.4464626844483,4233.398048090702,4321.821549155897,4027.4267229350476,3845.6623370244906,4108.116520418706,4255.3251094013585,3944.837027172688,3702.58882076607,4036.635641650634,4268.803211307909,3977.783498499811,3729.790893768179,3906.5708406652025,4174.948236340075,4025.1468450006064,3688.909553159422,3818.773188444756,4123.092189203762,3985.3383881257046,3667.1613058044086,3842.0190026782757,4153.490561662979,4207.514728011457,4017.5249001413467,4116.2078519115275,4467.800792193508,4577.883133635894,4264.757545561498,3925.2792507742947,3985.852478248177,3963.657196004057,3607.9291829978447,3403.678942165249,3758.110553993053,4057.6909849275335,3882.1850874644624,3668.703576171825,3876.5747996061805,4150.741297094977,4003.488004623414,3687.4566897698273,3852.390212105538,4156.709212864544,4054.226464536961,3661.7074801573135,3723.331239620595,4110.552860564335,4083.931932918064,3798.3213422681506,3737.949280494366,4012.607516361179,4143.2087592135385,3885.7390148328564,3765.8442575745894,4002.191603445006,4212.029780391429,4001.3198854112493,3744.3865828974945,4026.13032175664,4299.492156445045,4044.0787725542514,3773.108574522564,3967.5016960503694,4243.858664495786,4120.119407191206,3813.6769907089465,3904.492128430859,4215.382542059725,4166.611035658245,3830.396095561516,3866.650625068024,4204.921925654641,4285.298798715925,3937.8185794137216,3892.8021660807335,4234.426228335647,4296.809947110409,3992.5580015847686,3836.3193078421723,4171.371957227225,4370.928331724207,4125.684991560578,3930.39780025456,4096.560668535312,4348.151904124249,4171.863695605242,3918.39491348206,4062.5189617298797,4312.076188573384,4182.100794565773,3830.4407990504264,3908.5154424328143,3863.9013605000214,3421.806206918503,3237.426666906675,3366.351528924886,3740.296213662173,3749.751001566768,3436.7148204701925,3429.294041311031,3751.36032716755,3844.52239805727,3551.826304415024,3376.3651104408636,3715.2846116166847,3942.221873071417,3679.8123931661125,3400.549697941506,3642.976718303766,3957.4434110454813,3785.2232200173403,3512.733103362692,3703.8405184555672,4034.959260816486,3825.8139879481782,3548.7417636801915,3679.722986188291,3974.07310892023,3965.5347425383025,3660.433430723361,3627.218738462775,3931.135407821585,3988.6911497940005,3675.878486141978,3590.0030839446886,3877.5582763622137,4025.0127345338747,3762.7373650953014,3552.8768364044236,3803.5740022151476,4052.997118591919,3806.9267638834435,3573.015758158655,3790.0959003085973,4069.6268164666676,3877.044186239742,3604.2858486516297,3738.888053761489,4011.4005221605926,3893.5174219033033,3836.587528775636,4376.449212604668,4599.452567035266,4460.201199078703,4036.4344759505366,4001.9904377449084,4306.152976292727,4346.2520058455475,4055.3664035041816,3942.3336317936937,4168.198009514572,4348.844808202363,4039.0943335407183,3799.975371357843,4073.8512961687206,4271.932455531652,3922.909965862032,3672.0339860956656,3874.116107716097,4156.597454142267,4002.392769145104,3655.4936951987384,3837.079267153653,4102.19330813805,4022.8222635772545,3655.1360672874534,3745.951205009366,4064.5306187308574,4046.5821679332457,3748.5887108550924,3725.3205448771173,4139.788942311877,4339.904110420241,4033.2381764934275,4024.31983045576,4408.8815938093185,4565.343804996468,4225.351420086792,3830.105522883597,3838.5097787987925,3955.945844166976,3661.6404249239476,3399.4991659521065,3729.723838534813,4108.38474135217,3940.5007887483584,3642.976718303766,3775.9248943239327,4118.599488568245,3995.6648940640566,3659.6734714118807,3756.009490014254,4104.7637587504105,4102.349770349237,3720.8054924971457,3721.0066581972433,4085.2059823520167,4174.188277028594,3854.357165617605,3733.6353938144916,4032.1429410151177,4243.4116296066795,3937.68446894699,3713.943506949366,3988.780556771822,4260.756583303998,4030.8912433256205,3698.498451530749,3889.6729218569903,4166.745146124977,3994.010864974364,3696.2185735963076,3809.988952873821,4159.704346621555,4089.005778909419,3737.5022456052598,3762.424440672927,4115.470244344502,4172.400137472169,3802.0540835921865,3748.141675965986,4137.7549335664435,4260.533065859445,3928.3190880202164,3785.625551417536,4102.19330813805,4351.4152588147235,4081.1826683500612,3845.818799235678,4093.7667004783993,4311.740912406553,4132.189349197072,3864.4825058558595,4017.5696036302575,4319.228746799082,4135.899738776653,3817.1862145884297,3867.947026246432,4192.494355737491,4144.527512136401,3451.131695643866,3105.596078109274,3537.0741530745213,3672.9057041294222,3346.2126071706543,3304.548955505962,3693.2234398392966,3811.0618366076756,3472.276445898586,3312.103845131856,3584.2363338752193,3813.4534732643933,3628.5821948745483,3377.1474214967993,3599.703741038292,3870.9645117478985,3688.462518270316,3380.2096104871766,3570.7582319686694,3864.3483953891273,3807.709074939379,3498.2268212111976,3574.245104103697,3891.6398753690573,3907.5766691656913,3555.246121316686,3535.5989379404714,3909.7000848889456,3958.2480738458726,3617.0486947356103,3514.7447603636697,3849.104505670608,4004.2703156793496,3696.106814874031,3522.3890569673845,3808.714903439868,4052.5277319583574,3770.4263651879273,3525.1606732798427,3832.810083962689,4567.534275953088,4446.968966361162,4035.8309788502434,4211.761559457965,4478.574333020965,4274.0558712549055,3895.1490992485406,3949.620300486124,4297.771072121986,4266.813906051387,3887.9294857894765,3855.4300493514597,4148.237901715983,4231.609908534278,3919.4677972159147,3763.3855656845053,4074.6559589691115,4248.977213976052,3977.336463610705,3764.391394184994,4019.7600745868776,4278.839144568342,4034.355763716193,3740.855007273556,3975.905951965565,4248.329013386848,4026.7338188569333,3677.845439654045,3822.237708835329,4146.427410415103,4087.9105434311086,3745.9959084982765,3816.0015721322984,4150.361317439237,4143.544035380368,3782.8762868495332,3761.6644813614466,4032.120589270662,4116.05138970034,3844.790618990734,3759.205789471363,4143.544035380368,4377.72326203862,4163.928826323608,4000.3811121441263,4236.0132021919735,4510.336161891957,4227.519539298956,3691.0106171382213,3678.404233265428,3891.0587300132192,3753.9307777799104,3525.384190724396,3694.028102639688,4120.454683358036,4057.713336671989,3657.1030207995204,3749.080449233109,4110.061122186318,4132.39051489717,3734.462408359338,3677.845439654045,4059.546179717324,4178.658625919656,3795.303856766684,3652.923244586378,3950.626128986613,4162.9900530564855,3915.198614024951,3653.1691137753864,3871.0986222146303,4148.81904707182,3999.129414454629,3662.53449470216,3862.9178837439877,4144.885140047686,4055.5005139709133,3710.5013383032488,3814.168729086963,4164.06293679034,4115.2690786444045,3759.518713893737,3778.115365280553,4137.307898677337,4211.40393154668,3854.5136278287923,3748.052268988165,4103.3555988497255,4305.907107103719,3983.326731124727,3779.948208325888,4074.030110124363,4300.162708778705,4032.679382882045,3763.340862195595,4029.9524700584975,4329.532900992978,4135.251538187449,3836.5428252867255,4007.93600177002,4317.038275842461,4220.210518862071,3876.708910072912,3933.9517276229535,4277.587446878844,4262.7235368160655,3863.2084564219067,3810.726560440846,4190.6391609477,3788.9336095969215,3247.5073036560184,3277.2127720371213,3644.586043904548,3739.8715305175224,3459.9829864481676,3360.942406766702,3663.0709365690873,3881.693349086446,3650.9339393298555,3428.422323277274,3617.339267413529,3886.2531049553286,3680.795869922146,3378.421470930752,3516.376437708907,3817.1191593550634,3786.430214217927,3404.4389014767294,3453.9256637007793,3814.2804878092397,3843.851845723611,3523.0372575565884,3453.5680357894944,3818.9967058893094,3914.103378546641,3583.476374563739,3460.7429457596477,3770.940455310399,3964.4395070599926,3654.1972940203304,3446.281367097064,3723.1971291538634,3992.2227254179393,3747.8958067769777,3482.0441582255553,3712.4235883264055,3982.7455857688888,3827.490368782326,3499.322056689508,3622.6142791049815,3974.2966263647827,3899.6865033729678,3541.991536854689,3554.5532172385715,3952.2131028429394,3929.3472682651604,3605.559898085582,3589.4219385888505,3947.6980504629673,4008.0477604922967,3711.3507045925508,3585.8009559870907,3876.9324275174654,4030.0865805252292,3731.5790333246036,3524.3336587349963,3849.2609678817953,4115.202023411039,3847.2940143697283,3589.153717655387,3826.976278659854,4081.7414619614437,3913.6563436575348,3566.1314208664207,3716.3798470949946,4032.075885781752,3935.9186811350205,3569.8865139349123,3587.589095543515,3872.618540837591,3943.87590216111,3664.0320615806654,3566.958435411267,3902.458119685426,4025.638583378623,3695.056282884632,3560.7893539416023,3882.8109363092112,4074.477145013469,3839.4709038103706,3679.6112274660145,4060.060269839796,4411.1167682548485,4204.474890765535,3943.138294594085,4287.757490606009,4922.994068025836,4469.968911405672,3853.3513371171166,3838.1968543764183,4110.284639630871,4147.366183682226,3871.880933270566,3834.1511886300077,4172.131916538706,4223.295059596903,3928.9672886094204,3810.883022652033,4126.377895638692,4266.255112440003,3920.0265908272972,3713.8764517160002,3987.4394521045033,4192.494355737491,3932.0518293442524,3730.2602804017406,4000.001132488386,4209.459329779069,4026.197376990006,3699.012541653221,3878.6311600960685,4208.229983834027,4086.6588457416115,3732.540158336182,3830.194929861418,4205.7265884550325,4173.87535260622,3774.047347789687,3781.334016482117,4159.01144254344,4184.023044588929,3833.167711873974,3793.2251445323404,4169.181486270605,4259.616644336777,3926.4415414859704,3679.3206547880955,3987.3276933822267,4311.159767050715,4032.679382882045,3775.522562923737,4032.0088305483855,4349.515360536023,4091.442119055047,3762.715013350846,3929.3025647762497,4316.546537464445,4249.8712837542635,3891.7963375802447,3933.7952654117666,4305.035389069962,4289.567981906889,3935.4939979903697,3937.30448929125,4229.173568388649,4270.36783341978,3873.177334448974,3755.7412690807905,3706.343913834562,3520.9808970667004,3318.675258001716,3216.8407102633373,3593.75817701318,3824.919918169966,3590.9642089562667,3344.625633314328,3525.741818635681,3806.3232667831503,3631.0632385090876,3375.672206362749,3603.4588341067833,3832.9888979183315,3727.958050722844,3464.2745213835865,3523.50664419015,3901.3852359515713,3827.1327408710413,3509.0003620386556,3475.092765699955,3809.3184005401613,3894.7914713372556,3567.5842842560155,3438.6370704933493,3810.525394740748,3993.317960896249,3701.0689021431094,3438.7264774711703,3739.111571206042,4000.0905394662072,3751.025051000721,3453.8139049785027,3648.184674761853,3999.3529318991823,3799.6400951910136,3475.3386348889635,3628.7833605746464,3914.751579135845,3839.4038485770047,3517.896356331868,3593.6240665464484,3975.704786265467,4474.126335874359,4273.206504965604,4026.867929323665,4287.064586527895,4331.075171360394,4048.929101101053,3846.399944591516,4133.843378286765,4316.9041653757295,4048.124438300662,3766.0007197857763,3951.2072743424505,4236.817864992365,4011.7357983274223,3725.275841388207,3903.9780383083867,4183.866582377742,4034.9145573275755,3695.5480212626485,3843.784790490245,4193.477832493524,4114.218546655005,3778.2271240028294,3814.1240255980524,4106.618953540201,4131.541148607868,3762.782068584212,3653.5267416866714,4010.9534872714867,4171.751936882965,3830.619613006069,3662.3333290020623,3994.3684928856487,4192.337893526304,3859.162790675496,3614.85822377899,3868.2823024132613,4141.822951057309,3975.615379287646,3615.506424368194,3819.5331477562368,4245.915024985674,4197.523498239934,3985.3160363812494,4159.436125688091,4499.137937919848,4453.875655397851,4003.152728456584,3716.2233848838077,3845.9529097024097,3846.3775928470604,3534.213129784242,3535.17425479582,3890.38817767956,4067.034014109852,3808.647848206502,3664.814372636601,3983.93022822502,4214.734341470521,3868.975206491376,3664.3896894919503,3886.0295875107754,4170.902570593664,3977.8729054776322,3630.8173693200793,3846.042316680231,4161.894817578175,4021.1235309986514,3687.6802072143805,3770.7169378658464,4112.475110587491,4093.1408516336505,3738.664536316936,3728.248623400763,4055.3887552486367,4117.727770534489,3750.421553900427,3648.6764131398695,3998.570620843246,4237.98015570404,3904.8274045976887,3664.6579104254142,4004.5608883572686,4247.904330242197,3974.4977920648807,3705.9639341788215,3948.9497481524645,4274.614664866289,4147.165017982128,3798.008417845776,3893.0927387586526,4276.671025356177,4191.73439642601,3845.0364881797423,3901.362884207116,4228.88299571073,4230.760542244976,3923.133483306585,3891.461061413415,4219.718780484054,4281.543705647434,4002.169251700551,3833.5029880408038,4141.666488846122,4352.890473948774,4021.5929176322124,3778.5847519141143,4018.038990263819,3813.0511418641977,3399.4768142076514,3208.8611374927927,3481.150088447343,3839.4038485770047,3691.792928194157,3392.7265873821484,3511.771978351114,3769.979330298821,3734.663574059436,3396.6157909173717,3445.275538596575,3830.1278746280523,3791.4817084648266,3410.6973899242153,3390.267895492065,3765.2631122187513,3894.6350091260683,3526.9041093473566,3396.414625217274,3727.019277455721,3874.227866438373,3647.156494516909,3420.2415848066316,3695.5480212626485,3940.4784370039033,3746.0182602427317,3450.863474710402,3717.7433035067684,3957.9798529124087,3834.8887961970327,3515.7729406086137,3590.6736362783477,3947.765105696333,3924.809864140733,3559.314138807552,3570.4229558018396,3926.7321141638895,3990.83691726171,3605.448139363306,3518.701019132259,3893.9644567924092,4056.4392872380363,3709.696675502858,3501.959562535234,3823.8023309472005,4339.010040642028,4371.285959635492,3972.821411230733,4165.962835069041,4419.655134636776,4161.313672222337,3783.278618249729,3942.7583149383445,4255.213350679082,4104.540241305857,3771.0298622882206,3852.7925435057336,4232.0792951678395,4180.692634665088,3794.298028266195,3837.079267153653,4218.735303728021,4212.879146680731,3866.561218090203,3802.9705051148544,4095.3760260791814,4214.1755478591385,3884.7331863323675,3683.4780792567826,3970.854457718666,4180.267951520437,3876.753613561823,3616.825177291057,3835.9616799308874,4092.291485344349,3944.3229370502163,3624.8941570394227,3745.1241904645194,4063.1448105746285,4000.783443544322,3656.4771719547716,3714.792873238668,4115.202023411039,4190.013312102951,3926.1286170635963,4000.3811121441263,4432.216815020659,4530.430380157278,4202.485585509013,3880.91103803051,3930.3530967656493,3921.6359164280793,3528.5134349481386,3330.029944185012,3708.6461435134584,4005.1420337131067,3809.4748627513486,3573.574551770038,3804.423368504449,4120.946421736053,3930.867186888121,3632.9631367877887,3815.0180953762647,4117.839529256765,4023.291650210816,3619.172110458864,3691.0106171382213,4103.0650261718065,4074.0077583799075,3692.374073549995,3702.2982480881515,4112.072779187296,4153.267044218426,3795.4379672334157,3675.8114309086122,4030.2653944808717,4199.959838385563,3906.1461575205517,3682.1816780783747,3922.8429106286662,4178.368053241737,3981.315074123749,3690.630637482481,3917.456140214937,4214.667286237155,4036.7474003729108,3653.4149829643948,3828.8314734496444,4152.305919206849,4094.7501772344326,3765.0619465186533,3835.402886319505,4167.594512414278,4161.447782689069,3827.4456652934155,3813.1852523309294,4205.950105899586,4341.401677298746,3992.423891118037,3795.393263744505,4145.2651197034265,4362.635834531287,4089.966903920997,3844.1871218904403,4121.684029303077,4417.643477635798,4143.521683635912,3843.42716257896,4014.3733041731484,4357.897264706763,4197.523498239934,3807.41850226146,3853.7983720062225,4159.659643132644,4102.729750004977,3299.966847892624,2976.2688846908673,3509.8497283279576,3629.5209681416713,3278.911504615725,3247.395544933742,3663.2497505247297,3807.3514470280943,3501.4678241572174,3317.5353190344954,3660.0758028120763,3889.6729218569903,3564.5220952656387,3332.8239122419254,3648.9446340733334,3920.0265908272972,3719.6432017854695,3459.290082370053,3601.178956172342,3900.6252766400908,3816.3815517880385,3452.763372989103,3542.639737443893,3883.0791572426747,3838.0850956541417,3503.702998602748,3513.247193485164,3842.6895550119348,3946.736925451389,3545.4337055008064,3476.0985942004436,3860.9956337208314,3979.1916584004953,3660.3887272344505,3483.318207659508,3758.401126670972,4004.158556957073,3771.432193688416,3522.3667052229293,3720.1572919079417,4384.361730141846,4562.751002639652,4106.484843073469,4182.145498054683,4425.064256794961,4289.612685395799,3856.7264505298676,3928.229681042395,4290.03736854045,4270.859571797797,3857.262892396795,3778.9200280809437,4188.471041735535,4255.7944960349205,3861.040337209742,3770.64988263248,4044.8610836101875,4156.1280675087055,3845.5952817911248,3659.2934917561406,3897.8313085831774,4136.324421921304,3921.5018059613476,3607.6609620643812,3821.9918396463204,4143.253462702449,3965.065355904741,3669.240018038752,3811.0841883521307,4162.677128634111,4057.5568744608017,3629.2303954637523,3720.1572919079417,4146.270948203915,4221.618678762756,3945.172303339518,4062.295444285327,4468.538399760532,4502.781272266063,4092.291485344349,3759.429306915916,3885.716663088401,3888.6670933565015,3506.3181527040188,3316.842414956381,3621.340229671029,3977.425870588526,3775.7013768793795,3515.0800365304995,3721.856024486545,4108.094168674251,3944.0547161167524,3607.862127764479,3724.314716376629,4089.318703331793,4031.137112514629,3620.401456403906,3698.565506764115,4083.2390288399497,4118.219508912505,3728.0027542117546,3663.540323202649,4078.1651828485947,4188.918076624641,3843.516569556781,3661.305148757118,3961.9584634254534,4204.474890765535,3903.128672019085,3605.5822498300377,3889.0023695233313,4208.274687322937,3954.202408099462,3652.2079887638083,3864.4825058558595,4154.608148885745,4018.418969919559,3684.1933350793524,3818.147339600008,4193.9248673826305,4097.164165635606,3768.4370599314047,3816.560365743681,4172.310730494348,4203.066730864851,3828.004458904798,3781.4457752043936,4162.140686767183,4318.7817119099755,3968.1275448951183,3845.0588399241974,4162.364204211736,4367.128535166805,4094.5937150232453,3790.6099904310695,4013.523937883847,4297.480499444067,4110.016418697407,3773.2873884782066,3974.162515898051,4257.873208269263,4105.322552361793,3738.1951496833744,3787.1231182960414,4070.319720544782,3852.5466743167253,2944.1941313975017,3037.467961009498,3516.3540859644518,3633.141950743431,3306.4712055291184,3293.5071937450402,3651.738602130247,3780.3505397260833,3488.839088539969,3376.4321656742295,3652.029174808166,3891.170488735496,3609.42674987635,3339.060048944956,3598.0720636930546,3900.1111865176185,3695.4809660292826,3362.23880794511,3578.380176827929,3872.976168748876,3700.666570742914,3369.033738259523,3494.1364519758768,3850.33385161565,3798.7013219238906,3432.6915064682375,3414.9218696262683,3781.0881472931087,3867.0976599571304,3541.0751153320216,3426.969459887679,3762.111516250553,3966.4064605720596,3638.1710932458755,3408.842195134425,3709.562565036126,3989.7416817834,3731.6907920468802,3483.049986726044,3728.7627135232347,4024.386885689126,3848.8362847371445,3519.0809987879993,3641.6132618919924,4156.999785542463,4553.13975252387,4142.940538280075,4081.875572428176,4358.43370657369,4252.397030877713,3876.2842269282614,3819.3096303116836,4189.365111513747,4258.0296704804505,3856.2794156407617,3720.984306452788,4086.256514341416,4215.337838570814,3877.8935525290435,3586.560915298571,3911.0858930451745,4221.2834025959255,3929.1237508206073,3570.1100313794655,3820.9636594013764,4160.687823377589,3959.6115302576463,3591.1653746563647,3734.9764984818103,4060.5520082178127,3982.164440413051,3607.348037642007,3633.924261799367,4060.8649326401874,4145.354526681248,3891.2822474577724,3853.530151072759,4252.3299756443475,4410.647381621287,4059.2779587838604,3788.888906108011,3952.2801580763053,3985.941885225998,3543.7573246666584,3300.03390312599,3652.34209923054,3999.576449343735,3776.528391424226,3484.1005187154437,3752.433210901405,4090.7939184658435,3926.0839135746855,3555.2237695722306,3712.4235883264055,4027.3373159572266,3947.8992161630654,3594.6075433024816,3579.5871710285155,3959.16449536854,4032.768789859866,3660.791058634646,3530.4580367157505,3925.1451403075625,4050.5607784462904,3700.979495165288,3495.097576987455,3843.42716257896,4075.5723804917793,3756.970615025832,3496.081053743488,3783.4350804609157,4140.504198134447,3888.1530032340293,3514.6553533858482,3749.303966677662,4146.717983093022,3954.492980777381,3573.4627930477614,3620.7814360596462,4077.360520048204,4077.4722787704804,3680.01355886621,3720.201995396852,4065.1788193200614,4104.182613394572,3750.1980364558744,3670.245846539241,4036.680345139545,4165.605207157756,3853.105467928108,3668.7706314051907,4021.5929176322124,4270.390185164236,3988.2888183938053,3633.9913170327327,3899.86531732861,4247.144370930716,4071.9513978900195,3686.6743787138917,3820.2260518343514,4219.584670017322,4059.903807628609,3100.9245635181146,2985.120175495169,3534.2578332731528,3590.204249644786,3233.1798354601665,3225.2896696674434,3583.8563542194793,3662.7133086578024,3347.196083926688,3197.3276373538542,3570.9146941798563,3769.8452198320892,3422.4320557632514,3195.7630152419824,3519.572737166016,3802.9928568593095,3495.790481065569,3248.557835645418,3483.7205390597037,3813.8334529201334,3609.0691219650653,3252.223521736088,3449.097686898433,3840.4767323108595,3757.7976295706785,3317.8482434568696,3389.0161978025676,3781.959865326866,3809.050179606698,3436.781875703559,3400.192070030221,3766.1348302525084,3865.5777413341693,3512.9789725517003,3386.870430334858,3736.854045016056,3907.3755034655937,3616.6910668243254,3384.389386700319,3686.6743787138917,3969.7592222403555,3720.179643652397,3324.866691215836,3823.4670547803707,4590.891848908884,4300.453281456624,3814.3922465315163,3894.612657381613,4220.545795028901,4140.459494645535,3708.042646413165,3695.0339311401763,4095.197212123539,4106.663657029111,3717.0503994286537,3690.563582249115,4040.3907347191257,4168.667396148133,3787.1901735294073,3606.990409730722,3954.3365185661937,4155.770439597421,3872.2162094373957,3586.538563554116,3841.549616044714,4092.067967899796,3846.1540754025077,3508.575678894005,3661.9309976018667,4033.729914871444,3913.589288424169,3484.2122774377203,3559.247083574186,3945.462876017437,3906.324971476194,3540.762190909647,3537.789408897091,3914.326895991194,3981.5385915683023,3567.8078017005687,3506.251097470653,3922.038247828275,4181.094966065284,3889.136479990063,3775.142583267997,4111.961020465019,4363.686366520687,4041.843598108721,3649.3916689624393,3720.1572919079417,3878.787622307256,3567.316063322552,3232.710448826605,3479.3395971464633,3921.9041373615432,3790.6099904310695,3378.555581397484,3532.2685280166306,3975.5036205653696,3923.938146106976,3535.9118623628456,3496.3269229324965,3890.142308490552,3976.0177106878414,3596.4850898367276,3554.732031194214,3885.806070066222,4012.495757638903,3659.561712689604,3512.4648824292285,3784.1056327945753,4041.8883015976317,3800.2212405468513,3494.73994907617,3777.6459786469914,4097.834717969265,3869.198723935929,3533.3861152393956,3732.629565314003,4066.095240842729,3950.134390608596,3566.6455109888925,3623.1730727163645,4041.933005086542,4018.754246086389,3566.9137319223564,3598.7873195156244,3982.879696235621,4057.3333570162486,3690.273009571196,3552.2956910485855,3903.9333348194764,4180.871448620731,3820.5613280011808,3603.9952759737107,3982.946751468987,4241.288213883426,3950.737887708889,3693.134032861475,3974.07310892023,4349.403601813746,4239.701240027099,3851.6079010496023,4039.004926562897,4496.992170452138,4421.979716060128,3997.6541993205788,4040.9942318194194,4454.792076920518,4052.9524151030087,3331.9521942081687,3390.29024723652,3858.3134243861946,4022.554042643791,3641.4791514252606,3440.5816722609607,3799.908316124477,3866.4494593679265,3507.346332948963,3225.3343731563536,3503.0324462690887,3716.3798470949946,3488.1685362063095,3137.916700591648,3370.6654156047603,3713.272954615707,3529.407504726351,3148.1090960632678,3286.712263430627,3674.0679948410984,3596.9991799592,3159.463782246564,3178.887448178226,3568.8583336899683,3605.2916771521186,3205.843651991326,3114.693238102584,3523.372533723418,3668.8600383830117,3302.649057227261,3136.754409879972,3435.9772129031676,3658.4441254668386,3409.5574509569947,3226.3402016568425,3498.5173938891166,3796.7343684118237,3560.0517463745773,3234.900919783225,3468.029614452078,3796.957885856377,3642.619090392481,3302.22437408261,3434.7031634692153,4191.980265615019,4532.397333669345,3969.580408284713,3888.0635962562083,4183.643064933189,4210.331047812825,3787.3466357405946,3697.5149747747155,4040.32367948576,4170.030852559907,3745.3477079090726,3549.6581852028594,3868.8187442801886,4080.6238747386788,3782.8762868495332,3469.2589603971196,3679.6112274660145,4047.699755156011,3828.876176938555,3432.9820791461566,3635.153607744409,4031.092409025718,3900.513517917814,3492.795347308558,3607.079816708543,3967.0546611612635,3935.4045910125487,3537.5658914525384,3504.641771869871,3916.3832564810823,4034.1993015050057,3625.363543672984,3470.801230764536,3830.105522883597,4034.6239846496564,3713.1164924045197,3484.324036159997,3751.561492867648,4033.729914871444,3772.4380221889046,3450.841122965947,3678.113660587509,4035.898034083609,3867.589398335147,3556.900150406379,3820.427217534449,4324.4143515127125,4265.651615339711,3932.8341404001885,4024.543347900313,4384.764061542041,4210.822786190843,3587.633799032426,3441.8557216949134,3798.2542870347843,3951.967233653931,3603.883517251434,3497.399806666351,3839.359145088094,4025.236251978428,3739.8491787730673,3464.3639283614075,3775.3213972236395,4030.354801458693,3778.696510636391,3453.702146256226,3680.0359106106653,4028.253737479894,3819.399037289505,3403.8130526319806,3575.273284348641,3950.2461493308724,3855.8323807516554,3496.2598676991306,3560.9681678972447,3922.261765272828,3964.3724518266267,3561.281092319619,3485.4863268716726,3827.0209821487647,4022.062304265774,3647.1341427724533,3464.9450737172456,3778.8753245920334,4026.778522345844,3662.9815295912663,3394.805299616492,3677.2866460426626,4028.4101996910813,3800.0871300801196,3483.8770012708906,3682.8745821564894,4037.2391387509274,3836.4087148199937,3466.6214545513935,3626.3246686845628,4019.044818764308,3974.7883647428,3616.624011590959,3610.14200569892,3997.967123742953,4084.200153851528,3713.585879038081,3609.0020667316994,3995.0166934748527,4151.031869772896,3777.467164691349,3597.535621826127,3952.838951687688,4071.817287423288,3281.6384174392724,2891.958104605449,3264.9863678200686,3636.092381011532,3481.7535855476362,3145.4715902175417,3314.2719643440205,3579.743633239703,3480.3677773914073,3133.245186000489,3230.363515658798,3538.3034990195633,3488.0344257395777,3119.431807927109,3126.6067178972626,3479.473707613195,3554.8884934054013,3209.9787247155577,3079.6457027966626,3464.8780184838797,3652.2526922527186,3300.6374002262833,3102.2433164409777,3449.2317973651648,3668.3235965160843,3398.091006051422,3178.7980412004044,3464.6545010393265,3778.338882725106,3561.3928510418955,3187.2246488600554,3375.5380958960172,3773.0191675447427,3612.4665871222724,3238.49955064053,3337.0483919439785,3702.54411727716,3709.026123169199,3337.450723344174,3279.64911218275,3661.573369690582,3743.559568352648,3381.863639576869,3299.028074625501,4193.500184237979,4523.724856820686,4003.443301134503,3626.5481861291155,3933.839968900677,4158.25148323196,3835.04525840822,3546.886568890401,3729.1203414345196,4036.993269561919,3889.2705904567947,3550.0381648585994,3664.501448214227,4032.4335136930367,3899.2171167394063,3522.2549465006527,3633.5889856325375,3941.461913759937,3922.9546693509424,3542.282109532608,3512.576641151505,3834.397057819016,3929.168454309518,3581.1964966292976,3419.1016458394106,3754.1542952244636,3923.982849595887,3581.8446972185016,3359.33308116592,3667.2283610377744,3886.3648636776047,3617.629840091448,3359.1319154658217,3592.9535142127893,3912.58345992368,3767.677100619924,3392.7936426155143,3515.907051075346,3915.846814614155,3899.86531732861,3487.386225150374,3530.3239262490188,3868.2823024132613,3871.836229781655,3485.5310303605834,3412.731398669648,3788.0395398187093,3886.6107328666135,3502.831280568991,3301.5091182600404,3646.083610783054,3885.560200877214,3587.589095543515,3292.6578274557387,3582.828173974535,3827.266851337773,3625.408247161895,3326.9901069390903,3533.900205361868,3901.452291184937,3845.5952817911248,3612.33247665554,3771.141621010497,4152.261215717937,4149.333137194292,3802.0317318477314,3753.1484667239747,3937.7962276692665,3827.892700182522,3279.3138360159205,3185.436509303631,3595.859240991979,3790.0288450752314,3482.1335652033767,3298.0222461250123,3615.9534592573,3860.436840109449,3621.7202093267692,3321.424522569719,3561.839885931002,3876.9547792619205,3629.2303954637523,3311.0086096535456,3533.2296530282088,3864.1472296890297,3788.3524642410835,3374.644026117805,3467.962559218712,3845.9752614468653,3845.103543413108,3452.1375241443548,3409.9821341016454,3803.9316301264325,3836.721639242368,3455.423230579285,3364.831610301925,3742.1514084519636,3861.7332412878563,3504.9993997811557,3348.9171682497467,3665.529628459171,3871.0762704701747,3611.4831103662386,3329.940537207191,3603.19061317332,3899.842965584155,3655.538398687649,3333.002726197568,3490.0013792516447,3861.107392443108,3808.111406339575,3423.6837534527485,3483.385262892874,3885.873125299588,3945.7310969509003,3588.2596478771748,3550.440496258795,3898.7700818503004,4013.188661717017,3641.1662270028864,3503.8147573250244,3842.778961989756,4065.961130375997,3352.716964807149,2757.0429750732155,3225.4461318786302,3619.57444185906,3347.3972496267857,3049.627309993185,3333.4497610866742,3658.958215589311,3379.7178721091595,3010.3552949852105,3207.7882537589376,3546.0148508566444,3459.670062025793,3013.3057252533113,3093.8390605257823,3509.1344725053877,3512.643696384871,3106.7360170764946,3100.4775286290087,3507.50279516015,3603.145909684409,3228.396562146731,3076.628217295196,3452.808076478014,3636.5841193895485,3329.9852406961013,3109.4405781555865,3371.5594853829725,3732.428399613905,3449.2317973651648,3113.8885753021927,3347.933691493713,3652.5879684195484,3516.4881964311835,3142.1858837826117,3276.206943536633,3646.083610783054,3561.0575748750657,3136.1285610352234,3182.7990034579043,3584.1245751529427,3608.1974039313086,3239.25950995201,3172.1595730971785,3548.0712113465324,3654.689032398347,3362.0376422450117,3189.035140160935,3520.176234266309,3765.106650007564,3815.398075032005,3945.5075795063476,4041.0389353083297,4227.474835810046,3982.7232340244336,3606.0963399525094,3748.879283533011,4064.7988396643213,3849.9985754488202,3438.9499949157234,3563.113935364954,3960.192675613484,3881.5145351308033,3461.8828847268683,