-23101.265502126873,-23070.28598431182,-23052.18107130302,-23023.861411078145,-23028.063539035742,-22964.96456443841,-22943.64100022805,-22953.475767788383,-22946.949058407434,-22946.569078751694,-22948.178404352475,-22957.744950979348,-22984.16471292552,-22946.591430496148,-22916.997720837324,-22955.97916316738,-22924.954941863412,-22911.789764379235,-22920.931627861457,-22912.01328182379,-22910.24749401182,-22932.085148344657,-23030.27636173682,-23177.507302463928,-23346.262973101497,-23533.7047021037,-23663.8365583225,-23692.111515058463,-23694.50315171518,-23610.728813496688,-23324.42531876866,-22919.612874938593,-22713.663901527394,-22672.000249862704,-22721.35290162002,-22826.160231370955,-22955.91210793401,-23028.018835546834,-22993.574797341204,-23040.111129297155,-23045.81082413326,-23042.391007231596,-23042.41335897605,-23075.80686519228,-23105.534685317838,-23071.403571534585,-23085.86515019717,-23081.61831875066,-23076.253900081385,-23071.336516301217,-23096.77280149136,-23106.741679518425,-23110.47442084246,-23095.007013679387,-23108.84274349722,-23178.06609607531,-23181.038878087864,-23136.402444410618,-23114.81065926679,-23192.25945380443,-23216.17582037161,-23213.985349414987,-23218.723919239514,-23259.31468717035,-23294.429277709638,-23295.99389982151,-23262.64509709419,-23289.55659741838,-23321.63135071175,-23332.13667060574,-23288.774286362444,-23303.302920258397,-23331.063786871888,-23348.34168533584,-23371.363982124803,-23384.596214842346,-23431.53487819849,-23450.69032319669,-23433.16655554373,-23479.367611332847,-23527.334454933938,-23537.750367850113,-23574.63074620137,-23598.547112768545,-23592.75801095462,-23612.71811875321,-23651.25252619416,-23625.927999726297,-23611.48877280817,-23634.801642275055,-23612.740470497665,-23576.932975880263,-23558.62689717137,-23534.643475370824,-23478.920576443743,-23451.02559936352,-23397.739040582066,-23315.082289586342,-23286.919091572654,-23251.9386115001,-23244.473128852027,-23221.36142508524,-23223.79776523087,-23188.16908456911,-23156.071979531287,-23174.981555340477,-23185.889206634667,-23151.0651887733,-23133.250848442418,-23119.884505258146,-23139.084653745253,-23151.758092851414,-23126.858249528203,-23124.198391938018,-23119.638636069136,-23127.506450117406,-23164.58799416876,-23180.59184319876,-23177.619061186204,-23137.76590082239,-23135.307208932307,-23125.226572182964,-23124.377205893663,-23129.04872048482,-23178.35666875323,-23193.265282304917,-23149.746435850437,-23146.997171282434,-23140.559868879303,-23134.033159498355,-23155.66964813109,-23171.449979716537,-23147.801834082824,-23143.040912513843,-23129.965142007488,-23147.399502682627,-23192.192398571064,-23194.74049743897,-23162.44222670105,-23160.43056970007,-23135.32956067676,-23102.0031096939,-23100.773763748857,-23201.200151586552,-23204.999948143955,-23180.63654668767,-23178.222558286496,-23141.453938657516,-23164.54329067985,-23155.24496498644,-23139.688150845548,-23139.10700548971,-23127.86407802869,-23124.86894427168,-23147.77948233837,-23163.805683112823,-23181.21769204351,-23172.14288379465,-23132.356778664205,-23115.43650811154,-23177.48495071947,-23151.02048528439,-23156.228441742474,-23148.070055016287,-23167.404313970128,-23185.464523490016,-23176.836750130267,-23154.887337075157,-23131.932095519554,-23178.15550305313,-23177.97668909749,-23111.94963597651,-23169.170101782096,-23162.553985423325,-23219.0815471508,-23236.292390381383,-23157.994229554442,-23151.57927889577,-23154.82028184179,-23147.377150938173,-23117.828144768257,-23182.91642462211,-23181.798837399347,-23172.58991868376,-23149.63467712816,-23153.00979054091,-23181.19534029905,-23191.49949449295,-23188.102029335743,-23166.62200291419,-23206.609273744736,-23149.679380617068,-23145.29843870383,-23192.751192182448,-23238.393454360183,-23225.898829209666,-23241.232125906008,-23263.44975989458,-23290.584777663324,-23247.468262609036,-23236.605314803757,-23258.040637736398,-23301.22420802405,-23274.871501311245,-23278.112504257264,-23295.7480306325,-23354.04138017194,-23354.24254587204,-23305.09105981482,-23267.27190819644,-23303.168809791663,-23308.22030403856,-23290.204798007584,-23213.40420405915,-23214.566494770825,-23213.8288872038,-23235.800652003367,-23248.40703587616,-23199.233198074486,-23212.82305870331,-23214.052404648355,-23250.8880795107,-23217.53927678338,-23203.83765743228,-23182.82701764429,-23170.28768900486,-23218.25453260595,-23230.257419378453,-23154.172081252585,-23158.128340021176,-23273.418637921648,-23393.179284713184,-23572.350868266927,-23803.646719890443,-23952.554041451698,-24044.151490229546,-24082.70824941495,-23994.530617538767,-23763.547690337622,-23439.40269224676,-23137.05064499982,-22967.669125517503,-23005.801201558257,-23076.209196592474,-23181.64237518816,-23252.162128944652,-23273.351582688283,-23292.730545131035,-23321.22901931155,-23313.495315730015,-23300.62071092376,-23279.565367646857,-23327.219286825573,-23335.310618318395,-23282.292280470407,-23302.498257458003,-23360.523386063982,-23352.47675806007,-23346.933525435154,-23351.00154292602,-23362.53504306496,-23366.33483962236,-23402.365851684317,-23393.380450413282,-23365.977211711077,-23421.521296682513,-23439.73796841359,-23438.55332595746,-23471.231576351118,-23436.49696546757,-23412.178267500196,-23454.512471498547,-23508.201361680196,-23507.351995390894,-23479.546425288492,-23492.443381839203,-23515.64449258381,-23553.173071524274,-23542.779510352553,-23566.38295249736,-23553.128368035363,-23606.05729890553,-23637.327389398502,-23632.38765387388,-23630.934790484287,-23710.663462956367,-23772.13076020846,-23754.51758557768,-23714.284445558125,-23774.589452098546,-23813.14621128395,-23837.554316229143,-23860.062522895638,-23859.235508350794,-23886.102305186072,-23932.146898764004,-23960.98064911135,-23932.772747608753,-23900.429773381922,-23891.95846223336,-23837.643723206966,-23832.659284193433,-23782.569024869088,-23748.32615236356,-23723.180439851338,-23647.87741278141,-23577.00003111363,-23543.22654524166,-23528.22852471215,-23497.584283063923,-23501.719355788155,-23515.286864672526,-23434.999398589065,-23398.96838652711,-23395.526217880993,-23419.174363514707,-23420.20254375965,-23412.312377966926,-23412.044157033462,-23403.595197629358,-23400.018918516507,-23391.972290512596,-23415.933360568688,-23444.230669049106,-23371.9674792251,-23363.831444243366,-23367.117150678296,-23386.317299165406,-23404.802191829946,-23380.595252584848,-23392.933415524178,-23365.887804733255,-23367.899461734232,-23383.63508983077,-23429.8808491088,-23418.19088675867,-23391.30173817894,-23370.201691413127,-23389.334784666873,-23401.851761561844,-23392.016994001508,-23398.47664814909,-23367.00539195602,-23391.122924223295,-23429.12088979732,-23426.572790929415,-23382.49515086355,-23359.651668030223,-23399.124848738295,-23405.45039241915,-23379.16474093971,-23356.43301682866,-23399.705994094133,-23420.02372980401,-23407.126773253298,-23376.77310428299,-23372.705086792124,-23368.793531512445,-23386.607871843324,-23385.11030496482,-23404.668081363212,-23399.169552227206,-23375.700220549134,-23418.369700714316,-23418.168535014218,-23383.545682852946,-23359.562261052404,-23374.135598437264,-23391.793476556955,-23430.082014808897,-23418.861439092332,-23372.369810625292,-23401.248264461552,-23449.796253418477,-23428.24917176356,-23442.107253325852,-23386.943148010156,-23392.016994001508,-23441.21318354764,-23444.051855093465,-23419.44258444817,-23469.197567605683,-23483.435628823714,-23466.35889605986,-23524.02639675455,-23525.926295033252,-23535.112862004386,-23531.335417191436,-23549.350923222417,-23510.771812292554,-23515.912713517275,-23556.14585353683,-23554.491824447137,-23556.302315748017,-23576.932975880263,-23523.46760314317,-23506.65909131278,-23455.920631399233,-23461.240346579594,-23447.181099317208,-23456.121797099328,-23418.079128036396,-23422.460069949637,-23467.16355886025,-23474.874910697334,-23415.06164253493,-23417.050947791453,-23422.415366460726,-23390.988813756565,-23401.91881679521,-23446.667009194734,-23482.40744857877,-23434.775881144513,-23425.656369406744,-23460.703904712667,-23543.8076905975,-23730.556515521588,-23914.913703788963,-24075.28747025579,-24231.481460509476,-24306.359804434756,-24246.077149638793,-24131.189183138515,-23899.915683259453,-23482.92153870124,-23202.11657310922,-23136.916534533088,-23244.1378526852,-23343.13372887775,-23374.82850251538,-23446.10821558335,-23503.976881978142,-23525.680425844246,-23547.428673199258,-23523.109975231884,-23576.08360959096,-23535.694007360224,-23515.89036177282,-23584.644327717346,-23549.28386798905,-23531.42482416926,-23534.241143970627,-23551.22846975666,-23602.592778514958,-23646.7821773031,-23656.01344776314,-23601.43048780328,-23561.75614139511,-23614.30509260954,-23641.39540688937,-23651.207822705248,-23679.39337246339,-23720.60998923898,-23663.88126181141,-23707.377756521437,-23712.36219553497,-23744.347541850515,-23745.956867451296,-23767.928632250863,-23756.842167001032,-23753.42235009937,-23782.323155680082,-23787.978147027272,-23801.970339056297,-23849.44544427937,-23886.459933097358,-23862.543566530177,-23871.10428465656,-23906.10711647357,-23963.72991367935,-23978.213844086393,-23981.946585410427,-23995.37998382807,-24023.14085044156,-24041.80455706174,-24080.89775811407,-24112.95015966298,-24150.746959536908,-24193.192922257535,-24177.32318369427,-24164.806206799294,-24213.398899245134,-24212.66129167811,-24141.828613499238,-24094.66643269854,-24030.583981345175,-24041.893964039562,-24025.33132139818,-23951.905840862495,-23884.40357260747,-23847.903173911953,-23796.315347709104,-23807.111240281018,-23807.89355133695,-23721.258189828182,-23705.768430920652,-23684.266052754647,-23641.037778978083,-23650.760787816143,-23681.941471331298,-23605.744374483154,-23620.362415356925,-23657.332200686003,-23671.167930503838,-23648.123281970416,-23635.44984286426,-23643.11649121243,-23641.797738289566,-23676.39823870638,-23673.648974138378,-23669.87152932543,-23680.26509049715,-23686.389468477904,-23701.611006451967,-23627.20204916025,-23610.61705477441,-23646.849232536464,-23633.81816551902,-23648.078578481505,-23664.708276356254,-23676.755866617666,-23707.042480354605,-23641.350703400458,-23659.790892576086,-23687.283538256113,-23658.15921523085,-23666.988154290695,-23673.470160182736,-23724.07450962955,-23700.716936673754,-23668.575128147022,-23668.061038024553,-23730.26594284367,-23682.5896719205,-23636.656837064846,-23603.308034337526,-23647.743302314677,-23637.170927187315,-23666.92109905733,-23663.21070947775,-23641.596572589468,-23649.665552337832,-23736.926762691353,-23669.96093630325,-23661.243755965683,-23673.090180526993,-23715.737308947722,-23713.010396124173,-23700.046384340094,-23693.094991814494,-23679.59453816349,-23647.788005803588,-23683.79666612109,-23705.142582075907,-23669.96093630325,-23621.30118862405,-23631.40417711785,-23660.282630954105,-23662.070770510527,-23630.174831172804,-23679.192206763295,-23712.205733323783,-23694.88313137092,-23663.30011645557,-23684.534273688114,-23708.74121293321,-23726.75671896419,-23743.274658116658,-23719.805326438585,-23731.987027166728,-23740.771262737664,-23766.296954905625,-23769.873234018476,-23765.13466419395,-23807.29005423666,-23808.787621115163,-23781.18321671286,-23800.606882644523,-23782.680783591364,-23785.854731304018,-23756.238669900737,-23736.97146618026,-23749.644905286423,-23762.787731026143,-23747.610896540988,-23663.478930411213,-23677.5381776736,-23666.71993335723,-23654.739398329188,-23723.091032873515,-23703.600311708487,-23710.708166445278,-23722.956922406785,-23700.806343651577,-23691.329204002526,-23708.87532339994,-23666.407008934857,-23649.24086919318,-23653.97943901771,-23620.965912457217,-23601.922226181297,-23630.845383506465,-23785.631213859466,-23971.26245156079,-24160.939355008526,-24325.582304666317,-24465.07954181189,-24558.912165035268,-24543.80238578348,-24366.77656969745,-24118.135764376613,-23769.157978195904,-23522.08179498694,-23455.272430810026,-23559.677429160765,-23635.226325419706,-23748.54966980811,-23737.820832469562,-23736.59148652452,-23760.21728041378,-23766.051085716615,-23740.32422784856,-23701.63335819642,-23780.400905656923,-23811.022795560693,-23794.013118030205,-23795.42127793089,-23787.32994643807,-23839.968304630318,-23851.90413616945,-23820.254066020738,-23879.463837082843,-23912.991453765804,-23861.113054885038,-23863.86231945304,-23847.456139022845,-23867.77387473272,-23897.568750091643,-23901.346194904592,-23913.483192143824,-23985.14288486754,-23941.288762246226,-23909.25871244177,-23934.382073209534,-23962.79114041223,-23997.65986176251,-24024.12432719759,-23985.969899412383,-24032.79680404625,-24086.10571457216,-24039.435272149476,-24069.788941119783,-24136.620657041152,-24161.721666064463,-24152.713913048974,-24168.44954114551,-24226.206448818022,-24280.007097721948,-24272.161635418135,-24225.066509850803,-24297.888493286195,-24305.33162418981,-24350.303334033888,-24363.71438070707,-24396.63850028974,-24416.12922145477,-24409.043718462435,-24430.344930928342,-24429.987303017057,-24422.275951179978,-24377.192482613624,-24392.101096165312,-24328.15275527868,-24288.27724317041,-24285.75149604696,-24223.635998205664,-24177.032611016348,-24149.316447891768,-24118.11341263216,-24048.3759699316,-24014.75894627082,-23971.418913771977,-23946.094387304114,-23946.40731172649,-23932.772747608753,-23919.11583174656,-23945.110910548083,-23991.289614592748,-23952.621096685067,-23909.43752639741,-23896.473514613335,-23938.338331978124,-23940.193526767915,-23913.527895632735,-23898.39576463649,-23948.26250651628,-23951.950544351406,-23919.428756168934,-23920.747509091798,-23896.764087291253,-23894.573616334634,-23927.676549872944,-23896.3394041466,-23886.370526119535,-23930.40346269649,-23961.673553189463,-23957.717294420876,-23930.6493318855,-23903.134334461014,-23909.25871244177,-23907.40351765198,-23918.758203835274,-23975.688096962942,-23979.420838286977,-23950.430625728444,-23946.228497770848,-23923.429718426432,-23937.287799988724,-23934.940866820918,-23953.112835063082,-23953.47046297437,-23903.559017605665,-23892.45020061138,-23927.36362545057,-23944.77563438125,-23960.60066945561,-23982.304213321713,-23952.777558896254,-23911.203314209382,-23900.5415321042,-23913.058508999173,-23944.01567506977,-23995.536446039256,-23940.037064556727,-23915.472497400344,-23928.101233017594,-23960.04187584423,-23961.606497956098,-23948.195451282914,-23941.6016866686,-23956.845576387117,-23948.709541405387,-23964.31105903519,-23914.377261922036,-23921.909799803474,-23973.207053328402,-23986.483989534856,-23971.88830040554,-23955.526823464254,-24009.819210746195,-23981.052515632215,-23969.49666374882,-23978.772637697773,-24030.38281564508,-24040.23993494987,-24027.141812699057,-24032.12625171259,-24057.070798524714,-24085.658679683052,-24060.222394492914,-24063.977487561406,-24079.735467402395,-24116.10175563118,-24110.96085440646,-24043.48093789589,-24047.347789686657,-24054.925031057006,-24092.408906508557,-24028.393510388556,-23994.821190216684,-24000.65499551952,-23968.379076526056,-23981.521902265777,-23947.368436738067,-23972.380038783558,-23978.54912025322,-23970.36838178258,-23979.532597009256,-23969.608422471098,-23971.73183819435,-23939.54532617871,-23918.91466604646,-23937.69013138892,-23900.40742163747,-23908.766974063754,-23998.755097240817,-24070.548900431266,-24210.716689910496,-24459.670419653707,-24657.997448205646,-24814.9066942819,-24851.094168555042,-24780.75322875419,-24718.50362044616,-24448.22632649259,-24032.19330694596,-23817.370690986,-23722.509887517677,-23779.75270506772,-23856.709761227343,-23930.15759350748,-24031.165126701013,-24063.150473016558,-24047.526603642298,-24006.64526303354,-24012.45671659192,-24050.991124032873,-24088.89968262907,-24121.01913941135,-24112.14549686259,-24092.922996631027,-24068.13491203009,-24051.304048455248,-24042.698626839952,-24077.902624357062,-24110.849095684185,-24102.19897057998,-24141.15806116558,-24152.44569211551,-24157.139558451127,-24173.992773770427,-24177.993736027925,-24170.796474313316,-24183.000526785916,-24221.2667132934,-24224.99945461744,-24210.493172465944,-24202.714765395496,-24287.67374607012,-24262.080998668793,-24238.723425712997,-24273.145112174167,-24328.443327956596,-24280.90116750016,-24296.614443852242,-24350.683313689628,-24335.32766524883,-24361.43450277263,-24409.15547718471,-24410.518933596486,-24435.08350075287,-24459.715123142618,-24476.657745439737,-24525.406900096765,-24529.743138521095,-24555.805272555983,-24618.121936097377,-24645.949857944233,-24626.146212356834,-24648.699122512236,-24644.87697421038,-24621.474697765672,-24680.952689761245,-24673.956593746734,-24584.1025810364,-24565.729447094138,-24548.116272463354,-24540.807252026472,-24481.03868735298,-24421.180715701666,-24372.58802325583,-24356.181842825634,-24297.396754908175,-24273.32392612981,-24221.803155160327,-24208.88384686516,-24222.630169705175,-24225.78176567337,-24170.438846402034,-24112.033738140315,-24125.31067434677,-24130.87625871614,-24140.241639642914,-24120.683863244518,-24113.039566640804,-24111.11731661765,-24104.881179914617,-24098.77915367832,-24102.86952291364,-24082.4847319704,-24142.990904210914,-24092.922996631027,-24113.643063741096,-24135.5477733073,-24104.411793281055,-24099.226188567423,-24120.370938822143,-24148.467081602466,-24069.408961464043,-24079.24372902438,-24118.448688798988,-24160.2017474415,-24148.221212413457,-24090.061973340747,-24094.889950143093,-24131.63621802762,-24138.25233438639,-24089.48082798491,-24096.09694434368,-24146.790700768317,-24161.229927686447,-24124.05897665727,-24151.64102931512,-24163.822730043263,-24148.69059904702,-24131.323293605245,-24129.222229626444,-24160.045285230313,-24181.2570907184,-24177.032611016348,-24172.428151658554,-24160.134692208136,-24164.023895743358,-24168.69541033452,-24104.791772936795,-24138.408796597578,-24156.4019508841,-24191.24832048992,-24205.285216007855,-24174.551567381808,-24161.945183509015,-24144.935505978527,-24150.21051766998,-24151.193994426012,-24182.82171283027,-24167.60017485621,-24141.560392565774,-24194.846951347226,-24226.85464940723,-24250.994533418958,-24240.17628910259,-24231.682626209575,-24264.584394047786,-24309.19847598058,-24275.89437674217,-24213.51065796741,-24278.889510499183,-24286.153827447157,-24275.42499010861,-24261.969239946517,-24267.870100482716,-24269.725295272507,-24200.88192235016,-24183.3581546972,-24165.856738788694,-24190.801285600817,-24196.679794392563,-24159.97822999695,-24152.758616537885,-24171.17645396906,-24158.525366607355,-24150.858718259184,-24137.470023330454,-24158.59242184072,-24173.83631155924,-24172.96459352548,-24164.247413187913,-24167.890747534126,-24146.187203668025,-24133.178488395035,-24080.47307496942,-24165.744980066418,-24356.33830503682,-24552.47486263214,-24682.69612582876,-24830.217639233786,-25025.169554372973,-25054.58445007616,-24919.378747866005,-24765.464635546763,-24463.961954589126,-24046.073740252705,-23921.26159921427,-23919.36170093557,-23998.41982107399,-24087.402115750567,-24156.178433439545,-24126.4953168029,-24238.812832690815,-24195.74102112544,-24196.45627694801,-24203.206503773512,-24226.564076729308,-24284.81272277984,-24223.99362611695,-24186.196826243024,-24225.893524395648,-24292.81464729484,-24262.19275739107,-24237.69524546805,-24258.169443389113,-24264.18206264759,-24289.10425771526,-24286.913786758636,-24297.77673456392,-24316.82042083984,-24330.030301812923,-24334.47829895953,-24351.666790445663,-24331.281999502422,-24317.33451096231,-24295.65331884066,-24301.80004856587,-24401.578235814362,-24399.25365439101,-24394.850360733315,-24365.413113285675,-24425.561657614908,-24447.13109101428,-24419.437279634152,-24434.435300163663,-24457.323486485897,-24497.690736972185,-24510.341824333886,-24539.130871192323,-24613.718642439682,-24605.962587113692,-24636.517421784094,-24620.714738454193,-24569.506891907084,-24693.69318410077,-24747.002094626678,-24744.56575448105,-24760.94958316679,-24778.450999075296,-24793.29255739362,-24801.71916505327,-24776.95343219679,-24839.270095738186,-24780.95439445429,-24742.732911435716,-24740.27421954563,-24675.16358794732,-24647.98386668967,-24609.069479592978,-24497.444867783175,-24492.84040842538,-24468.78993139147,-24411.815334774892,-24403.098154437324,-24390.469418820074,-24382.82512221636,-24342.368464752253,-24311.321891703832,-24304.303443944867,-24333.695987903597,-24324.643531399197,-24316.731013862016,-24268.831225494294,-24298.71550783104,-24288.2325396815,-24294.535731617896,-24329.82913611283,-24306.270397456934,-24271.558138317843,-24262.818606235818,-24260.024638178904,-24326.5434296779,-24314.920522561137,-24240.51156526942,-24230.94501864255,-24284.097466957268,-24275.3802866197,-24289.126609459712,-24264.56204230333,-24262.75155100245,-24316.887476073203,-24295.385097907198,-24309.131420747213,-24328.219810512044,-24319.927313319127,-24277.302536642856,-24264.718504514516,-24268.98768770548,-24314.62994988322,-24306.80683932386,-24326.67754014463,-24322.095432531292,-24338.72513040604,-24323.078909287324,-24320.70962437506,-24261.11987365721,-24300.123667731725,-24347.643476443707,-24325.4928976885,-24304.549313133874,-24334.500650703987,-24318.809726096362,-24281.90699600065,-24289.595996093274,-24308.48322015801,-24319.301464474378,-24315.345205705788,-24320.28494123041,-24296.055650240858,-24307.81266782435,-24317.04393828439,-24310.04784226988,-24307.00800502396,-24319.90496157467,-24347.710531677072,-24311.34424344829,-24285.080943713303,-24368.788226698427,-24404.238093404543,-24369.212909843078,-24339.01570308396,-24348.783415410926,-24380.433485559643,-24392.034040931947,-24406.11563993879,-24407.30028239492,-24359.467549260564,-24424.667587836695,-24415.97275924358,-24430.32257918389,-24494.56149274844,-24443.08542526787,-24447.064035780913,-24409.98249172956,-24432.378939673777,-24420.912494768203,-24417.917361011194,-24376.097247135313,-24364.58609874083,-24319.90496157467,-24307.05270851287,-24357.54529923741,-24360.942764394615,-24324.57647616583,-24318.96618830755,-24317.2898074734,-24300.90597878766,-24287.383173392198,-24329.76208087946,-24342.033188585425,-24295.362746162744,-24306.985653279502,-24311.612464381753,-24269.479426083497,-24266.931327215592,-24340.759139151472,-24450.059169537923,-24575.139531509823,-24770.963164682766,-24988.55739695518,-25107.06634605722,-25153.40151231307,-25106.35109023465,-25033.484403310347,-24747.672646960338,-24347.397607254698,-24086.038659338792,-24097.10277284417,-24172.204634214002,-24247.820585706304,-24340.177993795634,-24385.037944917436,-24388.614224030283,-24380.500540793008,-24356.695932948107,-24349.409264255675,-24384.456799561598,-24400.415945102686,-24378.645346003217,-24369.905813921192,-24422.611227346806,-24426.187506459657,-24428.0650529939,-24391.028212431458,-24458.64223940876,-24462.777312132992,-24436.73752984256,-24425.092270981346,-24480.926928630703,-24468.029972079992,-24474.400219249754,-24471.56154770393,-24462.106759799335,-24485.307870543944,-24526.882115230816,-24534.414653112253,-24512.197019123676,-24538.102690947377,-24536.828641513424,-24549.166804452754,-24549.3456184084,-24581.330964723944,-24559.2474412021,-24608.510685981597,-24628.582552502463,-24607.01311910309,-24639.937238685758,-24709.98760580869,-24725.70088216077,-24712.781573865603,-24715.106155288955,-24736.273257288132,-24784.86594973397,-24856.525642457684,-24857.464415724804,-24842.15347077292,-24889.650927740448,-24941.641085343494,-24945.485585389804,-24920.473983344316,-24950.827652314623,-24978.499111950292,-24972.017106058254,-24931.60515208306,-24901.78792497968,-24894.568311520616,-24872.01540136521,-24821.880438551958,-24781.602595043492,-24729.724196162726,-24694.766067834626,-24656.701047027236,-24652.834195236468,-24567.092903505913,-24527.038577442003,-24486.64897521126,-24477.820036151414,-24479.27289954101,-24493.198036336667,-24480.792818163973,-24458.64223940876,-24428.154459971724,-24480.502245486052,-24498.1824753502,-24472.947355860157,-24470.84629188136,-24467.918213357712,-24487.207768822645,-24483.542082731972,-24451.06499803841,-24436.558715886917,-24471.449788981652,-24492.19220783618,-24438.659779865717,-24413.201142931124,-24431.618980362295,-24433.675340852184,-24463.35845748883,-24463.157291788735,-24503.122210874822,-24469.728704658595,-24482.33508853139,-24486.89484440027,-24486.09018159988,-24470.667477925716,-24459.625716164795,-24438.771538587993,-24495.366155548832,-24497.601329994362,-24434.63646586376,-24439.151518243732,-24460.676248154195,-24481.731591431093,-24451.400274205243,-24478.535291973985,-24487.09601010037,-24454.820091106903,-24457.301134741443,-24458.910460342224,-24472.165044804224,-24498.31658581693,-24477.663573940226,-24489.577053734905,-24465.21365227862,-24473.573204704906,-24465.526576700995,-24480.122265830312,-24473.84142563837,-24492.393373536277,-24435.396425175244,-24415.056337720915,-24495.85789392685,-24491.074620613414,-24481.552777475452,-24503.45748704165,-24477.775332662506,-24473.170873304713,-24473.528501215995,-24467.76175114653,-24470.399256992252,-24488.2806525565,-24488.258300812042,-24477.507111729043,-24485.352574032855,-24475.74132391707,-24465.1242453008,-24478.42353325171,-24503.926873675213,-24476.814207650925,-24507.056117898956,-24519.774260494025,-24488.95120489016,-24543.310647405466,-24584.795485114515,-24618.63602621985,-24550.060874230967,-24522.300007617476,-24570.222147729655,-24570.445665174208,-24599.122953310365,-24590.651642161803,-24583.946118825213,-24627.107337368412,-24635.131613627866,-24631.421224048285,-24590.62929041735,-24591.076325306454,-24580.325136223455,-24556.319362678452,-24494.67325147072,-24543.422406127742,-24502.295196329975,-24483.407972265242,-24488.615928723328,-24513.582827279908,-24527.66442628675,-24524.71399601865,-24509.492458044584,-24509.335995833397,-24485.307870543944,-24482.670364698217,-24457.301134741443,-24498.875379428315,-24503.122210874822,-24435.97757053108,-24441.386692689266,-24527.95499896467,-24657.706875527725,-24828.541258399637,-24971.100684535588,-25151.45691054546,-25291.132961646672,-25332.997779011464,-25293.882226214675,-25212.946559542008,-24913.96962570782,-24505.75971672055,-24289.216016437535,-24281.75053378946,-24384.747372239515,-24457.65876265273,-24527.843240242393,-24564.00836277108,-24565.371819182852,-24565.304763949487,-24604.710889424194,-24617.496087252628,-24601.11225856689,-24571.809121585982,-24558.889813290814,-24549.52443236404,-24590.91986309527,-24642.88766895386,-24624.693348967237,-24563.986011026624,-24616.49025875214,-24660.07616043999,-24669.083913455477,-24669.97798323369,-24647.134500400367,-24648.989695190157,-24684.752486318648,-24675.387105391874,-24719.84472511348,-24768.258603603674,-24693.55907363404,-24703.796172594568,-24676.9740792482,-24694.117867245423,-24797.226464417752,-24749.729007450227,-24735.714463676748,-24780.976746198743,-24825.0096827757,-24806.927121511355,-24830.999950289723,-24837.236086992754,-24884.510026515727,-24959.03074252972,-24929.392329381983,-24904.35837559204,-24949.821823814134,-24980.734286395826,-24983.46119921937,-25003.063679106675,-25104.71941288941,-25088.737915603866,-25105.144096034062,-25092.44830518345,-25108.83213386919,-25125.50653523285,-25118.06340432923,-25116.118802561617,-25206.486905394424,-25223.13895501363,-25186.571501084745,-25133.396701025573,-25053.891545998045,-25023.873153194567,-24988.37858299954,-24938.109509719554,-24921.725681033815,-24887.907491672933,-24853.128177300478,-24766.269298347153,-24780.82028398756,-24736.764995666148,-24740.72125443474,-24728.271332773133,-24688.351117175953,-24709.205294752755,-24667.988677977166,-24649.63789577936,-24660.858471495925,-24681.243262439166,-24667.407532621328,-24671.22968092319,-24688.88755904288,-24694.810771323537,-24672.45902686823,-24691.949748033257,-24596.418392231273,-24607.2589882921,-24634.148136871834,-24682.27144268411,-24683.590195606972,-24667.228718665687,-24705.584312150993,-24641.613619519907,-24672.861358268423,-24678.426942637798,-24682.74082931767,-24670.804997778538,-24669.55330008904,-24633.321122326986,-24658.377427861386,-24671.45319836774,-24701.672756871314,-24691.882692799893,-24681.489131628172,-24670.15679718933,-24688.21700670922,-24655.628163293382,-24664.16652967531,-24692.285024200086,-24694.40843992334,-24692.55324513355,-24686.85355029745,-24634.46106129421,-24673.353096646442,-24679.63393683838,-24648.9673434457,-24685.154817718845,-24658.802111006036,-24633.54463977154,-24688.753448576146,-24718.66008265735,-24656.38812260486,-24646.195727133243,-24712.111021531942,-24733.300475275573,-24692.955576533746,-24660.903174984836,-24691.346250932962,-24743.42581551383,-24752.478272018227,-24660.16556741781,-24640.92071544179,-24637.34443632894,-24704.846704583968,-24711.909855831847,-24668.189843677264,-24670.2238524227,-24690.876864299404,-24651.046055680046,-24678.65046008235,-24679.365715904918,-24723.46570771524,-24741.28004804612,-24701.873922571413,-24669.910928000325,-24678.672811826804,-24646.97803818918,-24706.813658096034,-24730.0371205851,-24734.306303776062,-24764.458807046274,-24779.456827575785,-24760.077865133033,-24758.245022087696,-24785.245929389708,-24759.742588966204,-24782.027278188143,-24818.125345483466,-24808.782316301145,-24795.930063239346,-24793.203150415797,-24818.415918161383,-24843.00283706222,-24816.940703027332,-24785.11181892298,-24801.89797900891,-24820.740499584736,-24764.95054542429,-24701.628053382407,-24708.9817773082,-24782.206092143788,-24748.767882438646,-24725.969103094234,-24723.577466437517,-24754.0428941301,-24785.603557300994,-24691.703878844248,-24601.760459156092,-24639.713721241205,-24705.405498195352,-24678.941032760267,-24654.77879700408,-24697.537684147082,-24716.491963445184,-24676.527044359096,-24645.279305610577,-24769.443246059807,-24962.65172513148,-25082.144150989552,-25242.942600601033,-25429.93729471413,-25519.23251381308,-25487.448333197633,-25446.36582688878,-25237.04174006483,-24852.211755777807,-24526.032748941514,-24469.147559302757,-24510.677100500718,-24553.324228921443,-24609.315348781987,-24686.27240494161,-24758.245022087696,-24764.07882739053,-24731.80290839707,-24733.367530508942,-24739.04487360059,-24746.2421353152,-24763.743551223703,-24754.51228076366,-24713.22860875471,-24767.275126847642,-24853.68697091186,-24830.687025867348,-24823.400357174916,-24825.032034520154,-24845.28271499666,-24842.041712050643,-24838.39837770443,-24805.76483079968,-24856.8162151356,-24849.082511554065,-24896.669375499416,-24921.569218822628,-24892.042564397165,-24855.40805523492,-24909.901608216955,-24902.905512202444,-24908.60520703855,-24933.974436995322,-24956.862623317556,-24953.867489560544,-25011.84791467761,-25059.568889089693,-25011.24441757732,-25033.886734710544,-25072.890528785054,-25065.715618814902,-25047.63305755056,-25123.181953809497,-25128.524020734316,-25180.022439959343,-25204.36348967117,-25238.18167903205,-25214.75705084289,-25287.44492381155,-25313.261188657427,-25324.459412629538,-25293.457543070024,-25317.61977882621,-25361.675067147622,-25352.7343693655,-25343.234877971994,-25373.990878342498,-25372.292145763895,-25356.467110689537,-25360.535128180403,-25274.078580627272,-25217.819239833265,-25168.488939820403,-25069.358953161118,-25111.67080541501,-25103.66888090001,-25015.155972856996,-24968.46317868986,-24942.646913843982,-24962.003524542277,-24925.614884569037,-24882.74423870376,-24910.750974506256,-24952.97341978233,-24905.587721537082,-24892.8248754531,-24878.40800027943,-24872.954174632334,-24896.11058188803,-24900.312709845628,-24871.546014731648,-24871.613069965017,-24895.30591908764,-24893.562483020127,-24866.785093162667,-24874.608203722026,-24915.31073037514,-24901.989090679777,-24872.88711939897,-24911.130954162,-24927.961817736843,-24916.093041431075,-24884.688840471368,-24903.44195406937,-24946.491413890293,-24864.996953606245,-24922.88797174549,-24923.759689779246,-24912.248541384764,-24945.530288878716,-24945.105605734065,-24905.677128514904,-24929.59349508208,-24959.902460563477,-24934.801451540166,-24934.466175373338,-24955.566222139147,-24945.239716200795,-24938.444785886382,-24925.793698524678,-24919.26698914373,-24957.93550705141,-24936.254314929763,-24917.65766354295,-24900.60328252355,-24916.02598619771,-24905.587721537082,-24932.387463138995,-24951.7887773262,-24996.55932147018,-24975.7945508712,-24912.896741973967,-24937.97539925282,-24966.451521688883,-24970.9442223244,-24958.18137624042,-24936.03079748521,-24980.466065462362,-25034.110252155097,-24974.18522527042,-24973.80524561468,-25025.90716194,-25076.131531731076,-25004.38243202954,-24953.55456513817,-25015.781821701745,-25056.126720443575,-25025.705996239903,-24979.50494045078,-24996.13463832553,-25078.72433408789,-25109.21211352493,-25148.104148877163,-25135.900096404566,-25109.59209318067,-25121.505572975348,-25150.898116934077,-25166.83491073071,-25168.17601539803,-25182.145855682596,-25165.426750830025,-25194.036983732818,-25228.972760316465,-25230.023292305865,-25216.411079932583,-25195.646309333602,-25209.526742640348,-25241.98147558945,-25173.78630325631,-25243.367283745683,-25256.107778085207,-25221.70844336849,-25248.463481481493,-25229.375091716658,-25207.157457728084,-25239.545135443823,-25272.133978859663,-25270.345839303238,-25242.070882567274,-25288.361345334215,-25353.293162976883,-25331.187287710585,-25279.733571974466,-25273.497435271434,-25269.787045691854,-25307.226217654494,-25458.189899705638,-25631.773547145553,-25877.195701264824,-26051.405197549488,-26173.42337053101,-26227.693406068494,-26203.12883891211,-26064.413912822478,-25723.102774989937,-25319.206752682538,-25172.51225382236,-25188.002012729885,-25220.85907707919,-25269.51882475839,-25376.24840453248,-25451.305562413403,-25503.608644438824,-25515.365662022316,-25545.160537381238,-25518.09257484586,-25500.054717070427,-25536.10808087684,-25582.890282021795,-25568.652220803764,-25577.25764241906,-25593.86498854935,-25642.65884669529,-25708.03769922706,-25632.667616923765,-25629.35955874438,-25701.287472401556,-25699.52168458959,-25706.89776025984,-25691.676222285776,-25791.81203744555,-25864.701076114306,-25833.274523410146,-25853.905183542396,-25853.3016864421,-25883.968279834782,-25922.301521575635,-25942.976885196793,-25940.741710751263,-25996.017574789235,-26091.16895093548,-26097.650956827518,-26078.942546718426,-26175.144454854068,-26220.76436528735,-26236.410586406066,-26252.66030462507,-26282.566938706274,-26372.93504153908,-26363.25673618993,-26372.867986305715,-26401.858198864247,-26481.922147503155,-26511.359394950796,-26532.2135725276,-26574.21250035912,-26643.86053608186,-26662.926574102232,-26710.28992060303,-26724.036243443043,-26746.455043131715,-26719.878818974357,-26768.33740095346,-26763.44236891775,-26794.06425882152,-26762.950630539734,-26707.250083357107,-26677.76813242056,-26676.985821364622,-26644.441681437696,-26632.975236532122,-26637.758509845557,-26579.599270772847,-26560.890860663756,-26529.44195621514,-26509.526551905463,-26533.800546383925,-26585.45542782014,-26558.275706562486,-26566.657610733226,-26552.196032070642,-26559.862680418813,-26539.790813897947,-26503.379822180254,-26512.43227868465,-26621.866419537833,-26718.8059352405,-26664.93823110321,-26662.256021768575,-26740.755348295614,-26756.736845581156,-26766.191633485752,-26760.558993883016,-26777.568671413504,-26799.763953657624,-26791.15853204233,-26803.608453703935,-26837.583105276004,-26917.66940565937,-26891.13788499092,-26955.555612511114,-27027.14825000146,-27038.100604784562,-26947.129004851464,-26920.46337371628,-26962.61876375899,-26977.728543010777,-27015.458287651338,-26988.233862904774,-26997.263967664716,-26995.878159508487,-27017.693462096868,-27121.114983691572,-27087.83323619762,-27095.61164326807,-27074.22102382434,-27121.159687180483,-27101.490152059814,-27093.197654866894,-27115.862323744575,-27133.83312628664,-27134.727196064854,-27171.786388371755,-27162.04102778924,-27178.42485647498,-27152.206260228904,-27148.808795071698,-27157.03423703125,-27258.220584180428,-27260.098130714672,-27206.85627542213,-27259.382874892104,-27273.978564021418,-27275.230261710916,-27331.73547169393,-27337.256352574394,-27298.185503266515,-27313.07176507375,-27319.151439565594,-27353.59547777122,-27337.74809095241,-27320.917227377562,-27343.291323577327,-27375.23196640396,-27424.986949561473,-27429.636112408178,-27367.453559333513,-27433.234743265482,-27457.352275532758,-27503.82155225534,-27530.35307292379,-27490.835188726807,-27531.224790957545,-27596.73775395605,-27615.2673501095,-27625.95148395914,-27634.780423018983,-27622.554018801933,-27688.514016689543,-27733.351616066888,-27750.942438953214,-27706.618929698343,-27692.179702780213,-27706.127191320324,-27712.29627278999,-27726.53433400802,-27713.995005368593,-27740.235953359123,-27770.299049651512,-27740.504174292586,-27675.795874094474,-27685.51888293253,-27783.26306143559,-27865.36101881993,-27833.286265526567,-27838.918905129303,-27848.261934311624,-27877.69918175926,-27878.36973409292,-27865.36101881993,-27889.836178998492,-27876.51453930313,-27897.458123857752,-27931.835106830014,-28059.865899070013,-28296.16854145152,-28531.912390221645,-28733.41336648624,-28857.443196468736,-28903.800714469042,-28921.212723399727,-28777.35689608537,-28467.785235379368,-28084.07283831511,-27825.954893345224,-27788.158093471302,-27867.529138032096,-28002.846598964526,-28074.752160877248,-28125.714138235347,-28143.506126821772,-28132.486716805306,-28248.648732739537,-28211.16485728799,-28148.66937979095,-28222.273674282274,-28287.563119836228,-28275.426122596997,-28285.216186668422,-28288.926576248003,-28320.621349885627,-28351.109129322664,-28356.786472414315,-28336.021701815334,-28382.13335062663,-28431.9106855286,-28408.709574783992,-28396.639632778126,-28398.271310123364,-28435.308150685807,-28459.716255631003,-28456.16232826261,-28471.473273214495,-28526.8832477192,-28550.26317241945,-28559.874422535235,-28567.69753309459,-28558.443910890095,-28563.27188769244,-28561.327285924828,-28562.154300469676,-28613.317443527874,-28631.131783858753,-28651.00248467952,-28647.47090905558,-28712.49213367607,-28754.15578534076,-28736.587314198892,-28761.889488922297,-28860.393626736837,-28925.81718275752,-28882.723019447687,-28918.99990069865,-28932.455650860746,-28943.519764366123,-28979.68488689481,-29035.18426837734,-29028.03171015164,-28991.35249750048,-29052.551573819113,-29092.449437671836,-29044.527297559656,-29023.091974627016,-28992.78300914562,-29001.65665169438,-29004.13769532892,-28972.554680413567,-28909.925092449797,-28829.302350199505,-28773.780616972523,-28759.74372145459,-28738.576619455413,-28731.804040885454,-28676.43876986966,-28647.89559220023,-28603.929710856642,-28568.7927685729,-28575.61005063177,-28630.349472802816,-28623.353376788305,-28599.526417198947,-28572.65962036367,-28555.739349811003,-28630.952969903108,-28619.307711041896,-28616.84901915181,-28533.812288500347,-28517.22729411451,-28465.192433022552,-28465.997095822942,-28531.264189632442,-28665.75463602002,-28707.86532257382,-28591.7480101285,-28528.470221575528,-28567.31755343885,-28628.918961157677,-28682.652554828233,-28663.072426685387,-28687.14525546375,-28666.939278476155,-28642.665283997692,-28627.644911723724,-28618.815972663877,-28623.62159772177,-28632.51759201498,-28642.799394464422,-28684.217176940107,-28662.15600516272,-28584.394286202707,-28600.152266043697,-28636.250333339016,-28711.15102900875,-28726.081994304895,-28715.420212199715,-28683.747790306545,-28689.313374675916,-28736.900238621267,-28631.154135603207,-28547.089224706797,-28601.560425944383,-28778.630945519322,-28801.47442835265,-28796.847617250398,-28803.955471987185,-28807.263530166572,-28784.196529888693,-28750.579506227914,-28730.68645366269,-28840.6570363828,-28927.225342658207,-28892.89306317485,-28859.343094747437,-28860.57244069248,-28822.03803325153,-28786.07407642294,-28829.212943221683,-28929.192296170273,-28969.671305378833,-28913.322557607004,-28869.401379752326,-28883.05829561452,-28934.579066584,-29025.12598337245,-28955.500299394167,-28932.120374693917,-29068.331905404557,-29200.475418624334,-29113.61653967101,-29014.330090800537,-28990.525482955636,-29119.875028118495,-29135.521249237212,-29076.28912643065,-29142.67380746291,-29108.050955301638,-28998.54975921509,-28936.54602009607,-28953.198069715272,-28956.953162783764,-28972.778197858122,-28985.5410439421,-28967.279668722116,-28862.94172560474,-28849.642437653834,-28864.506347716615,-28890.993164896154,-28921.190371655273,-28906.885255203877,-28802.636719064325,-28759.207279587663,-28840.165298004784,-28978.097913038484,-28944.994979500174,-28781.246099620595,-28771.970125671643,-28968.888994322897,-29307.22735014288,-29617.62602539373,-29764.901669609746,-29821.09395517039,-29740.18064024218,-29526.341501038256,-29396.589624475197,-29106.016946556207,-28700.757467837033,-28462.979610321476,-28453.68128462807,-28460.833842853768,-28601.918053855665,-28678.76335129301,-28767.343314569393,-28786.07407642294,-28833.772699090565,-28771.992477416097,-28751.227706817117,-28754.15578534076,-28633.746937960022,-28641.838269452845,-28838.824193337467,-28829.79408857752,-28746.444433503682,-28730.798212384965,-28695.63891835677,-28739.649503189266,-28824.832001308445,-28863.634629682856,-28853.66575165579,-28825.23433270864,-28791.483198581125,-28897.117542876906,-28842.847507339422,-28824.764946075076,-28920.38570885488,-28831.492821156124,-28710.56988365291,-28908.33811859347,-28929.30405489255,-28896.938728921265,-28939.228229430704,-28927.940598480774,-28939.496450364168,-28961.468215163735,-28898.033964399572,-28900.29149058956,-29097.52328366319,-29179.218909647338,-29115.583493183076,-29092.382382438467,-29059.99470472273,-29042.22506788076,-29245.31301800168,-29304.880416975073,-29324.058213717726,-29312.971748467895,-29260.199279808916,-29152.687388978888,-29215.741660087308,-29333.736519066875,-29333.155373711037,-29309.99896645534,-29307.56262630971,-29340.486745892376,-29223.87769506904,-29185.298584139182,-29221.3966514345,-29331.344882410158,-29290.105913890115,-29157.91769718143,-29056.910163987897,-29038.291160856625,-28917.77055475361,-28868.775530907576,-28821.61335010688,-28848.480146942158,-28878.7667606791,-28899.777400467086,-28900.269138845106,-28832.252780467606,-28740.364759011838,-28683.25605192853,-28745.528011981012,-28821.546294873515,-28702.120924248808,-28810.348070901404,-28692.91200553322,-28722.170439025216,-28702.232682971084,-28675.23177566907,-28666.42518835368,-28722.68452914769,-28729.322997250918,-28743.538706724492,-28800.22273066315,-28786.118779911852,-28796.668803294757,-28699.773991081,-28723.198619270162,-28763.610573245358,-28775.434646062215,-28789.024506691043,-28727.512505950035,-28672.14723493424,-28716.426040700204,-28780.419085075748,-28789.091561924408,-28713.475610432102,-28711.64276738677,-28771.299573337983,-28734.083918819895,-28632.71875771508,-28676.23760416956,-28819.065251238975,-28757.530898753514,-28697.42705791319,-28597.89473985371,-28570.536204640415,-28550.419634630638,-28728.786555383987,-28767.052741891475,-28829.212943221683,-28793.383096859827,-28711.68747087568,-28663.653572041225,-28637.747900217524,-28624.962702389086,-28634.395138549226,-28566.915222038657,-28528.984311697997,-28619.061841852887,-28675.924679747186,-28596.732449142033,-28552.900678265178,-28560.969658013542,-28515.34974758026,-28594.787847374424,-28654.757577748012,-28638.03847289544,-28635.13274611625,-28632.33877805934,-28606.79073414692,-28607.349527758306,-28624.582722733347,-28666.20167090913,-28602.72271665606,-28607.41658299167,-28559.539146368403,-28559.628553346225,-28456.654066640625,-28302.65054734356,-28413.738717286436,-28474.177834293587,-28424.86988602518,-28439.53263038786,-28409.447182351018,-28363.38023702863,-28291.921710005012,-28294.78273329529,-28238.568095990195,-28158.034760717725,-28285.774980279803,-28303.768134566326,-28314.787544582792,-28215.232874778852,-28152.312714137166,-28115.052356130167,-28052.355712933033,-28089.347850006565,-28219.233837036354,-28336.111108793153,-28501.91634916262,-28723.10921229234,-28780.08380890892,-28974.767503114643,-29094.662260372912,-29012.74311694421,-28900.827932456486,-28497.8259799273,-28050.478166398785,-27811.73918387165,-27791.957890028705,-27915.205408955266,-27943.837993602516,-27970.05658984859,-27979.377267286454,-27999.40443031841,-28100.233149556298,-28206.24747350782,-28195.809208847193,-28088.632594183993,-28128.66456850345,-28066.1243875175,-28032.015625478703,-28116.19229509739,-28138.074652919135,-28179.380676672543,-28150.27870539173,-28129.580990026116,-28082.28469875869,-28157.76653978426,-28198.156142015,-28136.91236220746,-28105.552864736663,-28085.12337030451,-28181.548795884704,-28146.702426278884,-28146.9929989568,-28166.617830588562,-28186.756752342793,-28147.529440823728,-28241.36206404711,-28307.523227634818,-28375.8972139236,-28382.55803377128,-28326.633969144103,-28258.885831700067,-28302.382326410097,-28437.900953042623,-28526.927951208112,-28425.741604058934,-28493.467389758516,-28552.878326520724,-28564.434178404117,-28585.780094358935,-28605.89666436871,-28602.767420144966,-28529.07371867582,-28586.875329837243,-28849.418920209282,-28774.384114072815,-28708.40176444075,-28756.703884208666,-28790.253852636084,-28668.213327910107,-28565.730579582523,-28665.82169125339,-28787.571643301446,-28783.145997899297,-28708.06648827392,-28597.693574153614,-28524.15633489565,-28447.042816524845,-28383.80973146078,-28451.87079332719,-28441.29841819983,-28502.92217766311,-28491.612194968726,-28414.699842298014,-28377.03715289082,-28372.9467836555,-28375.33842031222,-28278.98004996539,-28166.52842361074,-28207.05213630821,-28201.73242112785,-28270.396980094552,-28169.300039923197,-28136.95706569637,-28197.217368747875,-28139.169888397442,-28073.58987016557,-28110.939635150393,-28194.95984255789,-28207.83444736415,-28227.481630740363,-28271.201642894943,-28280.343506377165,-28195.518636169272,-28187.829636076647,-28136.75589999627,-28169.56826085666,-28211.075450310167,-28218.026842835767,-28161.63339157503,-28184.231005219342,-28195.183360002444,-28143.930809966423,-28168.070693978156,-28182.219348218365,-28198.87139783757,-28153.497356593296,-28135.191277884398,-28086.88915811648,-28130.09508014859,-28134.990112184303,-28249.36398856211,-28310.630120114103,-28250.92861067398,-28248.0675873837,-28155.57606882764,-28142.701464021382,-28219.904389370015,-28168.76359805627,-28160.851080519093,-28151.217478658855,-28207.163895030488,-28125.46826904634,-28038.74350055975,-27964.401598501398,-28148.334103624118,-28167.1989759444,-28238.389282034554,-28165.075560221143,-28203.520560684272,-28191.562377400685,-28146.165984411957,-28113.375975296018,-28242.032616380766,-28362.32970503923,-28325.829306343712,-28225.000587105824,-28189.997755288812,-28234.567133732693,-28200.68188913845,-28170.37292365705,-28188.72370585486,-28260.137529389565,-28143.439071588407,-28068.672486385407,-28100.210797811844,-28205.39810721852,-28231.795517420236,-28218.026842835767,-28089.61607094003,-28059.754140347737,-27995.82815120556,-28074.66275389943,-28144.064920433157,-28197.19501700342,-28298.336660663685,-28207.566226430685,-28075.355657977543,-28070.594736408562,-28164.203842187388,-28082.530567947695,-28024.751308530726,-28136.75589999627,-28198.089086781634,-28131.883219705014,-28111.99016713979,-28240.78091869127,-28403.635728792637,-28591.837417106322,-28799.46277135167,-28899.218606855706,-29035.050157910606,-29008.138657586416,-28981.07069505104,-28626.303807056407,-28277.057799942235,-28048.17593671989,-27857.627315238395,-27820.679881653774,-28030.07102371109,-28257.321209588197,-28228.39805226303,-28203.788781617735,-28215.322281756675,-28214.472915467373,-28257.455320054927,-28201.777124616758,-28158.28062990673,-28284.433875612485,-28289.21714892592,-28258.34938983314,-28256.53889853226,-28362.62027771715,-28307.165599723532,-28177.078446993644,-28063.419826438407,-28249.29693332874,-28346.929353109525,-28370.085760365222,-28284.769151779314,-28338.256876260864,-28415.99624347642,-28308.216131712932,-28137.269990118744,-28245.474785026883,-28498.362421794227,-28526.570323296826,-28336.938123338,-28339.642684417093,-28509.15831436614,-28484.750209420945,-28348.695140921493,-28369.7951876873,-28490.136979834675,-28476.815340139314,-28400.953519458,-28238.00930237881,-28523.038747672887,-28604.8014288904,-28611.931635371642,-28586.584757159326,-28724.472668704115,-28735.425023487216,-28664.34647611934,-28720.8293343579,-28871.77066466459,-28918.038775687073,-28801.295614397004,-28641.994731664032,-28767.767997714043,-28954.226249960215,-28846.155565518806,-28805.028355721042,-28798.79221901801,-28887.126313105386,-28691.459142143627,-28538.260285646953,-28624.42626052216,-28791.46084683667,-28655.249316126028,-28492.863892658224,-28328.913847078544,-28521.630587772204,-28533.946398967077,-28337.496916949385,-28210.181380531954,-28327.79625985578,-28343.33072225222,-28251.912087430013,-28031.590942334053,-28077.657887656438,-28120.886161433,-28025.600674820027,-27696.80651388246,-27943.68153139133,-28515.036823157887,-28576.302954709885,-28374.13142611163,-28283.45039885645,-28343.151908296575,-27962.166424055868,-27415.956844801527,-27782.078418979458,-28514.209808613043,-28314.206399226954,-28144.109623922068,-28008.83686647855,-28298.783695552793,-28285.55146283525,-28259.35521833363,-28162.415702630962,-28475.87656687219,-28607.03660333593,-28546.37396888423,-28392.23633912043,-28556.85693703377,-28790.902053225287,-28771.768959971545,-28516.847314458766,-28524.11163140674,-28660.09964467283,-28472.30028775934,-28289.93240474849,-28177.57018537166,-28340.626161173128,-27947.526031437643,-27591.708611453607,-27464.39307503618,-27970.39186601542,-28187.516711654273,-28252.426177552486,-28194.57986290215,-28536.136869923695,-28645.705121243613,-28676.148197191742,-28559.36033241276,-28921.793868755565,-29036.54772478911,-28962.094064008485,-28737.16845955473,-28868.641420440847,-29095.57868189558,-29025.394204305914,-28920.49746757716,-29136.884705648987,-29485.661326129597,-29244.709520901386,-28955.366188927437,-28944.413834144336,-29269.005867124306,-29209.63963385101,-29063.101597202018,-28988.51382595466,-29445.15996517658,-29463.846023541217,-29370.102807295658,-29206.376279160533,-29557.388074086677,-29498.379468724666,-29313.776411268285,-29121.506705463733,-29390.129970327613,-29560.85259447725,-29424.082270155224,-29195.893311010997,-29312.770582767796,-29404.859769923663,-29205.97394776034,-29071.818777539585,-29193.43461912091,-29417.510857285364,-29170.501729309766,-29003.668308695356,-28971.146520512884,-29215.24992170929,-29197.10030521158,-29106.91101633442,-29263.619096710576,-29828.9394174742,-29930.25987509011,-29926.72829946617,-29809.60515852036,-29999.259710223643,-29732.31282619391,-29227.431622437434,-28709.698165619156,-28823.379137918848,-28961.691732608288,-28900.604415011934,-28844.970923062676,-29050.696379029323,-29293.36926858059,-29186.036191706204,-29069.762417049697,-29097.098600518537,-29333.13302196658,-29321.71128054992,-29184.02453470523,-29187.220834162337,-29437.761537761875,-29331.56839985471,-29205.370450660044,-29121.28318801918,-29323.298254406247,-29287.84838770013,-29038.26880911217,-28833.236257223638,-29022.332015315536,-29103.357088966026,-28911.95910119523,-28710.413421441728,-28929.505220592648,-29065.00149548072,-28963.412816931348,-28782.654259521278,-28884.377048537383,-29126.602903199542,-29007.244587808204,-28879.638478712855,-28911.981452939686,-29217.127468243536,-29194.6416133215,-29047.6565417834,-28940.055243975552,-29264.490814744335,-29207.672680338943,-29143.90315340795,-28973.02406704713,-29204.87871228203,-29184.851549250074,-28946.313732423037,-29047.298913872113,-29600.661051352152,-29697.287642632444,-29480.386314438143,-29198.843741279095,-29304.634547786063,-29269.251736313312,-29122.24431303076,-29315.09516419115,-29616.955473060072,-29764.946373098657,-29537.09269012126,-29384.117351069137,-29427.278569612336,-29615.61436839275,-29549.497908293954,-29443.863563998173,-29351.126176253103,-29488.008259297403,-29314.312853135212,-29113.393022226457,-29034.200791621304,-29211.31601468516,-29141.82444117361,-29003.48949473971,-28852.972847577676,-28951.29817143657,-28950.91819178083,-28820.048727995007,-28664.43588309716,-28703.484380660582,-28677.198729181142,-28503.54802650786,-28393.175112387555,-28637.747900217524,-28876.218661811195,-28743.516354980035,-28571.743198841003,-28555.337018410806,-28854.179841778263,-28769.578489014923,-28689.782761309478,-28700.57865388139,-29009.725631442743,-28923.76082226763,-28800.6474138078,-28689.738057820567,-28923.514953078626,-28880.24197581315,-28790.18679740272,-28637.345568817327,-28831.828097322956,-28894.971775409198,-28712.045098786963,-28567.98810577251,-28765.666933735247,-28940.72579630921,-28811.867989524366,-28578.158149499675,-28674.136540190764,-28906.751144737143,-28843.719225373177,-28592.284451995427,-28481.240985541463,-28766.404541302272,-28560.768492313447,-28405.736792771437,-28323.840001087192,-28643.112318886797,-28592.262100250973,-28450.306171215318,-28336.915771593547,-28677.6681158147,-28693.224929955595,-28532.270018132927,-28328.243294744887,-28552.185422442606,-28674.650630313234,-28614.971472617566,-28477.91057561762,-28665.642877297745,-28862.002952337618,-28662.804205751923,-28468.45578771303,-28548.296218907384,-28852.883440599853,-28677.601060581335,-28442.34895018923,-28429.519048871884,-28797.78639051752,-28710.435773186182,-28562.333114425317,-28377.774760457847,-28712.134505764785,-28656.322199859882,-28634.864525182787,-28465.14772953364,-28675.164720435707,-28700.8245230704,-28615.686728440134,-28447.825127580778,-28655.562240548403,-28766.002209902075,-28641.659455497203,-28416.57738883226,-28530.638340787693,-28721.745755880565,-28583.343754213307,-28444.561772890305,-28489.131151334186,-28737.280218277006,-28614.278568539452,-28447.780424091867,-28388.637708263126,-28678.785703037465,-28647.381502077762,-28664.48058658607,-28771.791311716,-29279.93587016295,-29433.648816782097,-29386.978374359416,-29221.441354923412,-29350.03094077479,-29235.902933585996,-28741.63880844579,-28239.216296579398,-28280.41056161053,-28425.875714525668,-28380.0993418812,-28193.551682657206,-28406.832028249744,-28599.7499346435,-28532.381776855207,-28386.894272195612,-28433.1623832181,-28855.23037376766,-28723.578598925902,-28451.669627627092,-28358.50755673737,-28749.46191900515,-28618.614806963782,-28509.53829402188,-28455.022389295387,-28815.98071050414,-28770.941945426697,-28639.938371174143,-28407.43552535004,-28838.488917170635,-28948.05716849055,-28748.277276549015,-28561.46139639156,-28764.482291279113,-29029.484573541235,-28952.147537725872,-28731.468764718626,-28836.276094469562,-29172.133406655004,-29032.680872998342,-28724.87500010431,-28736.274389776518,-29079.41837065439,-29011.245550065705,-28841.461699183194,-28778.22861411913,-29182.817540504642,-29106.374574467492,-28940.614037586933,-28860.594792436936,-29260.735721675843,-29255.84068964013,-29041.26394286918,-28842.668693383777,-29285.859082443607,-29397.506045997867,-29191.82529352013,-28979.39431421689,-29256.332428018148,-29448.512726844878,-29332.775394055298,-29109.99555706925,-29178.727171269322,-29425.49043005591,-29201.481247124822,-28979.237852005703,-28936.948351496263,-29342.386644171078,-29213.5958926196,-28969.134863511907,-28756.50271850857,-29105.10052503354,-29065.18030943636,-28850.715321387688,-28632.450536781616,-29026.780012462143,-29060.262925656192,-28838.265399726082,-28555.02409398843,-28881.560728736014,-29005.92583488534,-28774.629983261824,-28475.63069768318,-28725.925532093708,-29076.624402597477,-28896.82697019899,-28666.715761031603,-28786.252890378582,-29134.24719980326,-28907.756973237632,-28700.466895159116,-28740.565924711937,-29165.96432518534,-29114.577664682587,-28897.542226021556,-28800.312137640973,-29245.78240463524,-29137.868182405018,-29043.007378936694,-28859.208984280707,-29226.336386959123,-29313.396431612546,-29170.97111594333,-28883.080647358973,-29165.271421107223,-29277.052495128217,-29007.78102967513,-28841.059367782997,-29211.025442007238,-29527.101460349735,-29342.029016259792,-29106.374574467492,-29194.105171454572,-29421.556523031777,-29310.334242622168,-29099.154961008426,-29042.850916725507,-29379.892871367083,-29299.493646561343,-29073.159882206906,-28985.138712541906,-29390.33113602771,-29330.987254498872,-29129.95566486784,-28870.34015301945,-29256.801814651706,-29316.70448979193,-29152.508575023247,-28876.799807167034,-29165.025551918217,-29308.61315829911,-29068.957754249306,-28880.778417680078,-29105.927539578384,-29372.24857476337,-29306.84737048714,-29092.672955116388,-29135.185973070384,-29493.88676808915,-29350.18740298598,-29126.558199710635,-29080.42419915488,-29565.45705383504,-29413.53224677232,-29174.212118889347,-29017.5487420021,-29436.800412750294,-29321.979501483384,-27846.674960455297,26433.642379479694,51202.929163328314,2073.325463929828,-12445.339553992695,-15460.858101947082,-19515.799822306613,-24265.433760337088,-24356.517118992462,-22762.994201540256,-23714.440907769313,-27496.19960739608,-26998.135685698475,-24970.56424266866,-24471.941527359668,-28385.888443695123,-28025.421860864386,-26097.896826016527,-24610.567046471482,-28418.410231877595,-28619.15124883071,-26903.319585719062,-24714.346195977476,-28194.848083835615,-29258.344085019125,-27805.4136401908,-25462.32497242987,-28375.159606356578,-30473.295506631795,-28980.958936328763,-26220.406737376063,-27772.042485719026,-30396.852540594646,-28538.863782747245,-25770.555528468554,-26248.56993538975,-29899.146246808323,-28857.93493484675,-26531.498316705027,-25909.113992347004,-30004.22179749272,-29413.465191538955,-27272.16807272054,-25588.20999720216,-29652.315932788366,-29771.04839933496,-27830.961684103215,-25542.52303153551,-29103.75942036622,-30163.992066859257,-28404.462743337484,-25723.505106390134,-28449.792081092844,-30469.808634496767,-28867.948516362732,-26216.159905929555,-27727.897790419793,-30723.165657897673,-29329.310873664723,-26720.214095141186,-27044.49320369878,-30676.003477096976,-29634.993330835503,-27340.02796888685,-26541.780119154468,-30578.23694684946,-30004.914701570837,-27918.37935666792,-26159.274716290798,-30137.795822357635,-30380.803988075735,-28494.58497698128,-26120.226218727377,-29590.848635536273,-30658.36795072174,-28888.266252072604,-26261.10926402918,-28850.42474870977,-30979.40605633331,-29411.47588628243,-26797.707593167735,-28178.263089449774,-31219.46379178331,-29771.78600690198,-27267.29539242928,-27435.33580724428,-31208.645547466942,-30186.120293870008,-27860.376579806398,-26947.956019396308,-30969.660695750797,-30437.912695159044,-28342.146079796086,-26476.624784067248,-30476.670620044544,-30678.864500387255,-28713.63207264329,-26178.631326989096,-29510.382355497168,-30702.26677683196,-28927.314749636025,-26231.582609603716,-28575.900623309688,-30825.603702736345,-29193.568729587645,-26479.932842246635,-27720.164086838256,-30854.079825172405,-29453.40775888059,-26940.71405419279,-26915.501286447205,-30785.95170807263,-29799.502170026564,-27491.706906760563,-26381.60751838774,-30507.203102970496,-30136.789993857146,-28026.204171920323,-26074.11456991608,-29930.34928206793,-30347.298723137228,-28512.734593478992,-26027.891162382504,-29240.12741328805,-30683.714828934055,-28974.991020559195,-26254.426092437043,-28442.460708911505,-30859.176022908217,-29281.858120186105,-26713.307406104497,-27696.962976093648,-30960.719997968674,-29703.97081422458,-27238.77456650431,-26969.23488011776,-30772.831234077363,-29899.34741250842,-27721.236970572114,-26420.23133280651,-30430.246046810873,-30201.118314399522,-28228.845087152135,-26148.054140574237,-29852.095824729902,-30508.879483804645,-28725.16557278223,-26140.678064903983,-29102.57477791009,-30714.69434674911,-29057.647771554923,-26355.187756441566,-28238.121061101087,-30846.6813977577,-29468.674000343563,-26815.70074745426,-27510.862351758762,-30886.176930210226,-29579.538652841886,-27190.830074647674,-26823.859134180446,-30753.362864656792,-29979.70193382525,-27783.486578880143,-26289.026592853857,-30291.352306765595,-30266.854794842577,-28372.23152783293,-26152.435082487475,-29698.852264744317,-30554.544097726837,-28838.645379381822,-26290.591214965727,-28961.132938996907,-30721.690442763622,-29158.00710415925,-26573.139616625263,-28247.799366450236,-30956.6072769889,-29518.518390478897,-26988.859711749523,-27462.96256339104,-30874.39756088228,-29819.395222591786,-27452.90427838615,-26735.659150559804,-30493.300317919293,-29925.387194798852,-27882.884786472892,-26277.403685737096,-30084.06222868708,-30208.65085228096,-28379.65230699209,-26073.39931409351,-29423.702290499485,-30438.538544003794,-28814.79606804801,-26178.050181633258,-28658.713836516603,-30628.729537574,-29081.05004799963,-26521.9094183337,-27893.658327300353,-30728.574780055857,-29508.236588029456,-27285.02032578234,-27759.72667452415,-31439.382605479077,-30539.61313243069,-28266.083093414676,-27406.077373752283,-31028.51283890162,-30174.609145475526,-27890.886710987892,-25957.930202237392,-29522.675814947586,-29999.12559975691,-28421.271255167874,-26238.355188173675,-29231.857267839587,-30517.14962925311,-28968.956049556262,-26437.442176037097,-28511.237026600484,-30596.766543002912,-29228.41509919347,-26740.19655468423,-27806.374765202378,-30654.6352093977,-29564.67474277911,-27306.723869648442,-27162.42100744498,-30545.71515866699,-29848.117214216854,-27820.635178164863,-26726.405528355306,-30305.545664494715,-30133.280769977664,-28331.663111646547,-26470.634516553226,-29941.480450806674,-30403.24513950886,-28710.949863308655,-26315.848686200225,-29346.56642038422,-30671.220203783538,-29092.85176907203,-26445.51115578546,-28643.33583633135,-30974.913355697794,-29501.776933881873,-26898.55866415008,-27955.796176886106,-31050.90928684584,-29902.454304987707,-27526.039186243917,-27355.22715511646,-30976.410922576302,-30186.45557003684,-28102.580082724107,-26917.915274848376,-30771.333667198858,-30534.00284457241,-28629.924789658166,-26676.0470480975,-30303.869283660566,-30827.682414970688,-29048.75177726171,-26660.33377174542,-29606.025470021425,-31000.461399610213,-29396.25434830837,-26757.54150838155,-28712.223912742607,-31049.2776095006,-29604.86317930975,-27006.919921269407,-27789.096866738426,-30932.10976506588,-29694.940709464638,-27278.15834023456,-26963.19990911483,-30624.236836938482,-29890.116142048377,-27705.277825031022,-26426.467469509542,-30269.916983832954,-30042.733853189213,-28148.781138513226,-26103.01537549679,-29609.177065989625,-30204.851055723557,-28549.88319276371,-26088.844369512128,-29001.65665169438,-30597.86177848122,-29017.772259446654,-26356.148881453144,-28324.152925509567,-30875.11281670485,-29369.119330539626,-26784.20713951673,-27538.01972127196,-30897.82218907144,-29687.49757856102,-27204.889321910065,-26795.561825700024,-30608.18828441957,-29824.178495905224,-27641.776519033498,-26226.486411867907,-30216.116334929033,-30051.741606204705,-28141.42741458743,-25981.086609493093,-29568.362780614232,-29827.106574428868,-27893.81478951154,-25324.61587484072,-28685.53592986297,-30503.962100024477,-28796.244120150106,-26050.309962071176,-28026.092413198046,-30754.14517571273,-29225.26350322527,-26559.59445948535,-27178.76013264181,-30752.021759989475,-29451.30669490179,-27013.178409716897,-26541.31073252091,-30588.518749298903,-29835.309664643966,-27577.64936419122,-25925.5201727772,-30003.46183818124,-30030.954483861267,-28151.10571993658,-25849.367779417968,-29412.638176994107,-30278.61181242607,-28498.45182877205,-25935.019664170704,-28736.944942110174,-30661.139567034195,-29009.479762253733,-26286.791418408327,-27772.087189207938,-30699.07047737485,-29378.730580655407,-26884.99115526571,-27160.8116818442,-30730.27351263446,-29714.69965156313,-27390.341745655747,-26547.926848879677,-30496.854245287686,-30034.75428041867,-27958.25486877619,-30179.303011811142,-30378.054723507732,-28461.035008553867,-26030.215743805857,-29500.480532703466,-30567.083426366262,-28763.811738945456,-26097.606253338607,-28704.24433997206,-30813.600815963844,-29138.985769627783,-26358.004076242934,-27900.94499599278,-30959.356541556903,-29487.136541263648,-26882.6442220979,-27152.250963717815,-30914.63070090183,-29735.129145995277,-27343.93952416653,-26502.552807635406,-30618.67125256911,-30165.355523271028,-28172.071656235657,-26527.810278869903,-30715.811933971876,-31105.87222646144,-29212.768878074752,-26690.486275015628,-30114.639415101938,-30970.17478587327,-28748.88077364931,-25772.321316280522,-28302.65054734356,-30570.19031884555,-28940.83755503149,-26266.71955188746,-27661.557812876443,-30829.045871382463,-29440.175526163046,-26851.84351823849,-26959.15424336842,-30773.546489899934,-29705.982471225558,-27414.23576047847,-26379.573509642305,-30418.06434608273,-29981.758294315136,-27960.266525777166,-26009.361566229054,-29964.323933639997,-30286.546681707703,-28398.316013612275,-25879.922614088373,-29248.464613969878,-30608.367098375216,-28851.274114999072,-26088.3079276452,-28474.758979649425,-30820.172228833704,-29171.507557810255,-26506.509066403996,-27650.024312737503,-30904.661822874765,-29538.679663977586,-27065.503843486767,-26950.48176651976,-30820.28398755598,-29821.719804015138,-27602.70566972562,-26454.9435919456,-30588.831673721277,-30251.208573723863,-28269.9722969499,-26234.600095105183,-30045.147841590388,-30600.58869130477,-28827.38010017635,-26301.051831370813,-29380.608127189655,-30931.32745400995,-29277.03014338376,-26592.160951156733,-28646.576839277368,-31170.31230572609,-29654.19347932261,-27075.87505291403,-27856.062693126525,-31181.354067487013,-29971.141215698866,-27568.485148964544,-27148.384111927047,-30962.88811718084,-30191.59647126156,-27957.763130398173,-26516.81322059789,-30413.079907069197,-30234.7353380603,-28324.443498187484,-26203.37470810112,-29739.35362569733,-30421.79708740677,-28632.830516437356,-26057.3507615746,-28924.945464723765,-30610.91519724312,-28946.939581267787,-26264.462025697474,-28109.710289205348,-30760.962457771595,-29369.320496239725,-26743.34815065243,-27377.400085616126,-30833.695034229164,-29656.16043283468,-27251.649171310568,-26781.10024703744,-30751.21709718908,-29963.519270839606,-27843.724530187195,-26361.69211407806,-30466.254707128373,-30492.51800686336,-28643.112318886797,-26410.687137924095,-30174.273869308698,-31009.75972530362,-29188.092552196093,-26521.797659611424,-29411.811162449263,-31179.811797119597,-29437.38155810613,-26631.07533825342,-28436.53749663085,-31207.662070710907,-29681.127331391257,-26910.695661389313,-27517.76904079545,-31183.343372743533,-29976.013895990123,-27426.90919958463,-26713.977958438154,-30812.192656063162,-30082.0505716861,-27827.720681157196,-26135.000721812336,-30161.30985752462,-30104.42466788586,-28089.66077442894,-25836.20260193379,-29528.822544672796,-30376.221880462395,-28543.26707640494,-25932.02453041369,-28737.25786653255,-30712.45917230358,-29014.17362858935,-26241.104452741678,-27913.774897310126,-30829.29174057147,-29389.012383104848,-26853.721064772733,-27310.344852250204,-31166.288991724134,-30198.74902948726,-27898.374545380422,-27159.51528066579,-31279.29941169017,-30685.570023723845,-28555.873460277733,-26793.460761721228,-30866.57445032292,-30858.95250546366,-28864.461644227704,-26521.551790422418,-30108.53738886564,-31247.448175841353,-29439.996712207405,-26691.42504828275,-29306.981480953873,-31531.96353101296,-29898.408639241297,-27159.291763221237,-28700.10926724783,-31821.44097345364,-30363.43668263396,-27730.557648009977,-27921.218028213745,-31776.402208376196,-30753.675789079167,-28392.728077498447,-27319.196143054505,-31321.67831917743,-30654.568154164335,-28459.0680550418,-26435.117594613745,-30492.51800686336,-30680.5408812214,-28707.999433040553,-26366.251869946944,-29883.455322200698,-31237.099318158547,-29577.638754563184,-26942.27867630466,-29543.775861713395,-31918.827524045413,-30252.393216179993,-27327.846268158708,-28247.0170553943,-31109.090877663002,-29415.096868884193,-26724.706795776703,-26773.612412644914,-30880.007848740563,-29928.91877042279,-27665.357609433846,-26585.70129700915,-30796.389972733257,-30333.977083441867,-28308.0820212462,-26354.763073296916,-30372.533842627272,-30820.753374189542,-28939.831726531,-26323.515334548396,-29655.86986015676,-31062.465138729232,-29212.321843185648,-26411.536504213396,-28680.685601316167,-31030.300978458046,-29332.730690566386,-26563.953049654134,-27659.255583197544,-31010.22911193718,-29595.698964083072,-27014.698328339855,-26857.342047374495,-30868.295534645982,-29954.288000379565,-27695.57716793742,-26454.228336123033,-30722.115125908273,-30374.72431358389,-28324.644663887582,-26203.486466823397,-30222.486582098794,-30809.488094984066,-28909.09807790495,-26298.459029013997,-29722.858038289316,-31426.664462884008,-29612.887455569205,-26750.05367398902,-28925.57131356851,-31531.628254846128,-29939.424090316785,-27180.682382664967,-27971.889432893924,-31461.063797600724,-29999.259710223643,-27434.061757810327,-27019.034566764185,-31100.68662174781,-30224.252369910762,-27934.71848186475,-26406.820286133327,-30746.769100042475,-30595.157217402128,-28525.07275641832,-26206.302786624765,-29986.899195539856,-30619.833543280787,-28643.939333431645,-25888.438628725842,-28867.769702407088,-30590.083371410772,-28795.014774205065,-25964.0769319626,-27806.061840780003,-30671.421369483636,-29121.52905720819,-26315.044023399834,-26978.04146743315,-30695.516550006458,-29386.91131912605,-26888.83565531202,-26219.13268794211,-30428.79318342128,-29755.826861360893,-27535.27045670396,-25789.487456022198,-29982.8758815379,-30016.872884854423,-28061.51992815971,-25680.343887846935,-29433.425299337545,-30514.020385029366,-28603.66148992318,-25776.523444238122,-28674.00242972403,-30726.80899224389,-29021.147372859406,-26116.73934659235,-27728.367177053355,-30806.850589138343,-29321.532466594275,-26610.288215909986,-26964.205737615317,-30831.348101061358,-29642.48116522803,-27151.51335615079,-26321.906008947615,-30706.26773908946,-30149.597543430038,-27930.046967273593,-26031.48979323981,-30214.082326183598,-30362.252040177827,-28248.98400890637,-25699.722850289687,-29241.78144237774,-30367.035313491266,-28533.052329188864,-25688.345812361935,-28323.75059410937,-30576.985249159963,-28827.38010017635,-25942.75336775224,-27310.07663131674,-30528.392556714127,-29053.51269883069,-26394.146847027165,-26475.797769522404,-30323.650577503515,-29281.500492274823,-26857.23028865222,-25767.180415055802,-29950.957590455724,-29497.194826268536,-27373.46617859199,-25312.501229345948,-29342.878382549094,-29735.46442216211,-27825.820782878494,-25250.631600693658,-28676.66228731421,-30050.71342595976,-28259.623439267092,-25437.93921922913,-27906.51058036215,-30225.615826322537,-28538.193230413584,-25826.077261695536,-27064.02862835272,-30414.73393615889,-29028.948131674308,-26368.93407928158,-26243.22786846493,-30216.339852373585,-29259.707541430897,-26962.775225970177,-25653.968829389672,-29727.909532536214,-29516.640843944653,-27557.26457324798,-25337.44577615807,-28931.472174104714,-29797.69167872568,-28213.02005207778,-26172.909280408538,-27517.433764628622,-28515.953244680553,-28389.040039663323,-28135.995940684792,-28523.195209884074,-28776.35106758488,-28703.305566704938,-28484.034953598377,-28869.937821619253,-29400.881159410616,-29404.47979026792,-29403.809237934263,-29737.632541374274,-30426.02156710882,-30402.999270319855,-30152.279752764676,-29917.049994117024,-30277.069542058653,-29890.87610135986,-29184.20334866087,-28742.421119501727,-29097.724449363286,-29116.634025172476,-28917.7258512647,-28651.82949922437,-29158.67765649291,-29242.78727087823,-28908.15930463783,-28585.064838536364,-28976.60034615998,-29115.874065860997,-28811.420954635258,-28604.622614934757,-28676.349362891837,-28465.304191744828,-28580.66154487867,-28946.82782254551,-28750.177174827717,-28497.44600027156,-28420.220723178474,-28789.248024135595,-28670.24733665554,-28462.644334154647,-28303.74578282187,-28741.191773556686,-28662.826557496377,-28501.469314273516,-28349.432748488518,-28733.435718230692,-28868.90964137431,-28702.478552160093,-28433.810583807302,-28785.112951411364,-28978.5896514165,-28798.79221901801,-28553.16889919864,-28699.550473636446,-28924.274912390105,-28708.49117141857,-28517.78608772589,-28587.121199026253,-29044.773166748666,-28939.40704338635,-28701.472723659605,-28644.878106698765,-29148.105281365548,-29071.483501372757,-28880.487845002157,-28732.139317052286,-29174.97207820083,-29164.354999584557,-29005.031765107127,-28793.83013174893,-29211.67364259644,-29298.867797716597,-29031.89856194241,-28752.434701017704,-29021.437945537324,-29241.043834810716,-28986.45746546477,-28665.978153464577,-28763.69998022318,-29058.586544822043,-28802.167332430763,-28496.663689215624,-28500.888168917678,-28867.18855705125,-28718.504752934547,-28507.68309923209,-28388.213025118475,-28917.256464631137,-28811.89034126882,-28558.958001012565,-28296.727335062904,-28648.007350922508,-28668.570955821393,-28516.93672143659,-28217.937435857944,-28576.995858788,-28743.605761957857,-28546.955114240067,-28264.719637002905,-28532.918218722134,-28757.240326075596,-28589.356373471783,-28310.02662301381,-28420.108964456198,-28704.669023116712,-28521.965863939033,-28371.315106310263,-28371.203347587987,-28730.507639707048,-28564.724751082034,-28380.434618048028,-28314.429916671506,-28725.76906988252,-28643.939333431645,-28430.10019422772,-28197.865569337082,-28572.03377151892,-28659.920830717187,-28508.711279477036,-28186.130903498044,-28540.9871984705,-28722.013976814033,-28508.10778237674,-28183.225176718854,-28439.510278643404,-28739.40363400026,-28553.593582343292,-28265.993686436857,-28351.33264676722,-28747.517317237536,-28646.733301488555,-28372.0974173662,-28320.375480696617,-28758.000285387076,-28648.09675790033,-28422.522952857373,-28302.65054734356,-28747.718482937635,-28692.30850843293,-28516.7802592254,-28353.009027601365,-28744.16455556924,-28762.98472440061,-28566.065855749355,-28381.66396399307,-28643.916981687187,-28759.11787260984,-28606.924844613655,-28389.37531583015,-28509.02420389941,-28717.58833141188,-28602.0521643224,-28435.75518557491,-28523.910465706645,-28851.47528069917,-28735.380319998305,-28552.94538175409,-28556.83458528931,-28882.968888636697,-28791.55025381449,-28674.695333802145,-28593.960832829576,-28993.83354113502,-28933.68499680579,-28724.383261726292,-28292.32404140521,-28647.24739161103,-28854.939801089742,-28678.96451699311,-28593.200873518097,-28840.388815449336,-28937.5294968521,-28764.16936685674,-28564.41182665966,-28704.601967883347,-28909.679223260788,-28721.790459369477,-28503.145695107665,-28546.910410751156,-28799.999213218598,-28596.732449142033,-28363.626106217638,-28327.371576711128,-28746.17621257022,-28659.227926639072,-28595.257234007986,-28668.213327910107,-29270.101102602614,-29343.23601046038,-29250.49862271531,-29110.621405914,-29293.36926858059,-29092.181216738372,-28598.654699165192,-28156.313676394664,-28294.40275363955,-28443.310075200807,-28364.810748673768,-28222.49719172683,-28479.609308196224,-28785.202358389182,-28607.19306554712,-28315.055765516256,-28381.95453667099,-28589.80340836089,-24416.665663321695,-18948.713713731016,-21524.05935812704,-26307.422078540574,-28132.486716805306,-27137.342350166127,-24995.665251691968,-28578.8957570667,-29966.64851506335,-28188.880168066047,-25628.733709899632,-28453.323656716784,-30467.349942606685,-28843.540411417536,-26065.464444811874,-27787.35343067091,-30737.783698771444,-29265.54134673373,-26576.805302715937,-27049.16471828994,-30741.22586741756,-29560.27144912141,-27112.531913820734,-26385.51907366742,-30523.34106246723,-30025.47830646972,-27828.950027102237,-26101.58486385165,-30154.15729929892,-30550.274914535872,-28756.726235953123,-26319.67083450208,-29845.1444322043,-30810.784496162476,-29024.9024659279,-26315.44635480003,-29039.989893435228,-31111.907197464374,-29518.540742223355,-26758.48028164867,-27965.96622061327,-30985.306916869515,-29864.47869115814,-28739.940075867187,-28151.262182147766,-29195.20040693288,-29343.303065693744,-28673.62245006829,-28056.78135833518,-28980.51190143966,-29072.57873685107,-28740.565924711937,-28523.485782561995,-29206.890369283006,-29103.938234321864,-28769.958468670666,-28421.71829005698,-29056.3066668876,-29071.52820486167,-28751.898259150777,-28172.563394613673,-28726.663139660734,-29103.535902921667,-28778.40742807477,-27485.76134273545,-26306.97504365147,-28786.722277012144,-28664.212365652606,-26379.662916620127,-26495.847284298812,-30410.375345990105,-29447.39513962211,-27069.30364004417,-26045.951371902393,-30213.74705001677,-29688.682221017152,-27525.905075777184,-25662.954230660707,-29924.53782850955,-30167.009552360723,-28189.48366516634,-25640.64718969431,-29284.69679173193,-30434.962264890943,-28502.74336370747,-25677.79578897903,-28435.308150685807,-30626.337900917282,-28825.636664108835,-25968.591984342576,-27407.641995864153,-30576.7170282265,-28837.594847392425,-26008.802772617673,-25996.039926533693,-29585.75243780046,-27909.103382718968,-25673.191329621237,-25095.510494173825,-25829.273561152648,-29612.19455149109,-28804.357803387382,-26808.078802595,-30619.6770810696,-30335.87698172057,-28327.103355777665,-25597.128343239827,-28514.36627082423,-30941.11751808137,-29079.597184610033,-26181.42529504601,-27586.70182069562,-30910.853256088885,-29090.258966715213,-26419.963111873047,-26663.32890550243,-30931.819192387964,-29720.488753377052,-27236.67350252551,-26020.649197178984,-30531.812373615787,-30009.161533017344,-27900.006222725657,-25866.332753459545,-30239.83153579611,-30639.63718886819,-28568.56925112835,-25876.100465786516,-29576.252946406956,-31008.731545058676,-29003.6459569509,-25912.31029180411,-28405.58033056025,-30967.291410838538,-29125.909999121428,-26185.985050914893,-30830.6775487277,-29364.917202582026,-26780.653212148336,-26645.179289004718,-30940.759890170088,-29846.552592104985,-27389.872359022185,-26091.995965480324,-30614.53617984488,-30218.70913728585,-28017.799916005126,-25699.81225726751,-29902.76722941008,-30410.39769773456,-28497.89303516067,-25834.503869355187,-29431.190124892015,-31304.087496291104,-28834.33149270195,-31340.029101375236,-29407.76549670285,-26175.971469398915,-26772.941860311254,-30270.766350122256,-28745.952695125663,-26160.23584130238,-25783.161912341347,-30008.80390510606,-29071.32703916157,-26829.245904594172,-25387.804256415875,-29966.290887152063,-29768.32148651141,-27733.575133511444,-25393.280433807427,-29618.318929471843,-30319.224932101362,-28362.709684694968,-25498.445391469646,-28780.486140309113,-30598.889958726166,-28682.63020308378,-25723.79567906805,-27880.716667260727,-30815.657176453733,-29081.05004799963,-26239.249257951888,-27053.098625314073,-30878.040895228496,-29397.416639020044,-26804.681337437793,-26372.97974502799,-30846.63669426879,-30018.482210455208,-27824.390271233355,-26231.53790611481,-30671.44372122809,-30497.725963321445,-28405.893254982624,-26008.66866215094,-30053.730911461225,-30846.6813977577,-28692.44261889966,-25772.52248198062,-28904.29245284706,-30722.405698586193,-28653.707045758612,-25847.91491602837,-28002.73484024225,-31128.26867440566,-29513.489247976453,-26849.11660541494,-27478.5864327653,-31288.798903083672,-29848.38543515032,-27250.375121876616,-26496.987223266035,-30959.781224701554,-30051.674550971336,-27854.542774503563,-26098.79089579474,-30487.80178878329,-30570.8161676903,-28512.82400045681,-26022.146764057492,-29877.53210992004,-30782.598946404334,-28653.215307380597,-25694.47019034269,-28488.058267600332,-30500.98931801192,-28564.45653014857,-25622.74344238561,-27242.127328172606,-30254.360169692063,-28688.598118853348,-26047.91832541446,-26598.26297739303,-30677.344581764293,-29399.115371598647,-27025.673034867414,-26166.650791961052,-30505.213797713972,-29772.165986557724,-27632.500545084542,-25787.34168855449,-30183.192215346364,-30305.523312750258,-28314.11699224913,-25823.327997127533,-29593.463789637543,-30705.03839314442,-28825.74842283111,-25979.85726354805,-28736.430851987705,-31005.602300834933,-29228.236285237825,-26338.759224266916,-27882.728324261705,-31163.53972715613,-29554.527050796398,-26906.404126453894,-27102.138352649017,-31153.794366573617,-29963.183994672778,-27463.34254304678,-26299.48720925894,-30803.542530958955,-30307.490266262328,-28110.246731072275,-26051.986342905326,-30322.28712109174,-30697.438800029613,-28645.48160379906,-25985.46755140633,-29634.255723268478,-30921.515038194066,-29028.143468873917,-26093.314718403188,-28648.43203406716,-31102.3406508375,-29399.450647765476,-26444.03594065141,-27718.666519959752,-31164.59025914553,-29682.20021512511,-27004.617691590513,-26965.256269604717,-31062.263973029134,-29945.50376480863,-27545.820480086863,-26332.567791052796,-30742.83519301834,-30287.910138119478,-28130.966798182348,-26030.86394439506,-30218.776192519214,-30610.848142009756,-28637.591438006337,-25988.865016563537,-29460.78383455084,-30970.264192851093,-29149.714606966332,-26248.81580457876,-28670.403798866726,-31251.069158443115,-29476.83238706975,-26744.10810996391,-27859.70602747274,-31322.10300232208,-29790.33795479989,-27218.076851138696,-27026.79062209018,-31145.390110658424,-30065.08559764452,-27688.24579575608,-26374.432608417585,-30688.386343525213,-30363.86136577861,-28339.530925694817,-26110.83848605615,-30161.376912757984,-30638.8325260678,-28791.438495092214,-26080.171892663468,-29441.181354663535,-31042.326216975,-29210.153723973483,-26334.288875375853,-28517.897846448166,-31223.397698807443,-29556.65046651965,-26809.50931424014,-27679.729781118607,-31468.328114548698,-30278.65651591498,-27891.646670299375,-27627.538457815466,-31937.357120198863,-30963.871593936874,-28617.184295318642,-26927.95120810881,-30897.01752627105,-30386.83895907867,-28220.641996937036,-25882.604823423007,-29922.950854653223,-30710.6486810027,-28850.357693476402,-26093.78410503675,-29289.681230745464,-31023.148420232348,-29190.461837108356,-26347.744625537947,-28368.007048130876,-31200.017774107193,-29561.031408432893,-26813.130296841897,-27453.06074059734,-31188.484273968254,-29794.942414157682,-27251.336246888193,-26798.02051759011,-31082.87228141693,-30216.764535518236,-27964.178081056845,-26315.938093178047,-30694.89070116171,-30647.348540705272,-28630.975321647566,-26275.01204908038,-30127.424612930372,-30997.823893764486,-29087.71086784731,-26316.58629376725,-29368.62759216161,-31358.536345784232,-29581.505606353952,-26716.57076079497,-28613.920940628166,-31663.548250621352,-30045.66193171286,-27346.442919545523,-27894.61945231193,-31791.467284139075,-30494.060277230776,-28006.556988544107,-27314.949311607998,-31693.186663769087,-30965.145643370826,-28768.21503260315,-27019.10162199755,-31343.426566532442,-31363.29726735321,-29292.832826713664,-26857.766730519146,-30699.383401797226,-31694.46071320304,-29780.212614561635,-26917.065908559074,-29796.283518825,-31852.375787779783,-30001.338422457986,-27081.105361116573,-28707.038308028976,-31766.43333034913,-30070.0476849136,-27367.922945967075,-27648.70555981464,-31585.942993872526,-30267.435940198415,-27824.613788677907,-26911.7014898898,-31210.545445745644,-30338.67094977748,-27966.860290391483,-26110.279692444765,-30448.239201097396,-30615.273787411905,-28663.251240641028,-26170.2270710739,-29887.456284458196,-30990.447818094235,-29077.47376888678,-26323.06829965929,-29079.440722398846,-31299.751257866774,-29455.419415881566,-26606.622529819317,-28074.79686436616,-31384.196148418923,-29789.533291999494,-27082.804093695177,-27153.435606173945,-31154.73313984074,-29914.88187490486,-27462.649638968665,-26359.322829165798,-30256.93062030442,-14013.24737229912,14215.62006659747,18469.22409167577,18649.267393263268,19008.2364092155,19457.55117625608,19996.272921117892,20494.24743583768,20874.584719489183,21257.827729919878,21679.49338906925,22137.346522491756,22563.41547529882,23092.503618300394,23771.191986941336,24590.137552039334,25385.859654648266,26373.225614216997,27561.913736094684,28853.531641189056,29973.108169210933,31029.786888335573,32016.61640603738,33054.54201156402,34053.620285227335,34998.13795067525,35981.525299730936,36992.62881191121,37914.52651197035,38677.078625807604,39277.53588885497,39665.02573073217,39970.0823390582,40141.63197775269,40249.81442091637,40154.28306511439,39783.15470017847,38974.66975148556,38270.05335927646,37335.52692360007,36470.3579509685,35728.50355249686,35143.021958234545,34659.82194659972,34492.20621492937,34741.942255728514,35117.27274862203,34957.904810655695,34490.283964906215,33812.9814044215,32988.269089254034,32181.147596972896,31419.802477336227,30649.583715150802,30031.110946072455,29471.26680270038,28900.224435356195,28337.56397218275,27712.05040360098,27117.494001089814,26598.03945994848,26247.47469991144,26330.95846545201,27754.764587255075,29126.513496221723,29116.857542617032,30453.290695344294,32773.3347145718,34081.6940762632,34436.304502046645,34591.53736728876,34998.78615126445,36152.96317970314,37595.12008370401,38132.92540704315,37608.799351310656,37059.88521097723,37196.253203899054,37219.99075651059,37065.20492615759,36819.71571680495,36513.89914916744,36131.192580603674,35829.868713601674,35571.39314072051,35304.64742239087,34949.500554740494,34632.44105964197,34340.9072567114,34041.37152926582,33691.29850760681,33367.26526823822,33084.336886922945,32797.02756369443,32527.666691263523,32522.369327827615,32883.17118682518,33470.48562413283,34006.7263253601,34937.25179877899,36143.351929587356,37120.011403562,37801.20316758194,39102.16410185863,41161.47502201498,42938.036374811694,44232.38119272962,45942.02142262714,48584.37759690018,50704.10528231922,52463.81341979664,54326.00430560164,57030.05129457132,59146.98501193345,60517.75044414407,61723.82822320798,64151.384133265514,66530.77203402187,68435.40888254749,69690.59344417971,71724.91511403503,73717.95311188139,74698.05475450215,74683.30260316165,74308.8885317908,73960.5589461993,73613.19048561937,73281.62470836935,72895.56537813728,72554.94714438285,72222.26377991006,71904.4666772445,71526.69984420536,71182.57238657145,70859.79084489237,70547.6040300851,70180.96836578469,69834.40456800516,69520.8095932972,69212.31081632506,68853.38650386174,68489.90243552953,68164.61749847145,67848.02739000648,67502.75999340534,67145.37795130943,66838.82377610491,66537.49990910292,66211.11973656651,65852.39658980329,65548.61403091121,65250.91114651098,64934.14222409037,64570.009955168964,64264.26044276482,63972.369011922965,63670.82162747641,63309.81860277875,63003.26442757421,62723.86762188288,62423.70604559255,62060.60195691609,61760.5297876036,61534.79952034945,61170.22021653894,60645.66947766179,60338.51180535696,60033.49990051984,59579.73713633265,58975.301262772235,58653.61495657146,58442.52508193554,58067.55221695331,57508.199811959246,57112.41747288912,56882.68624337748,56500.940799825294,55943.3541826432,55474.5933979265,55205.07606328441,54618.23101261032,53541.72629615382,52567.74903151382,52379.435584477855,51971.47154467959,51050.98200452114,49925.99635434108,49838.22105386508,49717.45457857306,49098.91475426135,48135.666326959894,48202.96742951482,48144.405859041915,47508.83400545526,46369.677349290534,46168.221076514856,46093.186270378385,45431.507579267934,44200.328791180706,43743.88381765888,43718.40282897983,43140.8337522547,41972.530421320254,41322.34052685983,41422.565748997426,41008.49968296286,40029.62738628714,39280.57572610089,39574.232944754716,39589.47683447324,39077.77834865789,38458.411509801335,39153.05902398336,39617.88590167593,39242.68951924914,38465.18408837129,39444.36930946938,40483.39015047433,40620.629861429916,39679.576716372576,40189.285896931404,41065.518983068345,40856.66428287796,39488.514004768615,39441.62004490138,40226.680365405125,39905.19522490445,38286.2360222621,37646.14911629547,38453.69529172126,38123.73884007202,36552.43355660839,35415.467371400286,36279.69757076473,36231.238988785626,34925.15950502867,33421.311786331156,34229.77438327961,34518.69303210891,33760.991246818456,32261.18919386735,33074.2562501736,34001.78658983548,33748.00488328992,32407.973099705352,33370.08158803959,35119.463219578654,35596.71766718837,34571.53255600126,35380.777464005645,37356.001121521134,37777.44326322595,36548.32083562861,36229.51790446257,37806.500531017846,38080.6893802511,36733.661500652015,35659.70488306342,36958.65416033914,37274.95369612619,36171.470424112136,34683.157167811056,35972.87517462673,36837.194780969,36350.418490221324,34935.91069411167,35909.48562735148,37031.43144028562,36725.771334859295,34946.930104128136,35349.57442874604,36749.73240491538,37011.359573764756,35847.638350443645,36934.11194492721,40187.877737030714,42077.80713770475,42230.290738378855,42949.68163367291,45600.039732460944,46441.404097247614,44952.15206767942,43549.66951008672,45025.376382515,45069.811650492156,43224.89866315111,40971.842822056155,42334.11459137376,42822.768428655676,41464.89995299577,39002.2071006545,40330.23599746657,41668.636103705896,41193.10274041924,39257.77694675648,41240.711956109044,44467.07450951034,45739.35815565087,45017.68738242238,46980.125842109424,50903.438139371654,52730.603841615186,52307.865298731966,53580.75244197279,57842.090170632626,59993.35616747811,59858.59750015706,60216.38187365316,64667.08358133836,67466.5725191322,67767.6952204341,67536.91345893305,71542.65898974646,74811.53456110174,76253.78087208043,76642.47770815823,81070.44769173238,84990.54133779304,86315.5751008481,85372.44324355641,87846.28961638089,91069.25470462498,91849.48704832638,90166.73596700859,91070.32758835884,94119.70902916302,94920.77319869676,93450.07311702646,93503.00204789663,96606.18413760474,97494.48716574755,95985.11856616958,94838.02704072322,97826.18705346431,99287.36529199664,98556.35148958582,97299.04351223035,100776.79613552048,103379.85794304109,103543.67387815403,101824.22123244063,104331.52816671469,106651.63924117557,106350.51653987367,103615.26651564438,105237.75729391066,108778.18420865349,109668.76711473074,108007.71957727904,109213.48443192059,112956.73107585087,114043.56229824571,112383.52058929451,112408.30867389544,116031.4370431229,116892.26977733015,114890.73811659076,113000.76401242781,115695.42326872627,116264.27516511384,113920.04655838569,110573.65513725938,112318.87934432976,113181.20964541551,111887.53537983124,109324.41613965228,111974.75188669586,114455.12496890128,113986.16301848448,110947.80098769677,112302.58492262184,115471.59289975083,115891.67158504386,113467.93782328819,114077.58165330668,117592.28171018144,118221.81859276516,115740.59614427044,114605.88748525233,117432.6679030261,117827.73498627366,115401.81075356135,113165.5634242968,115735.05291164553,116212.97791158891,113746.28409699013,110216.87659226378,111899.44885962593,112558.64650710185,110464.06453419501,106472.378250644,107489.94141697187,109063.52657836993,107968.73813494899,104443.95744132489,105434.94438349539,104548.92123328701,95365.10352672382,85370.47629004435,79622.79225859551,73564.73190364026,59192.53786713337,42215.98562192746,28395.499693810907,19307.258046538598,8290.709053362496,-4810.073055037625,-16915.174354931638,-22329.750338763042,-26395.152675527654,-29864.76926383606,-33402.692783199884,-31477.537033264285,-30272.643896656504,-31926.851800304867,-35495.50896829474,-33958.46890908109,-32348.249238520773,-34080.17415764024,-38425.666204174304,-38960.968132134454,-38289.365266485845,-41063.17204990054,-47082.206259036815,-50674.1092412602,-51072.7526036206,-54404.81655655105,-60661.76273366961,-65154.08338953059,-64700.20886662113,-66694.38680343471,-71673.23788085436,-75627.5073441872,-71680.61395652461,-69661.42441766553,-72218.97807347514,-76471.26334563058,-75142.67565520712,-74710.19175174138,-77164.48034816746,-82133.5860650046,-83382.42273121151,-86321.76653406222,-92851.89573191354,-102116.8502708495,-107463.67811723688,-111673.5621301606,-119436.47944169992,-131668.89627801135,-142038.20580699513,-149214.81450972732,-164045.5769354793,-185207.716847386,-187500.02235174447,-187500.02235174447,-187500.02235174447,-187500.02235174447,-187500.02235174447,-187500.02235174447,-187500.02235174447,-187500.02235174447,-187500.02235174447,-187500.02235174447,-187500.02235174447,-187500.02235174447,-187500.02235174447,-187500.02235174447,-187500.02235174447,-187500.02235174447,-187500.02235174447,-187500.02235174447,-187500.02235174447,-187500.02235174447,-187500.02235174447,-187500.02235174447,-187500.02235174447,-187500.02235174447,-187500.02235174447,-187500.02235174447,-187500.02235174447,-187500.02235174447,-187500.02235174447,-187500.02235174447,-187500.02235174447,-187500.02235174447,-187500.02235174447,-187500.02235174447,-187500.02235174447,-187500.02235174447,-187500.02235174447,-187500.02235174447,-187500.02235174447,-187500.02235174447,-187500.02235174447,-187500.02235174447,-187500.02235174447,-187500.02235174447,-187500.02235174447,-187500.02235174447,-187500.02235174447,-187500.02235174447,-187500.02235174447,-187500.02235174447,-187500.02235174447,-187500.02235174447,-187500.02235174447,-187500.02235174447,-187500.02235174447,-187500.02235174447,-187500.02235174447,-187500.02235174447,-187500.02235174447,-187500.02235174447,-187500.02235174447,-187500.02235174447,-187500.02235174447,-187500.02235174447,-187500.02235174447,-187500.02235174447,-187500.02235174447,-182802.33386782813,-143777.6856157405,-128269.33005682589,-123544.32774118516,-123409.70318433085,-109308.83697376693,-97854.10438228899,-87898.1456635172,-74762.38307504453,-35354.156536359376,7831.805387950586,49703.26122084394,83272.31803802468,118675.0672668299,134619.2371391341,139420.92829000097,140179.8817729809,145462.67187150382,146978.65658744058,147210.13125301973,146776.70857628688,146273.79432604247,145789.96846556288,145318.7042854672,144859.13006772162,144411.49168151518,143961.2381412075,143517.26544109173,143075.6173223993,142647.2237881689,142244.1771321508,141876.3344736498,141468.41513734046,141028.95748960465,140632.66106041207,140238.73391613172,139833.09445775682,139404.96914445987,138993.2500115931,138592.6173439762,138185.88265012298,137793.76599714352,137423.79992291928,137063.08747089954,136683.80071923742,136302.41290359653,135898.65099175586,135498.7782834504,135089.383732007,134716.55663449247,134391.5175666234,134021.93147205492,133611.70990606665,133248.22583773444,132876.7621966317,132517.14498009026,132164.948542708,131814.13791348194,131450.8326591054,131090.05315185228,130733.76634523469,130384.90031777625,130028.70291813648,129670.58326847355,129330.6802905417,129005.32829825024,128665.0229889182,128318.05685973846,127993.44247501403,127647.32571212361,127296.67154510875,126932.78514537636,126583.1815103509,126237.48943060511,125888.28812697985,125524.69229992537,125180.00604868008,124845.28867546185,124518.99790990328,124166.89087949884,123821.08704103078,123492.4493423044,123153.99922776213,122784.83781633829,122436.01649236877,122110.50803786612,121786.56420547537,121439.19574489543,121088.29570869157,120763.07782686685,120439.46927064292,120098.51576072167,119747.74983498453,119423.5377816603,119102.67849000437,118768.78813133099,118413.93183635853,118088.49043708926,117768.01112508908,117439.88751648516,117090.90973030445,116761.1097408664,116434.17077471863,116104.92957889196,115751.48144382019,115413.65717812267,115082.49373227284,114753.34194342399,114413.0589858364,114077.67106028451,113747.42403595735,113416.70762499662,113082.86196981216,112745.61884947048,112414.94714199868,112085.34831826072,111754.54250032218,111421.63561840483,111102.34094886077,110777.39128796951,110457.33665911396,110124.98857080801,109801.55882853971,109472.87642632442,109154.87815795877,108823.06651151973,108498.51918202869,108168.76389607953,107849.9609649135,107519.66923709742,107191.9032564048,106865.29956642386,106550.0058591373,106221.41286389982,105888.21540930455,105566.55145484823,105251.63772721741,104930.6219733503,104602.72188219093,104287.80815456012,103979.66700549926,103659.85824583271,103317.45187252187,102982.39922313682,102659.72944018,102337.14906420102,101989.51238268762,101669.23423638752,101359.19318904796,101043.16187419438,100696.03928280345,100377.23635163742,100070.50336247723,99747.3418411424,99395.52538341586,99061.32210032012,98753.73974487063,98445.62094755423,98098.29719046321,97760.0258898766,97463.01590955448,97165.84946702117,96828.33812574603,96476.23109534159,96229.42313306608,96008.76671180328,95615.53247160107,95274.44485121309,94963.77795502877,94625.86428235345,94301.65222902922,93979.72005363942,93665.14160217543,93349.9820053556,93025.97111773147,92705.71532317583,92385.19130768673,92062.61093170774,91741.41636388497,91427.86609266592,91122.67537387316,90806.4875968084,90488.71284588729,90181.64458056029,89876.83384142326,89556.60039861208,89235.29407206703,88925.1412660052,88621.73868676886,88298.0407235671,87971.95112370863,87659.60784669017,87355.93704652037,87032.93198739672,86707.98232650547,86395.57199425364,86094.4716446962,85773.45589082908,85446.38281421456,85136.40882210837,84838.61653073032,84526.69793685651,84212.90179644845,83913.27666202506,83618.92653929313,83309.13136114257,82999.76086613665,82700.00162124654,82395.05677164278,82084.0769510361,81776.78516826453,81480.42338853162,81171.72344585937,80853.05462516006,80545.74049064404,80254.18433596901,79943.2715705957,79624.35688070738,79316.41689734661,79027.56530375067,78724.76622161463,78409.38310735025,78100.30318502226,77809.12701000298,77511.35707036937,77200.04197359586,76888.48100763334,76597.30483261406,76304.78755292745,75993.1371799871,75678.29050758964,75376.49725395409,75078.1685207091,74768.86508093656,74455.82889984,74150.19114615812,73864.22292759693,73565.53656644066,73264.07858897193,72965.83926270477,72681.92740463346,72382.72695335472,72078.09502817334,71769.8421203902,71483.89625357345,71187.53447384054,70884.5342260044,70570.64867861851,70271.0905994285,69974.32648829538,69672.26501372636,69362.80511174264,69062.28590754102,68765.65590687466,68461.44866483792,68148.23366978571,67840.27133468048,67541.27204910184,67240.59638268905,66933.9975039956,66629.32087532531,66328.75696763479,66030.91997276784,65728.34440807634,65418.169250270046,65116.286589656665,64820.79652795751,64522.53484994589,64216.539468352734,63913.33805481649,63616.104557049825,63318.66989358305,63008.4723840323,62704.332197228934,62408.149231451665,62112.994445919336,61808.384872482406,61501.38366238877,61204.73130997793,60911.25290527975,60610.9572185227,60309.387482331695,60019.26183930181,59727.191594504315,59428.90756474824,59124.02977037785,58828.80792961216,58528.57929808847,58224.1932420961,57919.2707442368,57623.490109859726,57328.335324327396,57024.19513752403,56717.864479764045,56423.11202563191,56129.92419361165,55828.823844054205,55525.711837495786,55227.606621695355,54934.8658245642,54641.27566114374,54341.06938136451,54047.14394177723,53758.337051670205,53463.67400451589,53164.13827707032,52867.21770372602,52577.51674384079,52288.19576361129,51992.839812378865,51699.98725652543,51413.95198273087,51125.346258323945,50825.76582738946,50520.396294641054,50216.61373574898,49913.14410127927,49595.52581256936,49261.88132308499,48919.67611547424,48580.913076509605,48226.25794723725,47790.91302048123,47281.1591364335,46873.79859373553,46554.235703258004,46724.265423329525,47784.54277331147,49288.390492008984,49925.057581073954,49668.61601693821,49562.46758251996,49278.17574479291,49097.2383734272,48967.665310819786,48756.664843161685,48430.39642934757,48133.67702170337,47705.88698457325,47223.893967139,46886.382625863866,46672.02939653747,46440.68884142504,46284.71836861591,46153.98301529682,45981.09227193502,45721.767332764546,45405.19957604403,45101.86405204106,44836.19121744528,44595.21706047262,44358.467383202005,44097.66722889748,43848.51233345417,43621.70918246618,43312.338687460266,42947.40175573847,42553.38520448032,42184.06733084528,41821.99142241376,41474.10887171136,41177.523574533894,40913.66123123899,40627.84947488898,40319.730677572574,40017.803313470286,39752.19753410787,39503.24380436466,39256.77111825599,38981.37527482215,38684.09707356657,38396.966564293696,38109.21020617607,37841.928045979505,37591.36499063551,37338.27618816807,37103.22524347607,36956.12841321569,36829.97516750993,36668.61792428707,36456.56692463958,36218.38673572383,35971.578773448324,35706.420028975015,35412.29342368763,35119.61968178984,34841.40751855463,34561.13899482954,34270.65572388837,33984.553394860435,33713.33732763974,33435.70630976037,33149.58162898799,32873.29171577594,32599.5946049207,32313.78284857069,32024.931254974756,31745.199173116587,31477.358219308644,31197.179102561367,30907.20992174267,30621.35346190375,30334.87115322008,30041.169231077343,29733.296302949944,29440.35434011869,29145.043092375174,28839.785318349044,28554.8899835217,28287.60782332514,28024.393680619443,27772.556575841496,27526.910904277673,27263.629706338612,26980.611918045513,26700.231635598142,26428.23325732151,26158.782977912782,25870.199605250313,25575.40244762927,25297.033822182875,25025.437775306436,24733.50164097567,24436.73752984256,24145.49429958991,23859.81665370663,23565.399475741324,23277.08432401232,23000.79441080027,22715.07206142808,22421.660711963264,22142.487423716477,21869.125589028074,21579.245815187194,21265.516730012507,20976.10634280519,20730.795947408194,20464.4302087343,20177.14323725024,19893.36548964566,19617.25439038925,19329.363921804896,19036.265496762455,18746.832757810684,18456.014210702684,18167.83316944041,17890.805648661335,17611.073566803167,17321.66317959585,17041.685228548675,16769.396277594125,16485.819695689643,16193.324767747496,15911.983360288545,15642.95776402447,15364.119751944514,15078.866789205884,14805.706120217577,14532.478395995904,14247.761875124203,13962.777133319038,13688.767098041428,13410.040844683748,13122.910335410874,12842.127721563307,12577.125439301186,12305.283523235741,12019.628229096917,11743.427722862689,11483.23106565846,11210.919762959453,10923.20810833074,10639.408008981707,10371.656462151583,10096.864115818038,9809.37597863388,9528.861585719775,9260.908873189554,8984.864829166512,8696.415566970774,8412.347246688276,8133.598641586143,7854.492408572723,7570.1558673567615,7286.244009285451,7002.4215581919625,6717.302705920066,6434.486083327065,6155.111629380182,5858.861608369542,5564.444430404238,5286.299322402397,5020.358266873153,4745.252996117234,4465.386803792334,4195.713006939055,3934.6669834455233,3664.702613914325,3386.4680989346625,3115.9002323031705,2857.46936291091,2591.818880059586,2314.009048224574,2042.3012426258617,1777.2766086192858,1509.703875744805,1225.5014449955756,946.2834532598798,682.644627409533,417.17295851385103,138.6031673673591,-136.90443478875576,-406.6676386198567,-677.5931331626336,-957.0122905984272,-1227.356639785366,-1494.4599860262856,-1772.2921696057524,-2053.812391020345,-2324.380257651837,-2600.3795981859685,-2888.8959156150718,-3177.881619677737,-3451.2658061105976,-3727.0863326890867,-4016.764940829866,-4307.829357126875,-4579.76068017014,-4852.206093335878,-5141.325907865275,-5430.132797972298,-5705.282772217128,-5975.582417915156,-6262.511761487933,-6552.346831839899,-6828.055599696112,-7097.1035477046435,-7380.769536586945,-7668.28002551556,-7942.781799171186,-8212.232078579913,-8494.311093605887,-8778.580579588483,-9058.960862035854,-9339.318792738772,-9626.00226712254,-9908.282447848613,-10193.267189653778,-10490.388928698174,-10786.884818897823,-11122.451558405348,-11455.604309511698,-11779.99517679157,-12099.1557358689,-12428.195765995475,-12740.449636036115,-12984.731851188166,-13191.664301355398,-13368.60071046361,-13540.619735791654,-13628.015056611903,-13601.17061152108,-13323.427834919434,-12735.554604000403,-12486.422060301551,-12845.815759398432,-13248.258918316236,-13570.459314639487,-13875.113591565323,-14137.858347637457,-14338.845233779579,-14606.775594565344,-14913.66504593671,-15183.04827011207,-15404.509354175254,-15646.71285709296,-15941.599421691826,-16207.674587687801,-16434.96947705382,-16659.96213674094,-16966.896291601217,-17245.577841469985,-17485.613225175526,-17706.73903307188,-18014.79077515492,-18292.75706920112,-18526.064577825615,-18730.672446569497,-19020.90984832166,-19284.168694516266,-19488.75421151569,-19670.004507303776,-19952.552908963313,-20258.928270212207,-20520.39897685039,-20756.500453531797,-21043.58625931576,-21393.547522252506,-21696.547770088648,-21963.76287505184,-22298.524951758976,-22699.604654265007,-23024.062576778244,-23299.972510334555,-23603.82212446,-23995.17881812797,-24348.135214821723,-24685.154817718845,-25045.554345316214,-25481.592176150345,-25901.201474809823,-26329.058567173313,-26765.878709063378,-27252.945572488974,-27701.72389766263,-28146.881240234525,-28571.810254074368,-29015.8500094235,-29410.179485104025,-29770.266088279022,-30103.552949852106,-30465.472396072437,-30799.072182067895,-31106.49807530619,-31417.187323234957,-31746.89790569519,-32082.330534735986,-32394.070314654153,-32693.27076593289,-32994.4381707237,-33315.49862807973,-33610.36284093414,-33898.11919905176,-34177.516004743105,-34486.41711311544,-34770.77600607586,-35048.6752448887,-35311.73292538321,-35614.39789705251,-35897.81801674581,-36175.04670322499,-36429.25309291519,-36719.84812257864,-36996.07098055732,-37254.479498205124,-37497.487663923224,-37781.48892897236,-38054.5825427273,-38295.62375493333,-38518.4929988972,-38774.599286866105,-39037.47815340497,-39247.29397860694,-39444.14579202483,-39668.98198950076,-39913.04068720826,-40092.92752658457,-40238.213865544065,-40384.058998114946,-40581.24608769966,-40817.39226786998,-41139.88323687115,-41422.52104550851,-41708.60102279199,-41951.139801876525,-42189.4093977701,-42477.09870065436,-42551.440602712704,-42797.64506788791,-43136.72103127492,-43433.59690113031,-43500.56272751841,-43718.69340165775,-44096.303772485706,-44454.8928087822,-44615.44538920467,-44801.18838562827,-45145.96404385138,-45476.591047834285,-45688.418530037234,-45845.46188658022,-46173.00434982829,-46479.469118055,-46743.845551472376,-46896.6197248244,-47213.72392341184,-47505.68240948706,-47814.22588994812,-47987.60837168794,-48298.56584055017,-48588.24444869095,-48915.27282181654,-49102.803957796576,-49391.655551392505,-49684.59751422376,-50024.969878789176,-50246.11803842998,-50505.35357062263,-50804.174042245635,-51135.44924681774,-51391.95786618684,-51615.31884852873,-51914.340485851826,-52238.41842870932,-52531.76272294077,-52728.16750146956,-53045.98695587957,-53385.26408496667,-53691.93001889349,-53834.71296247399,-54151.32542268341,-54510.94263922485,-54849.77273342285,-54969.93571161458,-55268.577369281935,-55643.30436507516,-56001.11109031572,-56126.01263833197,-56395.82054565198,-56771.62042517906,-57141.85472033676,-57281.35195748234,-57489.75962278362,-57866.83355174465,-58244.10864640578,-58419.56984037994,-58590.381871507394,-58972.8202191377,-59354.856235367806,-59572.964557762694,-59709.8913442959,-60082.42786913251,-60456.93134748118,-60725.979295489706,-60842.49893933522,-61168.5885391937,-61483.2116941466,-61779.68523260179,-61922.624638393485,-62230.139938609595,-62534.92832600216,-62859.67682119332,-63044.25752690525,-63329.01875126586,-63630.141452567754,-63962.489540873714,-64194.388889597525,-64466.92370974109,-64781.63627167181,-65116.353644890034,-65381.02065098532,-65611.0871566638,-65918.7589190911,-66231.25865832074,-66528.76037702088,-66731.17777480815,-67032.43458657677,-67330.31628493265,-67656.09296036875,-67840.09252072484,-68142.55632669406,-68452.03858042223,-68795.27196827793,-68955.48927253357,-69225.87832520943,-69528.56564862319,-69850.3860652907,-69973.90180515073,-70197.30749098152,-70531.26490488826,-70893.67608948662,-71054.78746352046,-71242.25154426713,-71583.16035069947,-71933.76981422542,-72089.09208644535,-72200.53788429951,-72531.34370223805,-72897.01824152688,-73132.53857285244,-73241.4362718387,-73581.85333989303,-73961.87769912215,-74252.8750601858,-74349.76987239956,-74671.34441987806,-75051.99462795194,-75403.58756823392,-75565.59301204598,-75900.08686781966,-76272.89161358972,-76605.61968155143,-76697.61946172947,-76924.73553713984,-77273.71332332055,-77545.62229461936,-77566.92350708527,-77667.14872922287,-77946.32201746965,-78211.74898287642,-78303.92757701011,-78361.23744979352,-78589.98520254913,-78797.16352190537,-78922.5791600441,-79017.32820479014,-79313.84644673424,-79566.62232477931,-79792.64316471138,-79888.26392749118,-80159.59175343416,-80421.88947461719,-80714.13853337032,-80883.63181157492,-81211.97893762338,-81543.07532823984,-81921.7362310572,-82164.83380375312,-82477.62411566068,-82797.43287532723,-83146.34360627456,-83401.44406574298,-83658.71264442356,-83963.45632832723,-84297.79372188971,-84593.08261788877,-84826.14425732425,-85151.51860136016,-85493.76851245982,-85829.91639732319,-86048.22588541817,-86427.91496848047,-86868.62431390576,-87336.17810442187,-87551.89479016005,-87870.18363120362,-88232.14778091286,-88585.59591598462,-88703.59077496419,-88992.88940344923,-89464.13123180046,-89973.16986002563,-90221.47538917964,-90505.92368911787,-90818.51283532535,-91093.05931246988,-91140.15443803722,-91277.95294260418,-91661.0841943126,-92055.12309731521,-92266.03415799548,-92421.17761625977,-92819.77627513127,-93227.47209399607,-93482.30433253103,-93578.2380197332,-93911.65899177302,-94249.52796095944,-94481.53906840552,-94524.85674915991,-94849.76170656225,-95252.27192071342,-95609.72101804269,-95752.90629302339,-96081.36517779413,-96456.31569103191,-96830.48389321375,-97029.66028805499,-97324.14452125365,-97668.78606901004,-98015.70749470085,-98254.26766327235,-98504.87542210525,-98829.53451031858,-99151.64549966401,-99430.97525012199,-99657.30901447643,-99990.90880047188,-100308.34827522616,-100636.69540127461,-100851.2050928122,-101182.79322180669,-101482.41835623008,-101846.1929972402,-102062.22260740073,-102391.15087880503,-102698.37560634322,-103082.26681736312,-103307.6841601949,-103603.26362887188,-103915.53985065698,-104296.23476221977,-104511.92909621348,-104756.61364276572,-105097.96948408718,-105488.52151495476,-105713.71534034198,-105914.41165380618,-106300.51568752715,-106713.59827680569,-106957.36640183526,-107093.71204301264,-107470.58480627356,-107881.4098693621,-108172.56369263693,-108281.08141196745,-108642.55382329867,-109053.06596196485,-109382.82124791399,-109487.51681894265,-109856.49941641086,-110330.4905093301,-110765.47780817484,-110939.50849050385,-111287.50279992852,-111707.44737475483,-112062.7507046164,-112159.46670287452,-112369.86367343232,-112736.56639296608,-113091.91442631657,-113268.3814487912,-113472.25170996807,-113844.38590340447,-114201.6561867781,-114460.28822187046,-114670.08169532797,-115051.22364177987,-115381.29185215138,-115683.80036160951,-115872.78436097913,-116222.54445821578,-116530.26092413199,-116865.38062875041,-117063.81941602462,-117396.92746364206,-117700.95589172315,-118048.03377962516,-118253.44631116943,-118555.01604736043,-118854.37296085036,-119201.31673828563,-119433.79723236528,-119701.23585477304,-119999.60929150693,-120331.19742050141,-120601.67588015507,-120835.2739614575,-121135.97197961474,-121454.70785554741,-121767.20759477706,-121980.75616130307,-122310.51144725221,-122648.42511992755,-122991.5243973165,-123152.76988181709,-123433.26192298674,-123734.49638301092,-124052.56170660994,-124165.9074027428,-124465.59959239955,-124847.30033246284,-125212.84076128493,-125326.4323266068,-125579.9458122189,-125976.55516583387,-126381.45701664174,-126544.35653023202,-126764.58826835017,-127168.2160697241,-127588.85354862853,-127795.27190867328,-127963.66995139957,-128363.54265970501,-128783.95662116488,-129040.21937134498,-129169.97124790803,-129545.7264239462,-129961.2230016259,-130270.03470302043,-130371.89160250327,-130706.38545827693,-131112.78487596332,-131457.1805545307,-131550.23086669814,-131831.52757066817,-132210.74726709691,-132574.83483252942,-132681.05032218102,-132923.20912160983,-133315.8622164562,-133701.8544914549,-133848.0349001926,-134039.65640540796,-134418.40671520313,-134810.1657402713,-135001.49667280875,-135148.41468911347,-135516.1902923811,-135913.4254948408,-136157.99828267077,-136259.38579552007,-136599.42288391863,-136978.32965592502,-137250.46214466836,-137317.94206117894,-137615.86846302374,-137989.8802029944,-138330.78900942672,-138436.33394674468,-138733.1427613667,-139134.40127782838,-139534.31868962274,-139680.25322917145,-139930.90569149324,-140314.23810890177,-140722.93975626706,-140908.57099396837,-141119.88438604886,-141516.13611175254,-141936.9971081015,-142175.1549452728,-142359.08745039554,-142738.86594043564,-143149.4451343352,-143442.63296635545,-143592.76963386175,-143959.80762956233,-144377.2711607541,-144712.16734792799,-144838.49940758938,-145188.43831878167,-145607.0194371962,-145988.78723249285,-146123.21062364706,-146431.99997329712,-146847.13892306553,-147263.68603273464,-147422.40577011177,-147651.3546885675,-148019.30910579074,-148409.1235290913,-148581.36607186391,-148763.80101010812,-149123.64174409411,-149510.17046095975,-149740.3487253605,-149899.38138716,-150243.2629756049,-150625.2095848572,-150905.50046032673,-151032.36896185507,-151360.11259080324,-151734.0125720516,-152049.57450027164,-152163.38958303805,-152488.76392707395,-152888.4354696793,-153259.74264857086,-153378.02808022834,-153656.55316788593,-154044.04300976315,-154434.03624701934,-154576.43921094408,-154808.65148409028,-155190.12870670902,-155591.6777958486,-155765.7084781776,-155944.27656463106,-156317.52834529022,-156716.59639079528,-156928.2897625315,-157054.06302858153,-157413.8590590786,-157805.75219461348,-158065.18889250624,-158150.55020458106,-158494.81177268169,-158885.31910006035,-159186.4194496178,-159262.90711914387,-159585.28632942276,-159983.99674701653,-160324.07853890402,-160400.14152528543,-160683.0252031118,-161089.49167603155,-161459.2118810668,-161559.8841380935,-161804.85925732367,-162215.01376807856,-162590.61248190553,-162726.98047482735,-162883.91207264806,-163182.2184541486,-163441.40928285234,-163604.53231388718,-163778.18301656045,-164141.86825059276,-164470.93063246377,-164768.76762733076,-164977.0858856542,-165356.10441638285,-165713.03942358965,-166078.37868671163,-166250.01773238395,-166520.56324727097,-166717.9515025558,-166962.32312468567,-167132.97869360194,-167425.76419422202,-167695.81797073103,-168019.7170996329,-168243.18984069704,-168505.6216723468,-168773.46262615474,-169087.23641481836,-169355.83732793777,-169607.24974957106,-169912.1945991748,-170239.73706242288,-170549.93457197363,-170774.74841770512,-171120.35109047306,-171487.14321698467,-171817.16672386727,-171988.4928451172,-172351.5298785603,-172762.0867207154,-173118.50763779972,-173237.46362179084,-173563.5085181604,-173974.37828473788,-174351.47456544335,-174462.7191975974,-174739.16557302067,-175150.9964646097,-175537.90516113106,-175662.89611612514,-175885.67595311117,-176299.98788833476,-176694.51852971537,-176847.9856071455,-177016.16013242723,-177413.70825930932,-177794.13494993866,-177993.7136761801,-178122.3926690093,-178470.00699877823,-178793.5932032577,-179033.38271777425,-179144.8955708618,-179460.92688571537,-179742.15653445205,-180035.61258740578,-180205.82112143293,-180513.62699432697,-180783.94899176946,-181099.73443743403,-181302.80003581048,-181593.2162515183,-181866.5780862067,-182183.39171211622,-182412.31827882747,-182667.55284876263,-182936.51138979333,-183237.99171900653,-183507.4643501597,-183738.98371922778,-184014.3348591727,-184305.01929581395,-184614.3674390754,-184829.2794620132,-185126.51295977988,-185421.48893135655,-185756.80980167506,-185946.1961324449,-186243.02729881136,-186552.3307385839,-186910.45038824683,-187074.19926812642,-187360.01102447644,-187500.02235174447,-187500.02235174447,-187500.02235174447,-187500.02235174447,-187500.02235174447,-187500.02235174447,-187500.02235174447,-187500.02235174447,-187500.02235174447,-187500.02235174447,-187500.02235174447,-187500.02235174447,-187500.02235174447,-187500.02235174447,-187500.02235174447,-187500.02235174447,-187500.02235174447,-187500.02235174447,-187500.02235174447,-187500.02235174447,-187500.02235174447,-187500.02235174447,-187500.02235174447,-187500.02235174447,-187500.02235174447,-187500.02235174447,-187500.02235174447,-187500.02235174447,-187500.02235174447,-187500.02235174447,-187500.02235174447,-187500.02235174447,-187500.02235174447,-187500.02235174447,-187500.02235174447,-187500.02235174447,-187500.02235174447,-187500.02235174447,-187500.02235174447,-187500.02235174447,-187500.02235174447,-187500.02235174447,-187500.02235174447,-187500.02235174447,-187500.02235174447,-187500.02235174447,-187500.02235174447,-187500.02235174447,-187500.02235174447,-187500.02235174447,-187500.02235174447,-187500.02235174447,-187500.02235174447,-187500.02235174447,-187500.02235174447,-187500.02235174447,-187500.02235174447,-187500.02235174447,-187500.02235174447,-187500.02235174447,-187500.02235174447,-187500.02235174447,-187500.02235174447,-187500.02235174447,-187500.02235174447,-187500.02235174447,-187500.02235174447,-187500.02235174447,-187500.02235174447,-187500.02235174447,-187500.02235174447,-187500.02235174447,-187500.02235174447,-187500.02235174447,-187500.02235174447,-187500.02235174447,-187500.02235174447,-187500.02235174447,-187500.02235174447,-187500.02235174447,-187500.02235174447,-187500.02235174447,-187500.02235174447,-187500.02235174447,-187500.02235174447,-187500.02235174447,-187500.02235174447,-187500.02235174447,-187500.02235174447,-187500.02235174447,-187500.02235174447,-187500.02235174447,-187500.02235174447,-187500.02235174447,-187500.02235174447,-187500.02235174447,-187500.02235174447,-187500.02235174447,-187500.02235174447,-187500.02235174447,-187500.02235174447,-187500.02235174447,-187500.02235174447,-187500.02235174447,-187500.02235174447,-187500.02235174447,-187500.02235174447,-187500.02235174447,-187500.02235174447,-187500.02235174447,-187500.02235174447,-187500.02235174447,-187500.02235174447,-187500.02235174447,-187500.02235174447,-187500.02235174447,-187500.02235174447,-187500.02235174447,-187500.02235174447,-187500.02235174447,-187500.02235174447,-187500.02235174447,-187500.02235174447,-187500.02235174447,-187500.02235174447,-187500.02235174447,-187500.02235174447,-187500.02235174447,-187500.02235174447,-187500.02235174447,-187500.02235174447,-187500.02235174447,-187500.02235174447,-187500.02235174447,-187500.02235174447,-187500.02235174447,-187500.02235174447,-187500.02235174447,-187500.02235174447,-187500.02235174447,-187500.02235174447,-187500.02235174447,-187500.02235174447,-187500.02235174447,-187500.02235174447,-187500.02235174447,-187500.02235174447,-187500.02235174447,-187500.02235174447,-187500.02235174447,-187500.02235174447,-187500.02235174447,-187500.02235174447,-187500.02235174447,-187500.02235174447,-187500.02235174447,-187500.02235174447,-187500.02235174447,-187500.02235174447,-187500.02235174447,-187500.02235174447,-187500.02235174447,-187500.02235174447,-187500.02235174447,-187500.02235174447,-187500.02235174447,-187500.02235174447,-187500.02235174447,-187500.02235174447,-187500.02235174447,-187500.02235174447,-187500.02235174447,-187500.02235174447,-187500.02235174447,-187500.02235174447,-187500.02235174447,-187500.02235174447,-187500.02235174447,-187500.02235174447,-187500.02235174447,-187500.02235174447,-187500.02235174447,-187500.02235174447,-187500.02235174447,-187500.02235174447,-187500.02235174447,