5639.3227743295165,5657.293576871583,5683.4004143953825,5702.064121015564,5664.289672886094,5756.535322253147,5794.712101782811,5730.450836473803,5749.606281472002,5791.918133725898,5839.594404649068,5846.970480319319,5894.3114750756595,5878.866419657043,5855.330032745604,5878.821716168131,5898.871230944542,5900.905239689975,5921.893527733509,5917.914917220463,5929.694286548411,5915.143300908006,5856.268806012727,5859.107477558551,5819.030799750185,5760.960967655297,5699.828946570033,5695.448004656792,5676.2478561696835,5616.345181029461,5600.117814554908,5588.003169060132,5520.433845571738,5508.118034376864,5514.153005379797,5493.231772569629,5461.022908809532,5418.152262944253,5463.615711166348,5478.949007862689,5475.529190961027,5497.366845293862,5478.032586340021,5430.669239839225,5379.34963456984,5438.69351609868,5393.721806254603,5433.6420218517815,5451.523417416027,5460.866446598345,5457.9383680747,5422.153225201753,5423.941364758178,5438.917033543234,5428.1211409713205,5451.568120904937,5436.592452119881,5434.625498607815,5411.603201818848,5432.524434629016,5463.615711166348,5453.22214999463,5472.668167670747,5438.894681798778,5398.281562123485,5458.161885519253,5482.771156164546,5509.749711722102,5471.729394403625,5455.144400017786,5469.091888557898,5476.1997432946855,5450.159961004253,5416.252364665552,5419.806292033946,5467.817839123945,5469.516571702549,5473.9422171047,5447.7906760919905,5481.27358928604,5473.361071748862,5418.64400132227,5436.346582930873,5466.2755687565295,5442.560367889449,5439.766399832535,5465.761478634057,5504.094720374909,5443.722658601125,5451.948100560678,5474.74687990509,5418.018152477522,5429.730466572102,5407.982219217089,5463.056917554965,5500.294923817507,5461.55935067646,5449.332946459406,5459.03360355301,5474.858638627367,5448.12595225882,5460.911150087256,5450.271719726529,5409.055102950943,5437.844149809379,5448.103600514365,5482.726452675635,5494.975208637144,5478.680786929225,5425.975373503611,5427.249422937563,5441.733353344603,5518.2880781040285,5504.3182378194615,5486.749766677591,5487.330912033429,5503.915906419266,5508.319200076962,5460.709984387157,5447.544806902982,5424.388399647284,5397.789823745468,5435.810141063946,5386.345730584351,5388.402091074239,5400.472033080106,5347.900730121223,5343.63154693026,5388.692663752158,5435.296050941473,5425.394228147773,5427.69645782667,5426.869443281823,5400.874364480301,5379.796669458946,5388.44679456315,5405.322361626907,5397.521602812005,5399.4215010907055,5434.513739885538,5539.075200447464,5692.452870899781,5883.7390999483,5973.5484091697235,5991.206287289416,5803.138709442462,5516.499938547604,5392.045425420454,5190.253876477942,5116.604878497706,5171.858390791224,5177.759251327426,5271.100136172788,5376.957997913122,5456.820780851935,5471.170600792241,5488.493202745104,5492.158888835775,5468.309577501962,5447.589510391893,5435.921899786223,5451.478713927116,5475.41743223875,5463.526304188526,5414.732446042592,5466.1638100342525,5489.275513801041,5488.448499256194,5466.476734456627,5487.107394588876,5535.565976567981,5524.412456084783,5512.811900712479,5525.99942994111,5494.237601070118,5522.579613039447,5545.780723784056,5519.763293238079,5546.875959262366,5533.889595733834,5561.628110602869,5594.06049180752,5575.620302631892,5587.466727193204,5599.469613965704,5555.950767511221,5565.740831582646,5597.815584876012,5615.294649040062,5645.715373243735,5679.891190515899,5694.822155812044,5688.831888298022,5701.371216937449,5705.46158617277,5749.941557638831,5776.227209118272,5804.926848998886,5817.309715427126,5852.536064688691,5903.162765879962,5887.047158127685,5886.086033116107,5881.59333248059,5879.134640590506,5898.133623377517,5827.345648687559,5816.169776459906,5837.448637181358,5787.827764490577,5727.478054461248,5692.475222644237,5699.113690747463,5626.962259645732,5565.830238560467,5560.354061168917,5525.418284585272,5474.478658971627,5485.028682354532,5447.433048180706,5415.246536165063,5425.684800825692,5468.756612391068,5417.861690266334,5436.212472464142,5457.893664585789,5419.649829822759,5402.371931358806,5413.1007686973535,5425.416579892228,5373.649939733737,5367.749079197536,5410.8655942518235,5476.356205505873,5405.210602904631,5397.029864433988,5394.370006843807,5377.337977568863,5366.1397535967535,5373.560532755916,5397.633361534281,5379.126117125287,5423.717847313625,5392.11248065382,5378.634378747271,5407.848108750357,5453.22214999463,5414.1513006867535,5370.9677303991,5417.258193166041,5398.549783056949,5389.810250974924,5431.250385195063,5457.871312841334,5424.45545488065,5394.034730676977,5394.615876032815,5437.687687598192,5423.471978124617,5432.144454973275,5435.921899786223,5418.778111789002,5411.223222163108,5423.069646724421,5414.933611742689,5417.1464344437645,5427.271774682018,5434.849016052368,5417.481710610594,5458.921844830733,5402.0590069364325,5384.11055613882,5406.507004083038,5413.413693119728,5395.912277211222,5404.182422659686,5412.005533219044,5406.194079660664,5401.16493715822,5432.0550479954545,5402.684855781181,5375.907465923723,5429.149321216264,5404.875326737801,5401.477861580594,5435.139588730287,5405.434120349183,5396.180498144687,5404.45064359315,5434.670202096725,5438.64881260977,5385.16108812822,5402.394283103262,5363.390489028751,5358.763677926502,5420.275678667507,5430.669239839225,5453.378612205817,5427.69645782667,5389.117346896809,5370.744212954547,5419.35925714484,5448.036545280998,5451.456362182661,5419.985105989588,5442.2697952115295,5458.608920408359,5464.085097799909,5447.254234225063,5433.440856151683,5444.50496965706,5456.038469795999,5424.634268836292,5451.232844738108,5385.049329405943,5362.2058465726195,5363.30108205093,5393.453585321139,5428.367010160328,5401.0084749470325,5413.324286141907,5408.675123295203,5380.266056092508,5398.214506890119,5407.155204672242,5384.0435009054545,5350.7617534115025,5353.622776701782,5387.619780018304,5383.998797416544,5391.2631143645185,5381.853029948835,5360.9765006275775,5377.740308969058,5378.008529902521,5467.795487379491,5610.310210026528,5718.112673534474,5813.621677592001,5868.5399137186905,5820.081331739585,5621.441378765271,5465.113278044853,5326.331296721852,5117.722465720471,5164.057631976322,5312.115587248277,5366.698547208136,5418.822815277912,5450.919920315733,5445.846074324379,5432.770303818024,5403.1765941591975,5406.059969193932,5384.624646261293,5422.555556601948,5413.279582652996,5446.628385380314,5489.521382990049,5474.232789782619,5454.719716873135,5442.113333000342,5469.673033913736,5459.815914608946,5461.045260553988,5481.631217197325,5488.247333556096,5508.989752410621,5498.283266816529,5516.7011042477025,5518.2880781040285,5477.093813072898,5497.2103830826745,5519.763293238079,5503.80414769699,5536.325935879461,5531.944993966222,5544.417267372282,5527.653459030803,5577.050814277031,5577.207276488219,5556.397802400327,5545.937185995243,5570.702918851724,5601.593029688958,5624.905899155843,5622.156634587841,5630.11385561393,5679.824135282533,5703.22641172724,5715.60927815548,5757.384688542448,5743.146627324418,5738.4080574998925,5781.636331276457,5819.142558472462,5832.374791190004,5809.57601184559,5808.570183345102,5823.389389918971,5814.6722095814,5784.117374910996,5819.7237038283,5780.786964987155,5747.080534348552,5708.814347841067,5675.5996555804795,5617.440416507771,5601.570677944503,5568.95948278421,5535.163645167786,5533.599023055915,5503.602981996892,5484.536943976515,5427.69645782667,5428.188196204686,5427.629402593303,5418.152262944253,5410.664428551725,5409.345675628862,5420.812120534435,5420.365085645329,5427.316478170929,5379.863724692313,5386.345730584351,5397.566306300915,5395.621704533303,5391.129003897787,5370.140715854253,5400.807309246935,5419.627478078303,5392.268942865007,5358.674270948681,5360.641224460748,5370.25247457653,5360.10478259382,5388.78207072998,5414.64303906477,5379.01435840301,5387.440966062662,5379.573152014394,5423.203757191152,5436.413638164239,5392.760681243024,5389.094995152354,5419.471015867116,5411.670257052214,5415.9170884987225,5425.796559547968,5414.240707664574,5397.812175489924,5388.44679456315,5393.051253920943,5425.21541419213,5432.256213695552,5414.508928598038,5396.1357946557755,5396.40401558924,5351.655823189714,5363.636358217759,5424.544861858471,5387.776242229491,5365.133925096265,5404.271829637508,5391.643094020259,5397.320437111907,5399.577963301893,5416.520585599016,5404.249477893052,5407.803405261446,5410.060931451432,5391.821907975902,5382.2777130934855,5439.498178899072,5389.586733530371,5394.951152199645,5460.598225664881,5401.9248964697,5371.414765288207,5395.442890577661,5397.11927141181,5423.382571146795,5406.059969193932,5386.993931173555,5378.29910258044,5405.389416860273,5397.253381878541,5403.8247947484015,5375.795707201446,5388.178573629686,5386.189268373164,5419.158091444742,5434.737257330091,5393.051253920943,5351.320547022885,5404.093015681865,5419.426312378206,5420.007457734044,5400.941419713667,5399.823832490902,5400.583791802382,5419.806292033946,5432.435027651194,5445.197873735175,5420.610954834337,5452.350431960873,5460.285301242507,5441.487484155594,5461.380536720817,5454.093868028387,5449.26589122604,5434.089056740887,5436.257175953052,5434.245518952074,5396.560477800426,5387.128041640287,5389.743195741558,5382.411823560217,5372.308835066418,5384.267018350008,5407.535184327982,5375.974521157089,5369.984253643067,5373.87345717829,5390.63726551977,5417.280544910496,5393.230067876586,5339.272956761474,5374.096974622843,5362.250550061531,5387.016282918011,5427.405885148751,5392.11248065382,5387.239800362564,5380.869553192801,5465.090926300398,5628.3480678019605,5730.56259519608,5799.853003007532,5910.3376758501145,5862.281425271204,5692.162298221862,5486.503897488582,5343.3633259967955,5156.59214932825,5159.475524362984,5247.966080661546,5326.130131021754,5389.296160852452,5427.897623526767,5449.22118773713,5489.320217289951,5476.825592139434,5404.562402315427,5387.888000951767,5465.627368167326,5440.615766121837,5469.091888557898,5511.314333833973,5463.191028021697,5439.073495754421,5452.886873827801,5477.071461328443,5506.262839587073,5495.958685393177,5469.650682169281,5479.4854497296155,5491.913019646767,5505.659342486781,5511.023761156054,5537.555281824503,5547.09947670692,5520.18797638273,5525.597098540914,5553.022688987576,5532.61554629988,5527.139368908331,5554.2073314437075,5544.841950516934,5623.609497977436,5630.560890503036,5584.762166114112,5586.170326014796,5568.534799639559,5604.141128556863,5617.529823485592,5654.007870436653,5670.749327033678,5659.484047828204,5697.124385490941,5740.687935434335,5729.266194017672,5752.847284418021,5795.092081438552,5806.111491455018,5826.116302742517,5866.058870084152,5849.071544298118,5829.804340577643,5825.669267853412,5831.368962689515,5826.719799842811,5810.470081623803,5767.308863080605,5785.927866211876,5745.694726192323,5685.121498718441,5661.495704829181,5632.661954481835,5599.983704088176,5530.268613132073,5531.09562767692,5497.165679593763,5515.829386213945,5509.213269855174,5464.5768361779255,5463.235731510607,5427.539995615482,5430.289260183485,5405.0541406934435,5419.940402500678,5363.30108205093,5358.361346526307,5393.118309154309,5403.243649392563,5404.83062324889,5429.305783427451,5385.54106778396,5387.709186996125,5400.49438482456,5406.954038972144,5382.858858449324,5356.8637796478015,5353.890997635245,5407.803405261446,5398.728597012591,5391.9113149537225,5401.142585413764,5399.645018535259,5400.427329591194,5385.809288717424,5394.995855688555,5399.086224923876,5389.474974808094,5387.239800362564,5397.968637701111,5378.634378747271,5380.199000859142,5413.726617542103,5401.254344136041,5381.897733437745,5386.815117217912,5420.923879256711,5380.534277025971,5370.543047254449,5407.848108750357,5413.570155330915,5381.361291570818,5432.725600329113,5403.131890670287,5360.596520971838,5366.7879541859575,5405.59058256037,5388.424442818695,5379.237875847563,5367.860837919812,5384.557591027927,5386.166916628709,5370.096012365343,5401.142585413764,5388.0891666518655,5403.891849981767,5384.177611372186,5378.142640369254,5369.514867009505,5375.616893245804,5373.202904844631,5403.221297648108,5403.064835436921,5366.072698363388,5373.560532755916,5396.851050478345,5396.381663844784,5368.151410597731,5381.718919482103,5399.868535979812,5384.848163705846,5334.824959614869,5357.243759303541,5393.54299229896,5365.759773941013,5372.822925188891,5411.714960541125,5366.855009419323,5379.9307799256785,5411.513794841027,5388.178573629686,5357.400221514728,5386.502192795539,5389.586733530371,5402.148413914253,5330.667535146182,5372.8899804222565,5392.78303298748,5390.63726551977,5366.340919296851,5370.990082143555,5415.000666976055,5444.773190590524,5402.7072075256365,5353.712183679603,5411.536146585482,5404.383588359784,5381.383643315273,5429.708114827647,5413.614858819826,5359.635395960259,5388.424442818695,5401.433158091683,5386.59159977336,5373.426422289183,5327.605346155804,5332.0086398135,5351.253491789519,5364.105744851321,5384.132907883276,5340.323488750874,5352.9298726236675,5350.471180733583,5358.473105248583,5347.878378376768,5294.256543428486,5283.572409578849,5348.638337688249,5354.807419157913,5372.06296587741,5333.10387529181,5324.610212398793,5327.29242173343,5350.046497588933,5482.0111968530655,5604.901087868344,5760.737450210745,5896.948980921386,5941.272490176259,5821.981230018286,5600.788366888567,5413.994838475566,5199.038112048878,5052.701241099982,5134.195701384032,5191.393815445163,5300.827956298346,5329.728761879059,5339.630584672759,5367.525561752983,5403.221297648108,5373.784050200468,5408.585716317381,5401.656675536236,5371.548875754938,5401.343751113863,5419.9627542451335,5371.392413543751,5406.350541871851,5392.403053331739,5389.720843997103,5422.041466479477,5420.342733900873,5406.730521527591,5423.203757191152,5448.707097614658,5449.9364435597,5413.2125274196305,5441.21926322213,5459.212417508652,5484.961627121166,5474.858638627367,5468.801315879979,5457.089001785398,5499.847888928401,5507.738054721124,5487.241505055607,5496.495127260105,5516.924621692255,5541.399781870817,5552.374488398372,5547.345345895928,5598.955523843232,5622.715428199223,5617.462768252226,5648.397582578371,5595.0663203080085,5557.895369278833,5665.943701975787,5721.018400313664,5729.333249251038,5775.579008529068,5753.003746629209,5809.084273467573,5825.892785297965,5818.427302649892,5830.25137546675,5840.376715705003,5864.382489250003,5850.546759432168,5843.148332017462,5808.793700789654,5755.730659452755,5733.155397552896,5716.592754911513,5700.767719837156,5666.3236816315275,5605.5716402020025,5591.043006306053,5555.43667738875,5485.475717243638,5479.440746240705,5475.126859560831,5427.137664215286,5428.165844460231,5410.575021573904,5417.906393755245,5408.78688201748,5356.461448247605,5400.963771458122,5413.883079753289,5365.379794285273,5374.454602534128,5367.570265241893,5410.530318084993,5386.233971862075,5404.227126148597,5379.461393292117,5379.506096781028,5391.777204486991,5375.214561845608,5402.617800547815,5413.458396608638,5379.461393292117,5381.383643315273,5371.414765288207,5411.670257052214,5367.413803030706,5395.577001044393,5404.540050570971,5415.827681520901,5430.937460772689,5388.647960263248,5413.54780358646,5447.544806902982,5419.31455365593,5405.612934304826,5371.1241926102875,5395.420538833206,5414.7995012759575,5417.369951888318,5419.828643778401,5436.9277282867115,5452.909225572255,5424.053123480454,5444.9743562906215,5459.592397164392,5383.954093927633,5390.883134708779,5435.497216641572,5458.877141341823,5469.784792636013,5440.414600421739,5435.02783000801,5442.582719633904,5436.726562586613,5427.204719448652,5394.548820799449,5407.557536072438,5440.504007399561,5424.589565347382,5406.864631994323,5464.018042566543,5465.917940845245,5430.758646817047,5431.496254384071,5443.2085684786525,5438.604109120859,5432.144454973275,5418.353428644351,5438.872330054322,5476.244446783597,5486.526249233038,5465.314443744951,5444.527321401515,5460.598225664881,5480.670092185747,5445.309632457452,5451.992804049588,5432.770303818024,5486.436842255216,5478.524324718038,5453.780943606012,5499.825537183945,5487.912057389267,5483.79933640949,5484.201667809685,5511.157871622786,5537.33176437995,5526.2676508745735,5476.043281083498,5444.661431868248,5416.475882110105,5421.192100190175,5410.686780296181,5434.9384230301885,5443.677955112214,5462.855751854868,5471.7964496369905,5461.402888465273,5431.675068339714,5449.489408670594,5449.735277859602,5415.470053609616,5460.50881868706,5449.757629604057,5443.320327200929,5461.358184976361,5473.9422171047,5471.505876959071,5440.056972510454,5488.828478911934,5553.693241321235,5717.598583412002,5873.792573665688,5984.858391864109,6048.471456583912,6008.23831656436,5759.32929031006,5512.074293145453,5367.592616986349,5212.404455233152,5214.282001767398,5235.136179344199,5343.877416119268,5400.673198780203,5447.835379580901,5536.683563790746,5580.604741645425,5603.492927967659,5553.961462254699,5538.784627769545,5537.398819613317,5559.012956501599,5585.276256236584,5615.473462995704,5604.565811701514,5589.500735938637,5637.691096984279,5618.826224664,5600.676608166291,5622.044875865564,5612.880660638888,5635.54532951657,5616.948678129755,5621.977820632198,5673.7891642796,5672.6045218234685,5631.767884703623,5658.992309450186,5662.948568218776,5715.989257811219,5712.927068820843,5679.310045160061,5702.1311762489295,5709.440196685815,5752.243787317728,5785.614941789501,5742.207854057295,5765.833647946554,5798.62365706249,5767.621787502979,5801.305866397127,5858.34751824707,5871.5350474757015,5874.060794599151,5935.326926151148,5925.201585912894,5959.712679351888,5990.133403555561,5983.226714518871,5982.578513929667,6045.319860615714,6028.28783134077,6030.344191830658,6037.988488434374,6083.675454101021,6084.6142273681435,6031.864110453619,6034.725133743898,6035.440389566468,5968.631025389555,5945.988708256329,5958.706850851399,5921.804120755687,5879.06758535714,5786.956046456819,5732.686010919334,5734.764723153678,5715.855147344488,5660.087544928497,5648.755210489656,5643.860178453944,5647.3023471000615,5655.1701611483295,5616.702808940746,5652.107972157953,5657.02535593812,5620.927288642799,5609.170271059307,5575.8661718209,5595.625113919391,5620.279088053595,5583.957503313721,5615.406407762338,5642.87670169791,5601.525974455592,5560.1975989577295,5563.237436203652,5618.06626535252,5644.396620320871,5638.3840010623935,5620.167329331319,5640.2615475966395,5579.53185791157,5574.659177620313,5616.523994985103,5657.271225127128,5653.314966358539,5647.369402333427,5667.530675832114,5654.87958847041,5629.800931191556,5618.267431052617,5620.68141945379,5629.912689913833,5651.012736679642,5661.562760062548,5663.060326941053,5663.440306596793,5634.695963227268,5669.519981088636,5682.215771939251,5701.058292515075,5693.056368000075,5671.397527622882,5635.679439983302,5659.260530383651,5646.564739533036,5642.094390641974,5646.3635738329385,5679.690024815801,5721.867766602965,5716.659810144879,5666.88247524291,5640.082733640997,5660.825152495522,5654.074925670019,5701.41592042636,5739.100961578008,5687.3343214195165,5681.679330072324,5675.689062558301,5675.554952091569,5703.896964060898,5720.884289846932,5688.563667364558,5644.240158109684,5656.555969304558,5682.238123683706,5660.668690284335,5703.5393361496135,5728.1933102838175,5719.27496424615,5689.3906819094045,5663.619120552436,5699.516022147658,5685.814402796555,5689.055405742575,5712.301219976094,5741.872577890465,5722.694781147812,5729.690877162323,5762.011499644697,5758.61403448749,5729.109731806485,5723.968830581764,5740.933804623342,5749.785095427644,5746.365278525982,5731.076685318552,5684.2274289402285,5677.857181770466,5653.2926146140835,5666.16721942034,5666.994233965187,5666.256626398162,5692.497574388693,5694.330417434027,5699.761891336667,5692.788147066611,5680.539391105103,5697.929048291332,5708.680237374335,5687.893115030899,5668.156524676862,5710.2895629751165,5713.84349034351,5694.2633622006615,5683.914504517854,5703.114653004963,5765.207799101806,5831.145445244962,5884.655521470967,5984.992502330841,6084.547172134778,6123.238041786914,6074.332424918703,5886.577771494123,5738.542167966624,5644.508379043148,5455.166751762242,5437.017135264532,5576.469668921193,5646.296518599573,5671.688100300801,5762.4138310448925,5787.33602611256,5744.174807569362,5780.250523120228,5792.968665715297,5747.773438426667,5730.2496707737055,5742.207854057295,5725.131121293441,5736.552862710102,5781.301055109627,5787.917171468398,5755.440086774836,5761.966796155786,5792.812203504111,5797.506069839725,5808.279610667183,5790.979360458775,5755.931825152854,5795.047377949641,5848.333936731093,5846.076410541107,5851.06084955464,5824.641087608467,5821.91417478492,5825.848081809054,5851.105553043551,5893.909143675464,5820.707180584333,5842.388372705981,5911.991704939807,5910.874117717042,5901.732254234821,5890.444623284891,5909.175385138439,5949.028545502251,5946.212225700882,5935.483388362335,5973.682519636455,6042.771761747809,6048.6279187950995,6047.6891455279765,6056.629843310099,6056.629843310099,6130.144730823605,6100.595724653688,6119.348838251691,6119.795873140797,6130.323544779247,6129.496530234401,6124.042704587306,6118.812396384764,6122.567489453255,6141.097085606705,6107.301247990281,6056.33927063218,6038.524930301301,6012.3510375441365,5975.940045826441,5969.927426567963,5918.004324198285,5884.946094148886,5870.216294552839,5790.2417528917495,5775.377842828971,5809.57601184559,5816.5944596045565,5782.642159776946,5755.6636042193895,5725.980487582742,5737.84926388851,5756.825894931066,5753.3166710515825,5729.176787039851,5732.4177899858705,5736.150531309907,5738.720981922267,5716.548051422603,5735.748199909711,5726.114598049474,5754.501313507714,5776.80835447411,5713.12823452094,5708.613182140968,5757.719964709278,5795.986151216764,5736.1728830543625,5739.592699956024,5757.0717641200745,5792.47692733728,5771.689804993845,5733.84830163101,5723.231223014739,5774.349662584026,5758.390517042937,5760.893912421931,5750.634461716946,5772.740336983245,5783.4244708328815,5792.566334315102,5763.397307800926,5780.027005675674,5793.236886648761,5775.422546317881,5773.47794455027,5762.190313600339,5790.085290680563,5722.2030427697955,5760.111601365996,5839.035611037685,5842.455427939347,5789.079462180074,5781.457517320814,5780.854020220521,5804.166889687406,5807.564354844613,5767.33121482506,5799.271857651694,5834.989945291275,5819.991924761764,5796.991979717252,5818.807282305633,5850.189131520883,5828.463235910325,5794.868563993999,5810.067750223608,5819.969573017308,5780.451688820325,5766.370089813482,5808.950163000842,5811.207689190828,5825.892785297965,5827.345648687559,5826.6303928649895,5779.244694619739,5827.05507600964,5826.004544020241,5844.377677962503,5846.076410541107,5861.856742126553,5823.814073063621,5819.790759061666,5835.2581662247385,5833.805302835143,5852.87134085552,5856.380564735004,5821.489491640269,5851.194960021372,5901.844012957098,5885.460184271358,5855.486494956791,5846.948128574864,5812.280572924683,5879.089937101596,5885.460184271358,5897.26190534376,5881.548628991679,5921.222975399849,5935.393981384514,5897.97716116633,5909.778882238732,5962.663109619989,5906.962562437363,5916.462053830869,5933.628193572545,5886.957751149864,5853.318375744627,5880.833373169109,5895.898448931986,5926.542690580212,5895.585524509612,5845.048230296163,5839.147369759961,5867.757602662755,5899.139451878006,5918.3172486206595,5924.754551023788,5924.687495790422,5915.724446263844,5899.117100133551,5913.578678796134,5939.0373157307295,5941.227786687349,5935.259870917782,5915.523280563746,5928.152016180995,5933.98582148383,6042.280023369793,6190.136812941649,6313.741959779497,6401.785481188951,6469.287749443978,6412.0896353828475,6154.105800879694,5997.554182714723,5910.494138061302,5720.2137375132725,5763.598473501024,5852.2231402663165,5916.953792208886,5974.151906270016,6018.765988202809,6003.924429884485,6031.797055220253,6054.595834564667,6030.2547848528375,6038.949613445951,6041.475360569401,6032.847587209652,6026.969078417907,6035.3062790997365,6087.229381469415,6083.295474445281,6067.805715537753,6064.229436424904,6105.088425289206,6078.7357185763985,6102.316808976747,6130.256489545881,6094.672512373032,6113.850309115685,6100.5733729092335,6110.3187334917475,6132.514015735867,6149.769562455364,6132.6257744581435,6117.806567884275,6149.45663803299,6159.023184659861,6189.287446652347,6188.728653040964,6214.902545798129,6204.0619497373045,6229.140607016159,6246.932595602584,6261.7070986875415,6262.824685910307,6267.965587135028,6350.756448597485,6364.569826670865,6349.683564863631,6362.379355714244,6387.12273682627,6416.224708107079,6453.775638791995,6474.272188457512,6463.543351118965,6482.564685650431,6497.294485246478,6518.349828523377,6491.907714832749,6487.012682797037,6517.81338665645,6516.896965133783,6505.676389417218,6478.988406537582,6445.930176488183,6430.306307113923,6427.1770628901795,6383.278236779957,6349.862378819273,6342.8215793158515,6286.629293755209,6217.294182454847,6241.501121699944,6246.150284546648,6234.0579907963265,6209.85105155123,6162.510056794889,6148.808437443786,6159.8054957157965,6153.479952034945,6166.533370796844,6167.69566150852,6171.2495888769145,6131.284669790825,6140.3147745507695,6154.619891002166,6172.613045288688,6193.578981587766,6175.250551134414,6176.457545335001,6172.344824355224,6126.032009843828,6153.278786334848,6194.584810088255,6174.758812756398,6174.892923223129,6200.910353769106,6235.4661506970115,6216.668333610098,6211.4603771520115,6199.278676423869,6165.013452173884,6219.104673755726,6244.496255456956,6212.8685370526955,6233.18627276257,6227.75479885993,6233.365086718212,6207.749987572431,6236.159054775126,6278.560314006843,6243.021040322905,6248.9666043480165,6260.030717853394,6265.126915589204,6253.034621838882,6252.587586949777,6254.196912550558,6253.794581150363,6266.222151067514,6246.932595602584,6215.237821964958,6281.264875085935,6278.605017495754,6219.015266777906,6233.767418118408,6282.650683242165,6287.992750166983,6292.86543045824,6300.599134039776,6343.559186882876,6368.101402294803,6318.614640070754,6289.915000190139,6270.021947624916,6286.428128055111,6303.348398607779,6314.099587690782,6311.082102189315,6306.499994575977,6291.8148984688405,6319.39695112669,6315.686561547108,6316.446520858589,6337.747733324496,6350.152951497192,6318.413474370655,6308.422244599134,6317.8770325037285,6320.827462771829,6281.197819852569,6324.8060732848735,6337.457160646577,6335.803131556885,6378.360852999789,6340.429942659133,6356.903178322695,6393.448280507122,6356.366736455767,6308.578706810321,6356.277329477946,6372.9964343305155,6377.645597177219,6344.654422361186,6372.616454674775,6414.660085995208,6444.924347987694,6441.526882830487,6418.906917441716,6457.620138838308,6436.207167650124,6413.229574350068,6428.8757954687835,6416.157652873713,6370.425983718155,6368.906065095194,6333.232680944524,6358.512503923476,6353.326899209846,6376.282140765446,6363.005204558994,6367.54260868342,6380.171344300669,6299.012160183449,6337.814788557862,6403.283048067457,6371.610626174286,6362.424059203156,6383.345292013323,6401.092577110837,6338.194768213602,6391.8389549063395,6382.473573979566,6359.943015568616,6424.092522155348,6433.122626915291,6470.003005266548,6611.109568012902,6746.829360345526,6824.613431049995,6923.072865375622,6814.063407667089,6668.441792540764,6470.315929688923,6301.046168928882,6140.203015828492,6188.929818741062,6266.490372000978,6330.639878587709,6377.466783221577,6401.964295144594,6422.214975621102,6386.0275013479595,6453.306252158434,6456.010813237526,6484.263418229034,6459.520037117009,6456.949586504649,6459.520037117009,6475.881514058294,6492.734729377596,6461.241121440068,6473.623987868308,6471.634682611786,6484.464583929132,6476.708528603141,6485.492764174076,6514.214755799146,6523.803654170472,6523.311915792456,6490.186630509691,6490.588961909886,6531.090322862902,6530.352715295878,6476.574418136409,6517.9251453787265,6555.453724319187,6578.498372852609,6572.284587894033,6577.313730396478,6565.802582001995,6558.135933653824,6575.883218751338,6606.63921912184,6618.351533216422,6620.877280339871,6629.415646721798,6665.9607489062255,6699.08603418899,6712.0947494619795,6719.42612164332,6755.725354638738,6747.298746979088,6764.263721020666,6760.262758763166,6801.367616816476,6857.4928471437515,6893.74737665026,6858.297509944143,6851.122599973989,6841.958384747313,6880.939827077369,6865.02538502519,6852.284890685665,6835.006992221713,6814.376332089464,6780.781660173137,6758.541674440107,6714.687551818794,6633.506015957119,6616.295172726533,6593.809317804494,6562.293358122512,6586.276779923056,6557.331270853433,6545.8648259478605,6493.070005544425,6519.757988424062,6478.47431641511,6445.483141599077,6440.722220030096,6492.399453210766,6478.51901990402,6467.052574998448,6457.351917904844,6449.7746765344955,6425.523033800488,6448.679441056185,6499.484956203099,6476.708528603141,6450.355821890334,6441.638641552764,6445.594900321353,6437.816493250906,6445.438438110165,6477.75906059254,6447.651260811242,6398.924457898672,6478.0049297815485,6506.726921406618,6489.001988053559,6470.6735576002075,6461.6881563291745,6440.096371185347,6458.938891761171,6474.47335415761,6473.691043101674,6466.51613313152,6480.933008305194,6463.051612740947,6468.3266244324,6477.312025703433,6463.297481929956,6440.789275263462,6459.452981883644,6462.8057435519395,6479.390737937777,6487.99615955307,6468.9077697882385,6459.497685372554,6485.42570894071,6501.407206226255,6513.700665676673,6468.103106987847,6467.23138895409,6461.397583651255,6476.060328013937,6499.61906666983,6506.391645239788,6468.1478104767575,6443.292670642456,6472.528752389998,6482.207057739146,6487.057386285947,6504.268229516534,6485.626874640808,6488.800822353462,6486.453889185655,6482.967017050626,6504.424691727721,6518.707456434662,6496.579229423908,6485.336301962889,6482.14000250578,6488.465546186632,6486.565647907931,6506.279886517512,6474.607464624341,6487.683235130696,6501.2507440150675,6487.862049086339,6487.884400830794,6507.598639440374,6527.2905263055,6506.391645239788,6500.043749814481,6489.247857242568,6447.763019533518,6538.846378188894,6527.1340640943135,6529.011610628559,6523.177805325724,6518.081607589914,6531.090322862902,6525.010648371059,6519.24389830159,6518.327476778923,6517.768683167539,6542.690878235207,6582.499335110108,6544.836645702916,6561.555750555486,6608.40500693381,6586.723814812161,6592.311750925988,6602.571201630974,6572.999843716603,6556.951291197693,6588.869582279871,6572.753974527594,6530.263308318056,6582.275817665555,6549.932843438726,6516.3381715223995,6534.219567086646,6534.331325808922,6530.419770529244,6493.561743922442,6559.767610999062,6565.735526768628,6541.193311356701,6527.938726894704,6545.2166253586565,6565.355547112888,6549.82108471645,6558.024174931547,6578.431317619243,6579.951236242204,6551.0280789170365,6509.900869119271,6547.854131204383,6632.902518856826,6748.461037690764,6834.269384654687,7035.077456841166,7092.677902302493,7012.323380985664,6836.97394573378,6656.483609257175,6523.691895448196,6303.9071922191615,6263.942273133072,6382.5629809573875,6492.958246822149,6557.465381320165,6565.981395957637,6588.534306113042,6661.065716870513,6657.8023621800385,6650.180417320778,6629.460350210709,6616.809262849005,6612.473024424676,6610.8413470794385,6600.1572132298015,6600.671303352274,6644.905405629326,6657.020051124103,6644.100742828935,6686.278484616099,6692.693435274772,6662.362118048921,6657.489437757664,6620.7655216175945,6673.314472832021,6710.820700028026,6735.005287528669,6715.42515938582,6735.2288049732215,6727.271583947133,6734.871177061937,6736.838130574004,6719.470825132231,6748.729258624227,6760.598034929995,6773.383232758431,6741.733162609717,6784.000311374702,6824.3899136054415,6794.282113824143,6840.483169613263,6845.73582956026,6852.754277319226,6869.227512982788,6897.4130627409295,6892.227458027299,6907.180775067899,6967.105801952577,6996.945380800412,6992.162107486976,7003.561497159183,7083.625445798093,7065.341718833652,7042.833512167158,7034.853939396613,7046.566253491194,7060.245521097841,7058.524436774784,7044.599299979127,7028.148416060021,6988.295255696208,6999.716997112871,6977.119383468555,6912.791062926181,6855.861169798514,6832.235375909255,6797.34430281452,6787.777756187649,6806.977904674757,6722.443607144786,6720.051970488068,6717.660333831351,6728.076246747523,6724.790540312593,6681.003472924647,6660.372812792399,6674.923798432804,6676.376661822398,6665.0219756391025,6642.603175950429,6680.623493268907,6671.973368164703,6658.897597658348,6647.319394030499,6646.470027741198,6643.78781840656,6660.283405814577,6651.36505977691,6644.637184695863,6624.140635030346,6643.296080028544,6683.350406092454,6701.790595268082,6698.348426621965,6661.55745524853,6685.384414837888,6697.029673699102,6682.031653169591,6683.775089237105,6661.7362692041725,6659.299929058544,6678.567132779019,6686.032615427091,6679.841182212971,6714.9781244967135,6668.419440796309,6619.513823928097,6682.970426436714,6707.333827892999,6705.031598214102,6637.506978214619,6660.439868025765,6715.849842530471,6683.37275783691,6718.2638309316435,6691.240571885178,6680.198810124256,6667.8382954404715,6687.1502026498565,6701.075339445512,6757.424087217341,6730.445531659786,6705.277467403111,6700.807118512049,6683.596275281463,6675.124964132901,6698.035502199591,6681.696377002761,6687.574885794507,6745.801180100582,6747.186988256811,6703.131699935401,6684.713862504228,6713.2346884292,6737.575738141029,6693.363987608432,6694.481574831197,6700.583601067496,6711.714769806239,6728.389171169898,6711.938287250792,6689.2065631397445,6693.632208541895,6667.212446595722,6703.690493546784,6727.1821769693115,6692.626380041406,6701.432967356797,6688.714824761728,6667.972405907203,6684.959731693236,6711.781825039605,6699.398958611365,6736.100523006979,6727.04806650258,6764.57664544304,6727.875081047426,6699.778938267105,6671.883961186882,6688.960693950737,6713.771130296127,6733.373610183431,6732.032505516113,6668.151219862845,6700.449490600764,6776.668939193361,6771.125706568445,6790.012930633179,6778.591189216518,6752.57375867054,6740.079133520024,6760.128648296434,6752.394944714898,6737.173406740833,6684.0433101705685,6675.147315877356,6734.222976472733,6699.689531289284,6674.052080399047,6693.766319008627,6666.094859372957,6687.396071838864,6695.509755076141,6685.451470071253,6657.467086013208,6667.815943696016,6668.262978585122,6678.3436153344655,6681.204638624745,6710.016037227636,6737.62044162994,6713.078226218013,6667.972405907203,6702.2823336461,6807.11201514149,6941.46835106234,7068.336852590663,7174.41823177555,7208.057607180787,7112.615658356626,6927.65497298896,6759.636909918418,6611.444844179731,6412.916649927694,6414.235402850557,6509.163261552247,6585.8968002673155,6654.091972600458,6709.524298849618,6745.667069633851,6786.39194803142,6757.915825595359,6707.646752315373,6722.0189240001355,6762.9896715867135,6774.456116492286,6775.327834526042,6769.963415856769,6783.508572996685,6793.566858001574,6784.2014770748,6782.3015787960985,6761.559159941574,6751.031488303124,6790.81759343357,6814.666904767383,6823.585250805051,6842.4054196364195,6856.129390731978,6825.440445594842,6848.663908083905,6823.384085104953,6819.897212969925,6859.057469255623,6864.287777458165,6873.295530473653,6871.1721147503995,6901.101100576056,6879.799888110148,6891.333388249086,6956.064040191655,6926.55973751065,6943.032973174211,6993.033825520733,6979.689834080915,6956.33226112512,7012.949229830412,6976.314720668164,7029.176596304965,7123.299792206263,7098.757576794336,7112.436844400984,7131.748751610369,7150.948900097478,7177.212199832464,7206.38122634664,7178.910932411067,7173.121830597142,7146.903234351067,7185.258827836375,7194.780670974335,7171.333691040718,7162.683565936514,7088.364015622618,7111.475719389406,7068.895646202046,7021.688761912437,6964.2671304067535,6967.485781608318,6940.976612684323,6918.088426362089,6910.5558884806505,6839.723210301782,6804.318047084576,6822.914698471392,6824.501672327719,6799.3783115599535,6817.997314691224,6852.284890685665,6778.971168872258,6789.185916088333,6796.24906733621,6766.141267554912,6774.791392659115,6744.616537644451,6776.400718259897,6751.679688892328,6775.640758948417,6796.62904699195,6814.286925111643,6799.53477377114,6789.2306195772435,6808.609582019995,6796.561991758585,6726.109293235457,6743.968337055247,6805.905020940902,6788.24714282121,6782.100413096001,6784.112070096979,6781.094584595512,6768.130572811434,6733.597127627984,6793.499802768208,6793.544506257118,6792.3375120565315,6774.232599047733,6762.453229719786,6761.201532030289,6784.089718352523,6769.739898412216,6790.527020755651,6802.507555783696,6748.863369090959,6741.308479465066,6737.575738141029,6768.1976280448,6807.626105263961,6790.549372500107,6735.407618928864,6712.430025628809,6746.181159756322,6798.216020848277,6796.807860947592,6769.471677478752,6738.089828263501,6731.741932838194,6746.04704928959,6751.031488303124,6695.08507193149,6748.215168501755,6786.3472445425095,6743.722467866239,6723.76236006765,6740.481464920219,6721.482482133208,6703.310513891043,6748.349278968487,6714.486386118697,6710.418368627831,6706.32799939251,6741.509645165163,6744.169502755345,6744.705944622272,6706.573868581519,6710.463072116741,6737.732200352216,6743.633060888417,6706.260944159144,6679.572961279508,6723.449435645275,6724.723485079227,6695.934438220792,6715.872194274926,6729.394999670387,6686.367891593921,6739.900319564381,6777.719471182761,6710.127795949912,6717.772092553627,6733.015982272146,6755.05480230508,6779.708776439283,6785.788450931126,6760.083944807523,6770.991596101713,6780.692253195317,6768.532904211629,6759.1451715404,6742.582528899018,6722.421255400331,6711.111272705945,6689.072452673013,6674.208542610234,6678.142449634368,6703.265810402133,6702.818775513027,6698.32607487751,6692.46991783022,6623.447730952231,6643.519597473097,6705.769205781127,6693.2522288861555,6704.472804602719,6688.893638717371,6720.051970488068,6715.179290196811,6719.649639087873,6668.821772196505,6686.099670660457,6693.207525397244,6713.99464774068,6875.754222363737,7015.385569976041,7140.108304036654,7229.7611510468905,7200.547421043804,6963.976557728834,6669.626434996896,6616.697504126729,6423.801949477429,6384.351120513812,6491.795956110473,6590.747128814117,6639.831559637972,6694.347464364465,6742.359011454465,6707.579697082007,6731.004325271168,6760.508627952174,6785.743747442216,6762.676747164339,6725.438740901797,6711.625362828418,6744.348316710987,6722.220089700233,6750.517398180652,6763.10143030899,6760.016889574157,6736.547557896085,6753.311366237565,6775.797221159604,6737.911014307859,6738.603918385973,6785.341416042021,6758.34050874001,6746.896415578892,6745.041220789101,6799.53477377114,6822.06533218209,6824.769893261182,6819.181957147355,6814.242221622732,6807.357884330498,6816.142119901433,6836.25868991121,6828.927317729869,6869.272216471698,6885.879562601992,6871.082707772578,6864.108963502523,6896.764862151726,6900.117623820022,6934.025220158723,6902.621019199017,6900.966990109324,6944.843464475091,7007.137776272032,7010.691703640427,7040.44187551044,7090.733300534881,7035.792712663736,7013.999761819811,7067.465134556906,7084.988902209867,7094.197820925453,7061.7654397208025,7055.864579184602,7079.713890518415,7047.7955994362355,7022.158148545998,7002.555668658694,6957.271034392243,6942.474179562829,6904.744434922271,6841.421942880385,6784.939084641825,6773.271474036154,6780.468735750764,6711.066569217035,6674.588522265974,6673.426231554298,6755.680651149828,6679.997644424158,6678.2318566121885,6661.9150831598145,6675.594350766462,6683.193943881267,6648.414629508809,6617.7703878605835,6629.8626816109045,6620.162024517301,6618.642105894341,6645.151274818334,6653.264958055611,6620.743169873139,6613.635315136352,6590.657721836295,6570.1611721707795,6645.106571329424,6659.903426158837,6652.572053977497,6617.077483782468,6630.019143822092,6637.708143914717,6607.019198777581,6643.74311491765,6631.427303722776,6620.854928595416,6645.531254474075,6649.643975453851,6639.675097426784,6626.554623431519,6594.658684093796,6606.840384821938,6634.355382246421,6653.734344689173,6642.044382339047,6622.97834431867,6617.88214658286,6628.253356010122,6625.727608886673,6588.020215990569,6588.042567735025,6593.652855593307,6613.12122501388,6627.649858909829,6558.426506331743,6585.516820611575,6625.347629230932,6631.337896744954,6580.152401942301,6595.306884682999,6629.907385099815,6604.828727820961,6579.593608330919,6574.050375706002,6610.148443001323,6619.670286139284,6616.026951793069,6620.921983828782,6596.1115474833905,6576.129087940346,6529.950383895682,6631.226138022678,6636.992888092147,6592.691730581729,6590.9482945142145,6600.06780625198,6554.872578963349,6561.354584855389,6585.405061889299,6604.806376076505,6622.4642541961975,6620.340838472944,6591.261218936589,6586.92498051226,6610.237849979145,6604.627562120862,6571.815201260472,6577.626654818851,6601.9230010417705,6579.928884497748,6577.023157718559,6631.963745589704,6636.299984014033,6635.920004358292,6609.321428456477,6524.9659448821485,6641.709106172217,6643.8325218954715,6623.850062352427,6600.380730674355,6568.4624395921755,6541.886215434816,6566.853113991394,6542.15443636828,6569.132991925835,6579.481849608642,6568.641253547818,6536.141817109802,6541.260366590067,6542.19913985719,6524.809482670961,6519.020380857037,6531.984392641115,6559.8346662324275,6541.819160201449,6553.10679115138,6547.585910270919,6535.225395587135,6532.654944974774,6609.589649389941,6735.854653817971,6882.035062555678,7066.928692689979,7220.105197442198,7148.736077396403,6901.79400465417,6625.235870508656,6507.330418506911,6283.1871251090915,6207.660580594609,6288.283322844902,6368.414326717178,6448.1877026781685,6530.822101929439,6551.698631250695,6530.173901340235,6608.941448800737,6609.1426145008345,6612.271858724578,6583.035776977036,6588.221381690667,6602.124166741868,6609.2096697342,6601.453614408209,6580.912361253782,6603.733492342651,6643.340783517455,6628.387466476855,6629.2144810217005,6636.07646656948,6635.428265980276,6674.074432143501,6650.31452778751,6642.111437572413,6648.0570015975245,6595.083367238447,6611.601306390919,6648.302870786532,6685.585580537985,6702.125871434912,6673.403879809843,6686.2114293827335,6692.805193997049,6705.9927232256805,6720.610764099451,6721.013095499647,6704.94219123628,6715.045179730079,6754.987747071713,6754.674822649339,6762.833209375526,6838.158588189911,6815.87389896797,6828.63674505195,6868.668719371405,6877.318844475609,6877.587065409072,6930.359534068052,6934.1593306254545,6921.910574663946,6984.830735305636,6994.017302276767,6955.840522747103,6998.57705814565,7003.896773326012,6968.022223475245,6966.792877530203,6936.506263793262,6926.537385766195,6909.527708235706,6852.955443019324,6808.274305853165,6764.710755909772,6780.021700861657,6719.135548965401,6685.406766582342,6642.379658505876,6607.980323789159,6601.230096963656,6587.975512501659,6539.5839857559195,6503.262401016045,6571.010538460081,6561.980433700137,6549.1505323827905,6524.563613481952,6534.666601975751,6539.360468311366,6533.414904286255,6520.808520413461,6510.19144179719,6508.537412707497,6516.405226755765,6527.223471072134,6503.754139394062,6479.211923982135,6492.555915421953,6490.588961909886,6504.782319639006,6490.588961909886,6523.311915792456,6531.805578685472,6536.074761876436,6521.568479724941,6514.818252899439,6555.006689430081,6552.056259161981,6502.390682982288,6502.48008996011,6566.182561657734,6544.367259069355,6548.748200982595,6537.48292177712,6530.620936229341,6507.486880718098,6519.221546557134,6519.512119235053,6508.71622666314,6428.428760579677,6492.354749721855,6542.780285213028,6535.113636864858,6566.361375613377,6562.539227311519,6507.866860373839,6491.572438665919,6524.6753722042295,6533.325497308433,6529.749218195584,6512.5830784539085,6536.320631065444,6567.277797136045,6545.998936414592,6539.963965411659,6543.719058480151,6537.192349099201,6512.493671476087,6528.698686206185,6560.058183676981,6575.614997817874,6528.363410039355,6513.47714823212,6554.045564418503,6588.131974712846,6590.21068694719,6568.127163425346,6564.72969826814,6569.423564603754,6570.0494134485025,6578.498372852609,6530.620936229341,6550.804561472483,6597.765576573083,6541.997974157092,6511.309029019956,6520.115616335347,6485.246894985068,6433.457903082121,6468.371327921311,6497.339188735389,6497.585057924397,6484.576342651409,6467.052574998448,6480.038938526981,6508.269191774034,6506.548107450975,6482.989368795082,6446.578377077387,6512.538374964997,6521.121444835836,6521.0320378580145,6483.324644961911,6513.074816831925,6635.182396791268,6805.323875585065,6962.590749572605,7091.515611590817,7094.5778005811935,6917.619039728527,6636.702315414228,6473.9592640351375,6228.894737827151,6121.807530141775,6159.671385249065,6250.464171226522,6360.255939990991,6441.526882830487,6467.924293032204,6508.224488285124,6514.214755799146,6501.586020181897,6533.034924630514,6537.8852531773155,6521.747293680584,6562.852151733894,6557.711250509174,6514.237107543601,6505.76579639504,6518.841566901394,6548.479980049131,6543.652003246785,6568.238922147623,6580.107698453391,6581.225285676156,6570.20587565969,6524.563613481952,6567.724832025151,6582.812259532483,6591.64119859233,6587.64023633483,6614.1270535143685,6637.88695787036,6607.0862540109465,6631.561414189508,6630.1532542888235,6639.02689683758,6641.55264396103,6649.241644053655,6662.518580260108,6695.4874033316855,6703.08699644649,6733.9324037948145,6723.024752500624,6710.463072116741,6747.656374890373,6783.82149741906,6788.2024393323,6798.73011097075,6789.811764933082,6891.959237093835,6854.520065131196,6917.708446706349,6920.413007785441,6885.477231201796,6944.821112730636,6964.892979251502,6956.958109969868,6925.75507471026,6915.585030983095,6922.51407176424,6918.781330440203,6876.715347375316,6840.036134724157,6822.668829282383,6768.108221066978,6719.3143629210435,6657.914120902315,6620.340838472944,6623.067751296491,6598.145556228824,6500.736653892595,6512.270154031534,6558.560616798475,6517.187537811701,6495.819270112428,6509.09620631888,6517.858090145361,6482.072947272414,6477.513191403532,6508.403302240766,6474.093374501869,6487.169145008224,6483.5258106620095,6469.80183956645,6481.871781572317,6464.0350894969815,6467.499609887554,6467.700775587652,6467.8572377988385,6444.6114235653195,6440.409295607722,6445.527845087987,6469.354804677344,6475.725051847106,6408.826280692373,6413.140167372248,6438.1517694177355,6493.204116011157,6501.474261459621,6457.061345226925,6457.821304538406,6507.464528973643,6480.731842605096,6465.353842419844,6477.736708848084,6479.7707175935175,6468.058403498937,6492.913543333238,6493.181764266702,6497.540354435487,6483.771679851017,6477.535543147987,6488.130270019802,6476.99910128106,6455.407316137233,6445.170217176702,6451.987499235571,6443.627946809286,6416.694094740641,6464.66093834173,6481.357691449844,6488.174973508713,6478.966054793126,6450.512284101521,6444.074981698392,6489.694892131673,6502.569496937931,6485.895095574271,6506.078720817414,6519.95915412416,6499.283790503,6463.588054607875,6441.303365385934,6451.719278302107,6458.558912105431,6482.654092628252,6469.667729099719,6477.334377447889,6475.412127424733,6527.715209450151,6520.473244246632,6478.0049297815485,6481.961188550137,6507.263363273545,6528.631630972819,6493.80761311145,6493.897020089272,6502.725959149117,6470.718261089118,6422.997286677038,6436.587147305864,6492.421804955221,6426.46180706761,6399.773824187973,6421.633830265264,6451.6522230687415,6441.482179341577,6417.074074396382,6442.532711330976,6442.175083419691,6412.827242949873,6396.108138097303,6407.8651556807945,6441.75040027504,6450.109952701325,6427.311173356912,6383.389995502233,6489.9854648095925,6598.369073673377,6705.433929614298,6850.429695895875,6963.484819350818,7037.1114655865995,6877.788231109171,6598.2796666955555,6433.457903082121,6305.6729800311305,6179.609141303199,6232.828644851285,6293.223058369525,6345.749657839497,6347.8730735627505,6446.3101561439225,6483.123479261813,6496.579229423908,6494.813441611939,6469.913598288727,6501.80953762645,6517.165186067246,6492.913543333238,6484.576342651409,6482.989368795082,6459.877665028294,6483.592865895375,6533.48195951962,6540.321593322944,6536.074761876436,6579.303035653,6564.819105245961,6554.939634196715,6533.7725321975395,6579.861829264382,6573.692747794717,6540.925090423238,6536.790017699006,6593.004655004103,6612.942411058237,6584.332178155444,6617.591573904941,6588.087271223935,6613.12122501388,6618.373884960876,6642.98315560617,6615.490509926142,6661.7362692041725,6662.362118048921,6683.350406092454,6685.540877049074,6700.203621411756,6716.766264053138,6771.013947846169,6763.146133797901,6796.226715591755,6856.464666898807,6850.9214342738915,6841.153721946922,6848.686259828361,6876.827106097592,6875.754222363737,6853.178960463877,6875.240132241265,6898.262429030232,6897.010731340734,6891.311036504631,6894.484984217284,6904.722083177815,6813.370503588975,6786.2354858202325,6762.877912864436,6737.1063515074675,6713.659371573851,6717.794444298082,6628.78979787705,6632.097856056435,6621.033742551058,6544.233148602623,6529.123369350836,6547.362392826366,6573.223361161156,6496.512174190542,6474.003967524049,6511.264325531045,6473.892208801772,6449.1264759452915,6459.3412231613665,6489.270208987023,6476.820287325417,6470.628854111297,6487.23620024159,6469.5559703774425,6445.125513687792,6514.326514521422,6512.963058109648,6497.8532788578605,6516.539337222498,6474.428650668699,6453.574473091898,6470.137115733281,6487.57147640842,6477.490839659076,6478.9437030486715,6468.863066299327,6471.388813422777,6534.599546742385,6507.66569467374,6517.411055256254,6477.624950125808,6519.087436090403,6530.0174391290475,6481.804726338951,6503.821194627428,6548.703497493684,6525.949421638182,6483.414051939732,6523.423674514732,6536.655907232274,6509.923220863727,6511.778415653517,6524.138930337302,6531.7161717076515,6546.110695136869,6543.406134057776,6547.630613759829,6519.355657023866,6503.195345782679,6511.107863319858,6506.369293495333,6532.230261830123,6535.784189198517,6525.234165815612,6511.353732508866,6527.849319916883,6586.567352600975,6540.656869489774,6532.677296719229,6516.069950588936,6555.543131297009,6505.05054057247,6526.172939082735,6533.593718241897,6555.565483041463,6546.356564325877,6522.931936136715,6558.2476923761005,6593.1164137263795,6580.152401942301,6557.644195275807,6588.847230535416,6580.599436831408,6575.570294328963,6581.068823464969,6510.124386563824,6484.978674051604,6528.452817017176,6543.964927669159,6462.202246451646,6474.763926835529,6518.819215156939,6549.48580854962,6541.10390437888,6533.169035097246,6573.178657672246,6512.359561009355,6490.566610165431,6443.829112509384,6486.1633165077355,6523.781302426017,6496.579229423908,6477.7143571036295,6505.229354528112,6507.218659784635,6470.114763988825,6418.817510463895,6470.360633177833,6586.612056089885,6691.307627118544,6795.399701046908,6916.613211228038,6991.200982475399,7063.933558932968,6903.246868043765,6724.656429845862,6563.790925001017,6339.357058925279,6247.066706069316,6291.501974046466,6379.478440222555,6452.680403313685,6449.059420711926,6518.8639186458495,6578.408965874787,6547.116523637357,6548.614090515864,6575.525590840053,6558.314747609466,6541.305070078978,6542.042677646003,6535.605375242874,6614.194108747734,6609.83551857895,6578.185448430235,6579.303035653,6599.531364385052,6603.174698731268,6621.257259995611,6597.027969006058,6622.352495473921,6611.131919757357,6586.299131667511,6615.758730859606,6598.97257077367,6580.621788575863,6608.360303444899,6625.995829820136,6636.1435218028455,6691.777013752105,6677.874228700904,6645.2406817961555,6633.841292123949,6693.051063186057,6724.991706012691,6701.678836545806,6727.159825224856,6713.301743662566,6746.985822556713,6764.263721020666,6790.303503311098,6796.561991758585,6824.144044416434,6804.854488951503,6841.0643149691,6883.107946289533,6859.593911122551,6860.555036134128,6921.687057219393,6966.122325196544,6936.282746348709,6951.303118622675,6926.313868321642,6918.982496140301,6905.258525044743,6886.0807283020895,6931.253603846265,6861.963196034813,6829.173186918877,6772.802087402593,6718.733217565205,6732.658354360861,6732.814816572049,6692.4922695746745,6610.2602017236,6576.129087940346,6555.856055719382,6561.980433700137,6590.613018347385,6572.709271038684,6542.489712535109,6536.879424676827,6556.280738864034,6508.38095049631,6527.335229794411,6550.0893056499135,6496.400415468266,6473.1322494902915,6480.66478737173,6495.372235223322,6486.967979308126,6473.109897745836,6541.640346245807,6531.850282174383,6529.81627342895,6493.2711712445225,6475.814458824928,6503.351807993867,6517.120482578335,6521.233203558112,6488.018511297526,6508.582116196409,6558.404154587288,6545.350735825388,6556.794828986505,6511.1749185532235,6522.753122181073,6495.327531734411,6497.42859571321,6483.972845551115,6534.934822909216,6560.482866821631,6489.739595620585,6499.909639347749,6541.372125312344,6548.144703882302,6509.386778996799,6498.099148046869,6507.866860373839,6525.703552449174,6503.262401016045,6513.633610443308,6521.926107636226,6533.7725321975395,6529.302183306478,6498.859107358349,6497.182726524202,6528.072837361436,6500.177860281213,6496.758043379551,6529.570404239942,6493.539392177987,6507.553935951464,6495.9086770902495,6515.444101744188,6523.267212303545,6534.934822909216,6554.179674885235,6542.355602068377,6539.740447967106,6556.705422008685,6545.395439314299,6494.880496845305,6507.285715018001,6510.929049364216,6538.891081677804,6552.01155567307,6554.000860929592,6582.208762432189,6575.614997817874,6542.333250323922,6551.34100333941,6538.622860744341,6541.4615322901645,6520.652058202274,6505.8328516284055,6505.542278950486,6486.9903310525815,6480.955360049648,6513.141872065291,6500.647246914774,6512.7618924095505,6492.086528788392,6460.212941195124,6463.342185418866,6499.507307947553,6508.783281896506,6512.71718892064,6490.119575276324,6540.925090423238,6498.255610258057,6444.700830543141,6497.562706179942,6489.024339798015,6480.754194349551,6509.252668530067,6646.112399829913,6713.972295996225,6832.302431142621,6981.835601548624,7060.089058886655,6928.012600900245,6696.202659154255,6525.10005534888,6332.9644600110605,6210.454548651523,6238.818912365307,6367.855533105795,6486.543296163475,6511.689008675696,6540.321593322944,6540.478055534131,6570.831724504438,6571.591683815919,6547.407096315276,6518.57334596793,6538.555805510975,6573.849210005905,6577.0902129519245,6513.410092998754,6532.520834508042,6542.422657301743,6565.266140135067,6601.453614408209,6584.913323511282,6552.704459751184,6558.58296854293,6598.726701584662,6570.831724504438,6572.373994871855,6612.942411058237,6626.018181564592,6602.459442908698,6605.052245265513,6597.9890940176365,6630.488530455653,6596.200954461212,6604.672265609774,6655.857760412427,6669.93935941927,6703.08699644649,6699.577772567007,6628.812149621505,6688.111327661434,6721.638944344395,6693.475746330709,6758.76519188466,6767.236503033221,6797.880744681447,6826.736846773249,6796.58434350304,6795.958494658291,6824.009933949702,6876.156553763933,6865.986510036768,6859.1692279779,6906.085539589589,6885.857210857536,6931.633583502005,6961.406107116474,6924.190452598388,6874.4578211853295,6835.118750943989,6851.971966263291,6867.372318192997,6820.545413559129,6809.391893075931,6755.568892427551,6717.034484986602,6659.992833136658,6643.69841142874,6615.512861670597,6582.387576387832,6584.645102577818,6555.990166186115,6520.9202791357375,6493.315874733434,6512.963058109648,6496.042787556981,6506.615162684341,6528.497520506087,6498.300313746967,6495.014607312037,6456.547255104453,6490.231333998601,6477.312025703433,6495.931028834704,6463.699813330151,6485.3810054518,6515.198232555179,6480.508325160543,6451.56281609092,6464.303310430445,6462.314005173923,6430.887452469761,6456.27903417099,6470.785316322484,6501.004874826059,6505.251706272567,6493.2711712445225,6470.919426789216,6491.6841973881965,6439.850501996339,6424.137225644258,6457.4636766271215,6504.983485339104,6526.865843160849,6514.706494177162,6479.904828060249,6488.465546186632,6493.3829299668,6441.660993297219,6442.152731675235,6427.288821612457,6479.323682704411,6510.794938897484,6510.7055319196625,6464.124496474802,6423.690190755152,6475.702700102652,6463.386888907778,6434.419028093699,6468.728955832596,6484.66574962923,6462.13519121828,6455.273205670501,6450.80285677944,6465.979691264593,6439.582281062875,6422.751417488029,6481.581208894398,6475.479182658099,6508.962095852148,6480.351862949356,6494.52286893402,6452.814513780417,6467.790182565473,6453.596824836353,6454.9379295036715,6462.828095296395,6470.450040155654,6447.159522433224,6425.679496011674,6443.627946809286,6438.330583373378,6432.519129814998,6443.9632229761155,6501.42955797071,6537.214700843657,6495.863973601338,6481.111822260836,6465.242083697568,6491.080700287903,6525.949421638182,6508.470357474132,6490.410147954243,6431.803873992429,6424.293687855446,6412.290801082945,6409.563888259398,6442.979746220082,6430.552176302931,6448.99236547856,6435.201339149635,6421.8349959653615,6393.8953153962275,6406.769920202484,6451.294595157457,6409.116853370292,6377.913818110683,6363.586349914832,6375.477477965054,6441.1469031747465,6433.9272897156825,6406.702864969118,6397.963332887093,6438.241176395557,6546.267157348056,6680.601141524451,6798.528945270651,6914.087464104589,7012.949229830412,6975.845334034602,6761.983843086225,6545.797770714495,6375.321015753868,6116.465463216957,6109.82699511373,6203.927839270573,6290.294979845879,6366.268559249468,6372.0576610633925,6444.097333442847,6436.318926372401,6423.0643419104035,6453.730935303085,6491.907714832749,6515.198232555179,6504.491746961087,6461.531694117987,6465.532656375487,6493.360578222344,6497.875630602316,6503.552973693964,6517.344000022888,6504.37998823881,6498.590886424886,6526.262346060556,6503.374159738321,6495.1487177787685,6514.482976732609,6541.528587523531,6503.508270205053,6511.867822631339,6529.592755984397,6495.6181044123305,6475.121554746814,6580.845306020416,6611.087216268446,6534.487788020109,6562.315709866966,6605.8569080659045,6605.767501088083,6634.7353619021615,6671.056946642036,6631.673172911785,6643.407838750821,6656.1036296014345,6680.243513613166,6727.897432791881,6737.083999763013,6734.513549150652,6732.032505516113,6757.1782180283335,6769.404622245386,6786.682520709339,6793.432747534842,6801.278209838654,6796.24906733621,6847.032230738668,6844.238262681754,6858.006937266224,6868.691071115861,6849.423867395386,6826.692143284338,6787.017796876168,6767.8623518779705,6742.873101576937,6693.922781219814,6674.856743199438,6616.541041915541,6603.308809198,6552.100962650891,6486.230371741101,6478.071985014914,6493.472336944621,6468.818362810417,6393.470632251577,6376.528009954454,6408.9156876701945,6365.486248193532,6348.253053218491,6376.907989610195,6391.682492695152,6370.515390695977,6373.845800619817,6374.516352953477,6364.525123181954,6388.776765915963,6390.341388027834,6408.870984181283,6400.556135243909,6389.559076971898,6384.440527491633,6395.906972397205,6370.560094184887,6364.681585393141,6371.320053496368,6396.756338686507,6386.0275013479595,6378.137335555236,6379.612550689287,6360.501809179999,6375.8127541318845,6358.35604171229,6376.59506518782,6384.865210636283,6415.17417611768,6408.379245803267,6408.8039289479175,6406.7475684580295,6392.0177688619815,6389.939056627639,6435.916594972205,6407.2169550915905,6397.69511195363,6352.812809087373,6381.668911179175,6420.22567036458,6381.445393734622,6347.247224718002,6402.456033522611,6372.25882676349,6341.391067670712,6406.635809735752,6404.735911457052,6369.263693006479,6377.623245432765,6380.506620467499,6381.601855945809,6407.440472536144,6445.818417765906,6392.420100262178,6372.839972119328,6406.322885313379,6371.901198852205,6366.313262738378,6384.507582724998,6411.597897004831,6411.039103393448,6388.93322812715,6408.826280692373,6388.463841493588,6374.225780275558,6412.7378359720515,6419.398655819733,6417.141129629747,6446.3101561439225,6408.491004525543,6461.956377262638,6485.090432773881,6417.521109285487,6429.658106524719,6421.320905842889,6382.719443168574,6368.548437183909,6358.199579501103,6336.272518190446,6337.0101257574715,6364.435716204133,6386.720405426074,6351.270538719958,6370.560094184887,6386.072204836871,6427.8252634793835,6386.586294959342,6334.596137356298,6382.965312357583,6370.671852907164,6277.263912828435,6289.892648445684,6385.468707736577,6404.490042268043,6393.403577018211,6406.03231263546,6510.370255752833,6592.9375997707375,6634.2659752685995,6743.923633566336,6812.878765210959,6825.440445594842,6638.177530548279,6409.295667325934,6294.608866525754,6145.343917053213,6082.580218622711,6188.169859429581,6259.270758541913,6304.8459654862845,6323.733189551019,6385.289893780934,6354.444486432611,6412.827242949873,6469.80183956645,6448.947661989649,6394.588219474343,6396.130489841758,6434.530786815976,6420.337429086856,6431.8709292257945,6450.579339334887,6485.760985107539,6446.891301499761,6457.664842327219,6453.462714369621,6459.698851072651,6441.728048530585,6418.482234297066,6452.903920758238,6467.298444187456,6464.750345319551,6443.538539831465,6431.200376892135,6446.4219148662,6449.662917812218,6473.869857057316,6512.985409854104,6541.48388403462,6558.873541220849,6529.324535050933,6541.819160201449,6581.515858354075,6603.062940008991,6551.832741717428,6546.289509092511,6569.289454137022,6607.823861577972,6619.446768694731,6603.8005475760165,6647.922891130793,6686.054967171546,6676.443717055764,6672.800382709549,6688.446603828264,6738.290993963599,6745.041220789101,6733.485368905708,6685.764394493627,6758.698136651295,6760.57568318554,6740.459113175763,6759.279282007133,6739.09565676399,6699.957752222747,6646.760600419117,6647.0064696081245,6617.9492018162255,6559.007651687581,6528.363410039355,6456.502551615543,6474.8980373022605,6467.432554654188,6415.531804028965,6398.83505092085,6430.976859447582,6412.313152827401,6354.533893410432,6334.707896078575,6363.675756892652,6369.375451728756,6322.973230239539,6363.653405148198,6393.425928762666,6389.64848394972,6371.7670883854735,6344.542663638909,6332.986811755516,6371.7670883854735,6374.73987039803,6350.577634641842,6365.240379004524,6365.709765638086,6342.620413615753,6337.993602513505,6379.2772745224565,6340.8322740593285,6342.933338038128,6339.558224625376,6355.606777144287,6347.806018329385,6384.731100169552,6388.709710682597,6354.891521321717,6340.698163592597,6327.085951219315,6302.722549763031,6372.5270476969545,6432.921461215194,6406.255830080013,6398.164498587192,6331.377486154734,6338.485340891521,6397.672760209175,6376.103326809804,6338.820617058351,6364.368660970767,6355.87499807775,6372.16941978567,6374.203428531102,6364.1898470151245,6361.68645163613,6346.889596806717,6362.826390603351,6355.517370166465,6367.49790519451,6378.472611722066,6369.576617428854,6337.904195535683,6363.474591192555,6400.846707921828,6340.92168103715,6293.625389769721,6322.101512205782,6383.144126313225,6356.791419600418,6313.496090590488,6359.16070451268,6399.773824187973,6363.407535959189,6359.272463234957,6331.10926522127,6378.383204744245,6371.275350007457,6335.467855390055,6330.103436720781,6325.409570385167,6354.466838177066,6364.502771437499,6368.079050550348,6350.6893933641195,6329.544643109399,6334.573785611843,6348.677736363142,6339.804093814385,6374.449297720111,6388.441489749132,6400.399673032722,6455.027336481493,6426.148882645236,6408.870984181283,6368.97312032856,6326.907137263673,6351.985794542527,6335.356096667779,6320.671000560642,6343.872111305251,6356.344384711312,6359.719498124064,6332.807997799873,6303.169584652136,6331.198672199092,6349.795323585907,6331.288079176913,6316.804148769874,6291.9937124244825,6349.951785797094,6344.743829339008,6327.555337852877,6316.91590749215,6309.428073099622,6336.741904824007,6338.977079269538,6417.74462673004,6556.683070264229,6650.135713831868,6704.89748774737,6787.218962576266,6751.523226681141,6557.666547020262,6358.043117289915,6288.886819945195,6119.102969062683,6100.01457929785,6183.923027983074,6283.097718131271,6338.306526935879,6378.964350100083,6372.437640719133,6359.4959806795105,6342.73217233803,6357.551378911899,6373.197600030613,6377.913818110683,6376.080975065348,6377.26561752148,6388.150917071213,6400.9361148996495,6414.481272039566,6420.046856408937,6417.297591840934,6414.257754595013,6421.611478520808,6420.404484320222,6405.3617603018,6417.990495919049,6374.918684353672,6398.343312542834,6415.464748795599,6396.085786352848,6417.521109285487,6424.584260533365,6442.8456357533505,6421.678533754174,6413.184870861158,6434.0390484379595,6479.278979215501,6417.945792430138,6453.641528325264,6453.350955647345,6475.501534402554,6580.286512409033,6564.260311634578,6536.231224087624,6540.38864855631,6574.452707106198,6597.8102800619945,6587.215553190178,6605.074597009969,6624.408855963809,6628.253356010122,6665.044327383558,6711.066569217035,6656.036574368069,6690.257095129144,6705.903316247859,6686.010263682636,6648.638146953363,6683.909199703837,6690.391205595876,6677.136621133879,6640.971498605192,6612.294210469033,6612.003637791114,6549.977546927637,6540.299241578489,6530.151549595779,6460.078830728392,6423.623135521786,6441.571586319397,6428.8757954687835,6379.612550689287,6354.779762599441,6323.9790587400275,6332.6738873331415,6327.510634363965,6286.562238521843,6272.413584281634,6307.036436442904,6325.230756429524,6274.715813960531,6272.5029912594555,6274.112316860237,6289.199744367569,6301.537907306899,6322.414436628156,6338.373582169245,6339.379410669734,6302.431977085112,6292.15017463567,6303.10252941877,6285.176430365615,6291.032587412905,6255.538017217877,6279.968473907527,6286.226962355014,6285.601113510265,6276.392194794678,6265.663357456131,6307.617581798742,6306.4329393426115,6293.737148491997,6318.5252330929325,6299.548602050377,6266.088040600782,6262.824685910307,6343.179207227136,6352.499884664999,6315.597154569287,6308.15402366567,6311.752654522974,6311.640895800698,6286.226962355014,6261.371822520712,6259.851903897751,6278.225037840014,6301.381445095712,6290.809069968352,6275.453421527555,6279.074404129316,6282.918904175628,6248.944252603562,6248.631328181187,6306.209421898058,6260.254235297947,6296.776985737919,6350.242358475013,6307.908154476661,6261.416526009622,6314.233698157514,6299.906229961662,6323.397913384189,6313.9431254795945,6254.085153828282,6263.38347952169,6263.942273133072,6283.365939064734,6340.496997892499,6287.05397689986,6252.028793338393,6252.922863116606,6259.226055053003,6219.551708644833,6232.873348340196,6239.042429809861,6301.917886962639,6347.381335184734,6324.828425029329,6304.890668975195,6287.836287955795,6280.706081474553,6305.471814331033,6298.118090405237,6329.924622765139,6327.041247730404,6296.9781514380165,6321.609773827765,6349.080067763337,6331.77981755493,6324.716666307052,6344.565015383365,6293.96066593655,6237.790732120363,6191.6790833090645,6187.029920462361,6265.484543500489,6260.701270187053,6244.339793245768,6281.443689041578,6287.702177489064,6315.619506313742,6250.017136337417,6252.766400905419,6249.145418303659,6232.13574077317,6242.842226367263,6271.586569736787,6249.480694470489,6231.755761117431,6267.876180157206,6283.611808253742,6228.559461660321,6328.069427975349,6462.693984829662,6558.2476923761005,6583.236942677134,6718.286182676099,6751.3667644699535,6530.352715295878,6366.760297627485,6245.926767102095,6044.470494326412,5959.623272374067,6064.72117480292,6186.694644295531,6233.029810551383,6271.0948313587705,6239.243595509958,6266.736241189986,6330.371657654245,6299.570953794832,6270.647796469664,6255.873293384707,6277.8450581842735,6305.6729800311305,6309.2492591439795,6268.278511557402,6328.896442520195,6330.438712887611,6363.988681315027,6329.164663453658,6337.971250769049,6340.295832192402,6339.915852536661,6375.477477965054,6305.158889908658,6312.400855112178,6353.729230610041,6329.879919276228,6321.833291272318,6359.048945790404,6389.6708356941745,6375.410422731688,6379.433736733644,6397.248077064523,6462.537522618476,6433.189682148658,6414.637734250753,6418.951620930627,6449.841731767861,6463.520999374509,6484.866915329328,6524.00481987057,6496.176898023713,6506.883383617805,6525.033000115514,6531.269136818545,6539.002840400081,6544.702535236184,6571.323462882455,6552.436238817721,6587.796698546016,6623.4030274633205,6627.40398972082,6677.784821723083,6663.4350017827755,6645.039516096058,6656.237740068167,6707.736159293194,6677.494249045164,6624.811187364005,6587.260256679089,6548.703497493684,6495.886325345794,6491.103052032358,6457.061345226925,6398.142146842736,6391.950713628616,6355.360907955278,6347.806018329385,6304.242468385991,6307.081139931815,6254.509836972933,6231.0628570393155,6296.732282249008,6287.210439111047,6235.913185586118,6247.267871769413,6251.693517171564,6182.5819233157545,6271.363052292234,6279.856715185251,6226.614859892709,6219.104673755726,6242.238729266969,6248.564272947821,6230.392304705657,6261.796505665363,6222.256269723925,6204.285467181858,6243.8033513788405,6245.9714705910055,6254.800409650852,6242.350487989246,6253.012270094428,6251.402944493645,6239.4000577211455,6259.069592841815,6231.33107797278,6250.799447393352,6287.411604811145,6269.418450524623,6209.493423639944,6227.03954303736,6235.354391974734,6263.785810921885,6288.685654245098,6245.18915953507,6255.04627883986,6251.648813682654,6277.3756715507125,6296.173488637625,6274.939331405084,6261.662395198631,6280.795488452374,6300.710892762053,6243.825703123296,6235.846130352751,6260.343642275768,6236.13670303067,6218.300010955336,6244.764476390419,6247.7372584029745,6226.927784315084,6259.293110286369,6275.989863394483,6276.369843050224,6235.712019886019,6260.723621931508,6278.0238721399155,6302.566087551843,6277.018043639427,6253.749877661452,6265.886874900684,6294.00536942546,6266.803296423352,6240.472941455,6249.860674126229,6284.014139653938,6248.899549114651,6236.717848386508,6262.601168465754,6317.362942381256,6276.325139561312,6207.302952683324,6212.08622599676,6234.28150824088,6243.021040322905,6303.862488730251,6328.337648908812,6276.928636661606,6283.030662897905,6284.729395476508,6284.215305354036,6291.591381024287,6323.464968617555,6349.840027074818,6312.691427790097,6331.0869134768145,6358.423096945656,6305.449462586577,6254.576892206299,6226.167825003604,6239.355354232234,6221.56336564581,6191.835545520252,6229.386476205168,6290.920828690628,6275.140497105182,6245.256214768436,6293.178354880614,6277.979168651005,6269.172581335614,6250.866502626718,6225.206699992025,6256.700307929553,6278.739127962485,6272.6818052150975,6245.9714705910055,6238.707153643031,6270.267816813925,6254.085153828282,6305.293000375391,6472.752269834551,6617.144539015835,6707.579697082007,6769.628139689939,6800.361788315987,6597.184431217245,6319.799282526885,6153.390545057124,5956.874007806064,5978.108165038606,6065.548189347767,6151.825922945252,6234.8179501078075,6279.029700640404,6273.218247082025,6263.517589988422,6307.952857965572,6350.130599752736,6320.268669160446,6341.68164034863,6327.6223930862425,6360.367698713267,6344.7661810834625,6317.96643948155,6323.643782573197,6393.314170040389,6351.8069805868845,6362.759335369985,6318.659343559664,6310.992695211494,6355.360907955278,6376.684472165642,6376.416251232177,6370.671852907164,6380.506620467499,6404.110062612303,6401.606667233309,6371.208294774091,6417.789330218951,6449.104124200836,6452.635699824775,6397.024559619971,6373.488172708532,6456.3237376599,6458.737726061074,6521.613183213853,6507.2410115290895,6486.14096476328,6446.533673588476,6502.301276004467,6549.172884127246,6526.239994316101,6567.411907602776,6611.288381968544,6625.2805739975665,6651.789742921561,6662.093897115457,6694.258057386644,6675.192019366267,6671.660443742328,6718.017961742636,6694.973313209214,6704.673970302817,6763.704927409283,6723.315325178543,6758.832247118026,6702.729368535205,6643.720763173194,6612.651838380318,6577.470192607665,6554.045564418503,6495.305179989956,6509.654999930263,6503.105938804858,6468.863066299327,6429.099312913337,6422.170272132191,6398.253905565012,6359.473628935055,6343.849759560795,6328.427055886634,6284.260008842946,6306.522346320432,6298.900401461173,6334.886710034217,6323.82259652884,6309.405721355167,6285.176430365615,6297.179317138114,6333.165625711158,6272.190066837081,6249.9053776151395,6286.271665843924,6296.2181921265355,6293.714796747541,6252.453476483045,6278.29209307338,6305.941200964595,6310.277439388924,6297.179317138114,6258.868427141718,6326.750675052485,6325.789550040907,6309.2492591439795,6321.8109395278625,6361.932320825139,6306.567049809343,6301.359093351257,6329.701105320586,6275.900456416662,6318.100549948282,6291.971360680028,6288.752709478464,6312.378503367723,6356.478495178044,6337.524215879944,6242.752819389441,6302.320218362835,6346.68843110662,6287.992750166983,6256.722659674008,6277.330968061801,6333.657364089176,6333.836178044818,6341.480474648532,6335.356096667779,6338.977079269538,6317.564108081354,6325.230756429524,6300.777947995419,6277.509782017444,6299.369788094734,6321.095683705293,6264.165790577626,6260.254235297947,6313.272573145935,6322.302677905879,6284.058843142849,6290.742014734986,6280.14728786317,6233.18627276257,6313.786663268407,6323.375561639734,6327.86826227525,6295.81586072634,6286.67399724412,6334.439675145111,6369.487210451032,6310.6574190446645,6326.057770974371,6319.374599382234,6273.732337204497,6302.096700918281,6291.300808346368,6270.200761580559,6259.0025376084495,6328.292945419901,6355.5620736553765,6361.172361513658,6371.610626174286,6367.319091238867,6353.125733509748,6346.196692728602,6354.444486432611,6336.518387379455,6352.835160831829,6320.626297071731,6278.135630862193,6278.6720727291195,6270.401927280656,6275.743994205474,6300.196802639581,6287.009273410949,6292.306636846857,6322.68265756162,6300.867354973239,6312.847890001284,6305.449462586577,6276.883933172695,6282.360110564246,6286.964569922039,6295.77115723743,6284.5952850097765,6289.4679653010335,6225.989011047961,6228.671220382598,6320.492186604999,6411.329676071367,6578.8560007638935,6764.777811143138,6838.0691812120895,6878.727004376293,6760.1733517853445,6465.711470331129,6293.893610703184,6101.78036710982,5978.577551672167,6030.835930208676,6120.265259774359,6201.603257847221,6232.873348340196,6302.811956740851,6332.91975652215,6340.407590914678,6364.726288882052,6354.779762599441,6358.467800434566,6384.351120513812,6388.59795196032,6368.324919739356,6359.987719057527,6323.9790587400275,6380.9760071010605,6411.88846968275,6431.803873992429,6397.024559619971,6376.483306465543,6426.260641367512,6437.481217084077,6425.5900890338535,6414.190699361647,6400.802004432918,6403.685379467653,6429.345182102345,6461.33052841789,6463.342185418866,6430.84274898085,6438.755266518029,6458.13422896078,6462.291653429467,6492.891191588783,6492.66767414423,6512.471319731631,6514.974715110626,6521.389665769299,6532.766703697051,6537.549977010486,6550.983375428125,6577.179619929746,6633.841292123949,6613.635315136352,6641.284423027566,6654.628414467385,6707.669104059828,6747.522264423641,6722.465958889242,6701.969409223725,6729.260889203655,6771.505686224185,6753.087848793012,6755.524188938641,6767.594130944506,6747.321098723543,6730.3561246819645,6692.000531196658,6712.765301795638,6705.56804008103,6632.567242689996,6551.586872528419,6559.901721465793,6560.728736010639,6492.421804955221,6476.820287325417,6439.716391529607,6422.818472721395,6381.087765823337,6361.820562102862,6338.820617058351,6367.810829616885,6327.287116919412,6347.046059017905,6357.30550972289,6346.911948551172,6347.649556118197,6322.7497127949855,6315.664209802653,6320.648648816186,6336.116055979259,6330.215195443058,6304.689503275097,6342.553358382387,6320.5815935828205,6258.488447485977,6310.478605089022,6361.373527213756,6357.9090068231835,6337.904195535683,6335.914890279161,6355.271500977457,6297.380482838212,6320.715704049552,6334.886710034217,6297.849869471774,6345.570843883854,6334.327916422834,6326.773026796941,6326.72832330803,6343.335669438323,6354.712707366074,6347.82837007384,6330.639878587709,6324.9178320071505,6334.953765267583,6342.933338038128,6323.420265128644,6338.619451358253,6334.8420065453065,6349.3482886968,6365.933283082639,6338.820617058351,6331.243375688002,6345.503788650488,6310.29979113338,6302.141404407193,6314.658381302164,6383.769975157974,6360.390050457722,6321.386256383212,6321.833291272318,6340.988736270516,6330.997506498994,6331.042209987904,6360.010070801982,6335.758428067974,6304.108357919259,6329.723457065041,6373.376413986256,6369.733079640041,6349.907082308184,6335.400800156689,6342.35219268229,6384.015844346982,6372.683509908141,6354.824466088351,6332.897404777695,6340.92168103715,6380.327806511857,6346.531968895432,6327.264765174958,6379.456088478099,6412.514318527498,6387.100385081814,6386.988626359538,6384.731100169552,6344.1179804942585,6302.3872735962,6291.9937124244825,6301.604962540265,6307.6622852876535,6309.316314377345,6326.325991907835,6317.5864598258095,6297.894572960684,6284.729395476508,6342.218082215558,6288.283322844902,6279.789659951885,6318.145253437192,6335.177282712136,6310.992695211494,6297.559296793855,6262.310595787835,6295.838212470796,6330.639878587709,6438.062362439914,6650.001603365136,6816.432692579352,6939.300231850176,6959.126229182033,6762.38617448642,6452.568644591409,5990.267514022293,6037.38499133408,6118.320658006747,6192.841374020741,6252.9005113721505,6264.590473722276,6332.338611166312,6368.414326717178,6370.671852907164,6369.755431384496,6366.78264937194,6375.276312264957,6385.133431569748,6335.087875734315,6377.623245432765,6385.960446114594,6405.3394085573445,6378.360852999789,6388.21797230458,6404.355931801311,6396.21989681958,6392.576562473365,6419.935097686661,6452.970975991604,6421.611478520808,6437.168292661702,6413.408388305711,6442.063324697415,6460.190589450668,6446.600728821842,6434.08375192687,6452.568644591409,6468.9077697882385,6476.708528603141,6474.428650668699,6528.788093184005,6518.081607589914,6525.6141454713525,6548.748200982595,6530.53152925152,6584.0192537330695,6593.786966060039,6587.886105523838,6634.869472368893,6663.658519227329,6649.040478353558,6658.249397069144,6690.927647462803,6692.536973063586,6738.670973619339,6753.8925115934035,6746.248214989689,6728.590336869996,6760.821552374548,6775.0819653370345,6741.0402585316015,6756.105334294479,6782.547447985107,6747.879892334926,6734.915880550848,6683.3951095813645,6623.291268741044,6600.268971952078,6552.279776606533,6510.236145286101,6475.970921036115,6498.546182935976,6417.007019163016,6392.509507239999,6385.647521692219,6368.92841683965,6349.057716018881,6332.293907677402,6319.709875549063,6342.106323493282,6328.002372741982,6286.852811199762,6319.82163427134,6357.529027167443,6329.991677998505,6302.722549763031,6321.833291272318,6274.537000004888,6310.635067300209,6327.085951219315,6328.896442520195,6314.054884201871,6308.690465532597,6303.638971285698,6293.5806862808095,6292.217229869036,6302.409625340656,6330.081084976326,6339.781742069929,6341.346364181801,6336.004297256983,6282.360110564246,6359.87596033525,6316.670038303142,6281.398985552667,6304.801261997373,6317.184128425614,6320.425131371633,6327.510634363965,6335.043172245404,6274.425241282612,6353.662175376675,6383.2111815465905,6315.887727247206,6324.940183751605,6348.610681129776,6328.896442520195,6310.255087644468,6307.215250398547,6337.479512391033,6302.454328829566,6350.130599752736,6328.695276820097,6318.301715648379,6306.164718409147,6280.639026241187,6278.895590173673,6298.8556979722625,6302.34257010729,6346.129637495236,6317.094721447793,6337.077180990837,6302.655494529664,6300.934410206605,6354.8021143438955,6337.479512391033,6292.999540924971,6330.863396032262,6365.843876104817,6355.87499807775,6369.554265684398,6352.410477687178,6375.432774476144,6333.67971583363,6358.981890557038,6330.841044287807,6274.537000004888,6260.723621931508,6264.232845810991,6299.81682298384,6289.020930411927,6267.295034801368,6263.4281830106,6255.113334073226,6270.759555191941,6265.618653967221,6291.546677535377,6285.95874142155,6313.764311523952,6315.172471424637,6284.215305354036,6222.144511001648,6213.6284963641765,6251.939386360573,6271.0948313587705,6280.795488452374,6344.408553172178,6441.504531086031,6577.023157718559,6717.392112897887,6834.470550354785,6864.399536180442,6724.47761589022,6440.297536885445,6252.386421249678,6035.887424455575,5933.158806938984,6007.835985164164,6095.276009473326,6147.355574054191,6228.402999449134,6299.146270650181,6344.944995039105,6339.312355436368,6282.427165797611,6306.790567253896,6324.135520951214,6296.061729915349,6334.976117012038,6361.239416747024,6362.267596991968,6352.611643387276,6350.085896263826,6369.822486617862,6365.218027260069,6345.906120050683,6361.150009769203,6347.135465995725,6381.825373390362,6362.826390603351,6382.719443168574,6390.609608961297,6358.35604171229,6430.663935025208,6433.994344949048,6443.583243320375,6415.911783684705,6372.325881996856,6369.107230795292,6394.677626452163,6479.457793171143,6482.14000250578,6488.979636309104,6490.432499698699,6486.275075230012,6497.897982346772,6505.721092906129,6497.719168391129,6528.832796672917,6566.495486080109,6637.3728677478875,6620.877280339871,6622.799530363028,6643.564300962008,6690.458260829242,6695.532106820597,6664.709051216728,6705.679798803306,6692.2016968967555,6672.398051309354,6670.565208264018,6705.880964503403,6673.135658876379,6609.410835434299,6614.194108747734,6602.437091164243,6582.409928132288,6580.867657764871,6507.464528973643,6467.343147676367,6456.949586504649,6435.290746127456,6386.072204836871,6421.253850609523,6405.451167279622,6345.235567717024,6298.67688401662,6270.6254447252095,6277.800354695363,6290.362035079245,6284.930561176606,6271.8547906702515,6264.456363255545,6299.548602050377,6276.168677350125,6239.824740865796,6254.375726506201,6279.588494251788,6279.119107618226,6275.00638663845,6279.923770418617,6295.614695026243,6234.8179501078075,6297.9169247051395,6274.827572682807,6252.207607294036,6293.379520580712,6318.145253437192,6267.451497012556,6235.913185586118,6249.9053776151395,6284.5952850097765,6242.9763368339945,6257.7731916634075,6292.910133947151,6290.250276356969,6321.5203668499435,6285.7128722325415,6206.811214305308,6285.176430365615,6304.8459654862845,6297.894572960684,6311.529137078422,6279.677901229608,6272.659453470642,6293.267761858436,6306.075311431327,6260.298938786857,6238.036601309372,6289.803241467863,6287.366901322234,6267.116220845726,6276.369843050224,6258.488447485977,6262.355299276745,6289.423261812122,6259.248406797458,6298.609828783254,6297.715759005041,6271.0948313587705,6218.903508055629,6249.927729359595,6333.232680944524,6302.879011974217,6262.914092888128,6286.428128055111,6275.9675116500275,6285.042319898882,6260.231883553492,6251.984089849483,6280.683729730097,6309.8974597331835,6293.156003136159,6274.157020349147,6340.854625803784,6386.742757170529,6333.545605366899,6324.515500606954,6296.240543870991,6240.607051921732,6269.641967969176,6242.082267055782,6235.309688485824,6284.5952850097765,6288.216267611536,6247.178464791592,6255.292148028869,6235.4214472081,6206.319475927291,6247.536092702877,6271.586569736787,6269.91018890264,6250.508874715433,6221.56336564581,6215.32722894278,6258.466095741523,6280.639026241187,6254.465133484022,6225.072589525294,6207.347656172235,6250.5535782043435,6383.88173388025,6513.320686020933,6636.814074136505,6716.721560564228,6782.614503218473,6703.154051679856,6450.959318990626,6267.540903990377,6105.11077703366,5931.191853426916,5944.625251844555,6063.313014902236,6157.4585625479895,6239.75768563243,6305.9635527090495,6293.781851980907,6297.983979938505,6333.9032332781835,6290.294979845879,6318.145253437192,6316.334762136312,6250.911206115628,6289.62442751222,6318.189956926103,6310.903288233672,6286.405776310656,6333.9032332781835,6341.078143248337,6328.449407631088,6336.496035634999,6316.625334814231,6294.832383970307,6357.976062056549,6376.885637865739,6337.121884479748,6303.124881163226,6345.235567717024,6415.531804028965,6389.044986849426,6385.8486873923175,6379.50079196701,6338.1277129802365,6417.096426140836,6417.051722651926,6424.159577388714,6425.925365200683,6422.617307021297,6446.0195834660035,6452.412182380222,6427.914670457205,6424.785426233462,6504.201174283168,6512.426616242721,6502.1895172821905,6527.1340640943135,6567.523666325053,6547.071820148447,6543.964927669159,6600.380730674355,6625.124111786379,6643.229024795178,6638.557510204018,6641.574995705485,6605.521631899075,6621.972515818181,6609.947277301226,6585.338006655933,6587.237904934634,6570.027061704048,6552.190369628713,6521.43436925821,6438.732914773574,6399.8185276768845,6396.085786352848,6378.919646611172,6367.207332516591,6322.436788372611,6250.642985182165,6251.7829241493855,6252.81110439433,6264.724584189008,6221.473958667989,6230.951098317039,6187.409900118101,6202.363217158701,6233.90152858514,6207.146490472137,6209.783996317863,6163.672347506565,6155.826885202752,6185.264132650392,6173.216542388981,6216.645981865643,6236.203758264036,6227.933612815573,6219.6187638781985,6211.393321918646,6168.925007453562,6191.857897264707,6236.449627453045,6199.055158979316,6141.298251306803,6170.7802022433525,6222.300973212836,6239.891796099162,6218.7917493333525,6201.133871213659,6195.255362421914,6177.977463957962,6221.831586579274,6238.550691431844,6237.120179786704,6210.789824818352,6232.515720428911,6220.065798767305,6192.170821687081,6207.146490472137,6241.791694377863,6215.953077787528,6193.17665018757,6232.247499495447,6214.99195277595,6191.120289697682,6204.643095093143,6184.347711127724,6180.547914570322,6219.171728989092,6213.829662064274,6192.349635642724,6236.986069319973,6240.025906565894,6217.115368499204,6277.822706439818,6263.048203354861,6232.381609962179,6232.739237873464,6228.961793060517,6232.493368684455,6219.9093365561175,6184.638283805643,6225.4302174365785,6193.020187976384,6237.276641997891,6244.920938601606,6281.868372186229,6273.419412782123,6255.38155500669,6242.909281600629,6236.427275708589,6259.449572497556,6263.919921388617,6164.007623673395,6200.84329853574,6202.832603792263,6231.129912272681,6214.366103931201,6197.088205467249,6162.331242839246,6190.382682130657,6204.419577648589,6182.917199482585,6161.07954514975,6159.894902693618,6169.5508562983105,6174.691757523032,6184.526525083366,6192.997836231928,6144.203978085992,6136.73849543792,6165.929873696551,6146.327393809247,6223.8432435802515,6260.075421342304,6398.388016031745,6490.454851443154,6629.236832766156,6738.492159663697,6738.223938730233,6542.668526490752,6292.038415913394,6159.716088737976,5945.385211156036,5846.568148919124,5918.093731176106,6063.067145713228,6130.323544779247,6171.361347599191,6229.207662249525,6239.467112954511,6163.292367850825,6204.732502070964,6273.642930226676,6266.959758634539,6234.437970452067,6262.489409743477,6261.796505665363,6227.531281415378,6246.597319435754,6220.870461567696,6270.983072636494,6308.623410299231,6259.360165519734,6270.491334258478,6270.647796469664,6291.479622302011,6259.337813775279,6258.644909697165,6297.782814238408,6273.95585464905,6296.642875271186,6268.680842957598,6303.191936396592,6352.142256753714,6322.772064539441,6286.897514688673,6348.118942751759,6361.373527213756,6386.251018792513,6378.874943122261,6345.928471795139,6371.320053496368,6415.531804028965,6403.573620745376,6433.301440870934,6427.154711145725,6479.726014104607,6490.030168298504,6492.71237763314,6542.8696921908495,6538.2428810886,6547.004764915081,6567.613073302874,6566.339023868922,6578.006634474592,6613.232983736156,6603.822899320472,6589.517782869075,6566.562541313475,6574.855038506394,6592.021178248069,6538.734619466618,6516.606392455864,6478.51901990402,6443.739705531562,6373.219951775069,6347.738963096019,6321.118035449748,6311.1268056782255,6279.409680296145,6280.348453563268,6266.177447578603,6247.156113047137,6205.738330571453,6137.766675682864,6186.202905917515,6176.256379634903,6186.9181617400845,6175.339958112235,6175.854048234707,6134.838597159219,6204.374874159679,6210.968638773995,6165.773411485364,6161.571283527766,6137.386696027123,6176.614007546188,6155.6927747360205,6178.245684891425,6193.914257754595,6154.195207857515,6135.106818092682,6139.443056517012,6169.081469664749,6192.9084292541065,6204.75485381542,6200.910353769106,6166.868646963674,6123.618021442655,6138.191358827515,6165.795763229819,6154.888111935629,6175.6528825346095,6167.516847552878,6201.379740402668,6172.702452266509,6157.5703212702665,6188.572190829777,6203.413749148101,6172.41187958859,6169.46144932049,6152.965861912473,6158.151466626105,6187.946341985028,6202.60908634771,6186.135850684149,6146.863835676174,6182.671330293576,6147.914367665573,6134.0339343588275,6106.787157867809,6171.495458065922,6165.304024851803,6150.8200944447635,6151.669460734065,6207.794691061341,6220.713999356509,6197.468185122989,6184.906504739107,6196.998798489428,6183.923027983074,6191.768490286886,6180.659673292598,6180.570266314777,6167.9638824419835,6184.7500425279195,6207.258249194414,6198.94340025704,6202.98906600345,6191.299103653325,6183.744214027431,6213.583792875265,6216.109539998715,6187.029920462361,6177.284559879847,6211.862708552207,6185.264132650392,6145.254510075392,6109.469367202445,6115.191413783004,6161.772449227864,6178.7597750138975,6143.242853074415,6119.952335351984,6140.381829784135,6160.677213749554,6148.204940343492,6126.210823799471,6099.791061853298,6110.385788725113,6154.061097390783,6130.837634901719,6111.101044547683,6169.103821409205,6111.056341058772,6070.5326283613,6133.273975047347,6238.573043176299,6381.199524545614,6519.2886017905,6676.309606589032,6756.462962205764,6676.488420544675,6459.452981883644,6226.726618614986,6047.24211063887,5844.198864006861,5823.568203874613,5920.3736091105475,6009.244145064848,6075.181791208004,6124.489739476412,6150.887149678129,6089.710425103954,6167.919178953073,6231.800464606341,6184.884152994651,6181.12905992616,6172.545990055321,6186.582885573254,6218.188252233059,6228.045371537849,6205.9394962715505,6154.910463680085,6155.335146824736,6197.043501978338,6199.435138635056,6238.908319343129,6278.090927373282,6217.405941177123,6187.991045473939,6209.024037006383,6225.944307559051,6229.721752371997,6248.094886314259,6266.6915377010755,6239.131836787682,6294.854735714762,6345.213215972569,6290.4067385681565,6288.171564122626,6315.597154569287,6304.15306140817,6318.68169530412,6339.535872880921,6343.715649094063,6372.482344208043,6397.6504084647195,6382.048890834915,6402.0537021224145,6437.3694583618,6462.448115640655,6446.690135799663,6484.576342651409,6482.85525832835,6522.976639625626,6560.929901710738,6537.415866543754,6535.203043842679,6541.081552634425,6554.179674885235,6591.104756725402,6550.715154494662,6517.791034911995,6533.48195951962,6510.951401108671,6429.41223733571,6405.741739957541,6384.865210636283,6336.138407723714,6280.795488452374,6287.791584466885,6249.346584003757,6184.906504739107,6153.323489823758,6127.082541833227,6176.368138357179,6213.8073103198185,6161.258359105392,6121.0028673413835,6123.97564935394,6119.013562084861,6110.609306169666,6097.667646130043,6104.529631677822,6108.9105735910625,6088.30226520327,6117.270126017347,6128.267184289359,6114.811434127264,6123.483910975923,6115.236117271915,6098.829936841719,6095.186602495504,6102.49562293239,6116.5995736836885,6082.311997689248,6104.104948533171,6139.331297794735,6083.049605256272,6097.846460085686,6140.650050717599,6123.126283064638,6130.703524434987,6147.892015921118,6141.991155384917,6126.8143208997635,6115.683152161021,6111.168099781049,6108.597649168689,6147.802608943297,6157.83854220373,6126.188472055015,6138.191358827515,6148.4731612769565,6126.881376133129,6067.023404481817,6097.801756596775,6101.892125832096,6098.248791485881,6121.673419675043,6144.40514378609,6139.420704772557,6101.489794431901,6107.077730545728,6114.87848936063,6138.660745461077,6155.245739846914,6133.609251214177,6139.443056517012,6140.270071061858,6136.783198926831,6140.873568162152,6136.470274504456,6146.819132187264,6160.051364904805,6120.198204540993,6087.497602402878,6104.060245044261,6170.869609221174,6165.12521089616,6164.6781760070535,6126.8143208997635,6116.01842832785,6101.601553154177,6090.760957093354,6086.089442502194,6134.056286103283,6070.666738828032,6066.643424826077,6074.041852240784,6100.640428142599,6112.933887593018,6063.737698046887,6033.272270354303,6060.966081734429,6086.692939602487,6061.703689301454,6023.772778960798,6064.609416080644,6060.29552940077,6007.791281675253,6080.702672088465,6138.593690227711,6246.843188624763,6383.8593821357945,6536.946479910193,6686.993740438669,6716.274525675121,6538.578157255431,6249.815970637318,6052.025383952307,5853.296024000171,5769.119354381484,5811.5429653576575,5898.424196055436,5988.881705866063,6045.029287937795,6073.013671995839,6093.845497828186,6112.643314915099,6148.897844421607,6127.015486599861,6129.161254067571,6122.679248175532,6146.617966487166,6153.032917145839,6125.4061609990795,6143.466370518968,6177.753946513409,6199.613952590698,6209.046388750839,6146.93089090954,6153.658765990587,6202.854955536718,6150.7083357224865,6158.240873603925,6215.32722894278,6169.014414431384,6154.619891002166,6197.423481634079,6252.028793338393,6223.03858077986,6228.671220382598,6242.305784500335,6234.437970452067,6245.815008379818,6253.481656727989,6283.6565117426535,6291.8148984688405,6262.176485321103,6303.035474185404,6325.007238984971,6316.580631325321,6325.431922129622,6381.512448967987,6385.535762969943,6409.005094648015,6433.592013548853,6443.158560175724,6437.391810106255,6457.083696971381,6468.058403498937,6506.1234243063245,6528.676334461729,6502.52479344902,6510.86199413085,6532.699648463685,6484.352825206855,6455.228502181591,6466.270263942512,6467.432554654188,6418.750455230529,6359.428925446145,6326.907137263673,6316.804148769874,6285.109375132248,6272.592398237276,6199.8374700352515,6167.986234186439,6128.133073822627,6102.406215954568,6124.176815054037,6133.408085514079,6089.911590804051,6069.169171949527,6089.531611148312,6116.085483561216,6084.524820390323,6030.679467997488,6036.580328533689,6041.162436147027,6074.310073174247,6082.91549478954,6056.741602032376,6050.930148473996,6041.788284991776,6027.818444707209,6087.676416358521,6091.319750704736,6076.500544130868,6056.29456714327,6052.159494419038,6056.920415988018,6077.931055776007,6084.971855279428,6079.450974398968,6094.918381562041,6070.934959761496,6031.931165686985,6087.229381469415,6051.131314174094,6052.986508963884,6081.06029999975,6112.3750939816355,6096.460651929457,6109.290553246803,6129.541233723311,6125.920251121552,6103.792024110798,6100.036931042306,6054.171151420016,6038.167302390016,6106.451881700979,6098.919343819541,6084.100137245672,6062.48600035739,6068.185695193493,6050.885444985086,6077.036985997795,6075.829991797208,6110.698713147487,6081.77555582232,6104.6860938890095,6093.845497828186,6062.933035246496,6056.182808420994,6069.012709738339,6068.5880265936885,6089.464555914946,6085.351834935169,6091.163288493549,6057.05452645475,6041.810636736231,6074.600645852166,6050.192540906971,6055.065221198228,6091.431509427012,6087.475250658424,6090.604494882166,6129.161254067571,6148.0037746433945,6138.571338483255,6144.919233908562,6103.792024110798,6091.699730360477,6097.086500774205,6083.518991889834,6062.3071864017475,6103.769672366342,6047.2197588944155,6057.501561343856,6048.203235650449,6026.834967951175,6031.417075564513,6042.548244303256,6045.655136782544,6000.079929838173,6001.5551449722225,6043.419962337013,6016.061427123717,6070.2867591722925,6088.123451247627,6058.3732793776135,6051.712459529932,6120.8240533857415,6019.4588922809235,6000.862240894108,6022.990467904862,6074.175962707515,6201.245629935936,6263.003499865949,6362.602873158798,6485.828040340905,6548.658794004774,6388.754414171507,6134.190396570015,5975.202438259415,5780.876371964976,5681.969902750243,5790.398215102937,5843.39420120647,5953.633004860045,6021.090569626162,6004.527926984779,5995.475470480379,6013.043941622251,6028.511348785323,6054.037040953283,6039.5754622907,6002.270400794792,6014.541508500756,6079.361567421147,6117.851271373185,6062.10602070165,5993.6873309239545,6062.128372446105,6055.62401480961,6015.502633512335,6009.37825553158,6091.4762129159235,6116.286649261314,6084.323654690225,6065.190561436482,6028.466645296413,6077.953407520462,6086.357663435658,6096.125375762627,6093.7113873614535,6099.858117086664,6143.7792949413415,6134.9727076259505,6139.957146639485,6194.763624043897,6247.223168280503,6202.854955536718,6215.394284176145,6204.911316026606,6201.625609591676,6188.438080363046,6238.573043176299,6307.908154476661,6303.594267796787,6339.669983347653,6376.662120421186,6360.010070801982,6350.443524175111,6398.522126498477,6405.250001579524,6462.068135984914,6424.9418884446495,6415.8447284513395,6361.619396402764,6394.230591563058,6428.562871046409,6455.161446948225,6405.629981235264,6359.048945790404,6347.358983440278,6324.9178320071505,6268.949063891061,6245.412676979623,6213.85201380873,6179.787955258841,6145.567434497766,6145.701544964498,6099.8134135977525,6021.6270114930885,6012.194575332949,5999.677598437977,6006.316066541203,5993.821441390686,5977.102336538117,5984.7019296529215,5962.394888686525,5961.724336352866,5998.180031559472,5978.152868527516,5984.098432552628,6009.087682853661,5937.807969785687,5941.183083198439,5961.299653208215,6004.304409540226,6000.7281304273765,5942.658298332489,5953.454190904402,6007.5677642307,6015.5249852567895,5990.580438444667,5959.735031096343,5993.195592545938,6030.299488341748,6012.3510375441365,6010.540546243256,6027.326706329192,6033.2499186098485,6040.804808235742,6024.823310950197,6021.783473704276,6029.00308716334,6015.86026142362,6016.642572479555,6029.673639496999,6074.600645852166,6064.564712591733,6049.38787810658,6050.706631029443,6002.85154615063,6036.736790744876,6082.311997689248,6032.28879359827,6033.38402907658,6036.446218066957,5998.112976326105,5966.2170369883825,6035.328630844192,6054.953462475952,6038.524930301301,6068.811544038242,6045.275157126804,5997.241258292349,5980.633912162056,5984.836040119653,6035.730962244387,6037.876729712097,6031.126502886594,6044.8728257266075,6061.837799768186,6050.930148473996,6053.098267686161,6025.024476650296,5988.837002377153,5967.647548633522,6019.615354492111,6045.901005971552,6058.015651466329,6053.38884036408,6047.018593194318,6081.328520933213,6082.401404667068,6090.492736159889,6050.259596140337,6045.610433293633,6083.340177934191,6084.547172134778,6133.83276865873,6102.49562293239,6088.749300092376,6068.811544038242,6062.016613723828,6037.38499133408,6009.244145064848,6011.300505554736,6020.911755670519,6026.544395273256,6019.525947514289,6045.05163968225,6040.6259942801,6057.702727043954,6027.371409818103,6017.71545621341,6034.278098854792,6036.8261977226975,5971.581455657656,5994.46964197989,5996.838926892153,6016.106130612628,6033.361677332125,5983.405528474514,5956.136400239039,5938.590280841623,6042.011802436328,6202.922010770084,6323.487320362011,6491.013645054537,6578.006634474592,6519.489767490598,6359.943015568616,6142.907576907584,6023.929241171985,5832.419494678914,5729.84733937351,5813.286401425172,5953.834170560142,5997.598886203634,6029.338363330169,6019.101264369639,6079.428622654513,6079.696843587976,6025.069180139206,6015.592040490155,6039.977793690896,6054.417020609024,6078.288683687292,6097.667646130043,6134.123341336649,6151.401239800602,6132.6257744581435,6104.015541555351,6096.058320529261,6093.152593750071,6108.7317596354205,6167.941530697529,6183.163068671593,6136.090294848716,6123.506262720378,6132.111684335671,6138.861911161174,6164.208789373492,6178.133926169148,6118.454768473479,6111.68218990352,6179.139754669637,6244.719772901509,6192.41669087609,6259.449572497556,6224.983182547472,6187.052272206816,6243.423371723101,6277.912113417639,6309.361017866257,6287.299846088868,6285.891686188184,6315.7089132915635,6339.535872880921,6361.105306280292,6377.712652410585,6343.670945605153,6380.484268723044,6429.211071635613,6424.517205299999,6470.450040155654,6465.04091799747,6474.987444280082,6471.634682611786,6483.637569384286,6454.89322601476,6461.978729007093,6464.929159275193,6399.237382321046,6363.094611536814,6336.563090868365,6292.9324856916055,6265.506895244944,6214.835490564763,6193.958961243506,6179.027995947361,6170.534333054345,6140.337126295224,6109.402311969079,6091.096233260183,6068.453916126957,6050.192540906971,6048.940843217474,6048.225587394904,6012.462796266413,6025.091531883661,6034.4792645548905,6037.6532122675435,5992.122708812083,6038.256709367837,6050.080782184695,6072.924265018019,6028.220776107404,5992.189764045449,6040.693049513466,6018.900098669541,6064.788230036286,6103.121471777138,6046.191578649471,6001.733958927865,6027.952555173941,6017.6931044689545,6024.711552227921,6035.730962244387,6092.258523971859,6088.011692525351,6008.685351453466,5983.4725837078795,6003.745615928843,6027.19259586246,6049.477285084401,6028.444293551957,5984.858391864109,6005.220831062893,6053.232378152893,6038.681392512488,6031.126502886594,6052.986508963884,6069.6385585830885,6080.546209877278,6058.887369500086,6065.950520747962,6046.079819927195,6035.932127944485,6010.831118921175,5998.939990870952,6038.971965190407,6030.590061019667,6046.817427494219,6039.5307588017895,6026.4996917843455,5995.497822224835,6043.643479781566,6082.893143045086,6025.247994094849,5998.8505838931305,6015.413226534513,6037.854377967641,6009.065331109206,5994.648455935533,6037.966136689918,6054.215854908926,6042.950575703451,6026.007953406329,6037.9437849454625,6057.300395643759,6037.183825633982,6019.704761469932,6039.754276246343,6042.145912903061,6063.380070135602,6054.394668864568,6046.593910049666,6035.999183177851,6059.066183455728,6011.501671254835,6058.306224144248,6098.069977530239,6096.72887286292,6098.271143230337,6037.720267500909,6031.417075564513,6041.251843124848,6027.840796451664,5999.230563548871,6044.448142581957,6058.574445077711,6005.71256944091,5985.551295942223,5962.305481708704,5951.4201821589695,5997.822403648187,5947.039240245729,5997.71064492591,5981.550333684723,5982.399699974025,6011.233450321371,5989.5746099441785,6067.358680648646,6026.6114505066225,5970.03918529024,5969.6592056345,6075.3382534191915,6220.535185400866,6386.161611814691,6501.474261459621,6641.507940472119,6610.774291846072,6362.938149325628,6154.172856113059,5972.028490546762,5758.502275765214,5712.6364961429235,5752.020269873175,5840.734343616288,5930.856577260087,5980.075118550672,5987.89822911003,6022.297563826748,6039.5307588017895,6087.296436702781,6072.253712684359,6077.5063726313565,6081.328520933213,6103.2779339883255,6112.799777126286,6055.892235743075,6092.68320711651,6101.020407798339,6085.77651807982,6047.890311228074,6098.002922296872,6116.197242283492,6099.6345996421105,6103.859079344164,6137.721972193954,6177.9998157024165,6153.435248546034,6118.320658006747,6118.678285918032,6122.835710386719,6165.996928929917,6211.236859707458,6162.197132372515,6159.31375733778,6187.834583262752,6177.9998157024165,6204.151356715126,6244.049220567849,6250.061839826327,6259.069592841815,6315.463044102556,6306.768215509441,6310.590363811299,6325.275459918435,6331.221023943547,6334.529082122932,6386.988626359538,6375.298664009412,6433.010868193015,6448.970013734104,6437.145940917247,6445.416086365711,6461.352880162344,6462.09048772937,6469.80183956645,6489.136098520291,6450.601691079341,6453.3733073918,6492.913543333238,6420.739760487051,6384.574637958364,6344.408553172178,6295.39117758169,6292.016064168938,6292.261933357947,6230.99580180595,6165.013452173884,6091.498564660378,6113.246812015393,6115.817262627753,6085.8435733131855,6102.585029910211,6070.48792487239,6029.897156941553,6033.7193052434095,6011.14404334355,6007.3665985306025,6008.573592731189,6029.405418563535,6050.416058351524,6063.447125368968,6049.142008917572,6025.04682839475,6009.110034598117,6011.52402299929,5986.311255253703,5990.669845422488,6004.147947329038,6052.695936285965,6068.140991704583,6050.572520562711,5982.645569163033,5986.221848275883,6027.796092962753,6061.211950923437,6060.206122422948,6065.235264925393,6015.323819556692,6043.330555359192,6056.808657265742,6051.421886852013,6068.811544038242,6056.182808420994,6001.868069394597,6023.370447560603,6061.43546836799,6046.169226905015,6053.925282231007,6102.137995021105,6047.95736646144,6014.5862119896665,6025.136235372572,6028.086665640672,6079.24980869887,6092.057358271762,6038.368468090113,6059.647328811566,6107.6812276460205,6106.898916590085,6049.633747295588,6008.148909586538,5982.578513929667,6019.615354492111,6034.836892466175,6064.140029447082,6070.197352194471,6043.15174140355,5999.52113622679,6005.4890519963565,6055.489904342879,6044.492846070868,6053.031212452795,6044.8728257266075,6043.688183270477,6041.76593324732,6065.794058536775,6063.648291069066,6107.524765434834,6124.668553432054,6106.943620078996,6053.5005990863565,6030.835930208676,6033.7193052434095,6054.841703753675,6040.067200668717,6034.4792645548905,6068.029232982306,6078.467497642934,6102.026236298828,6109.06703580225,6129.921213379052,6118.9465068514955,6073.661872585043,6121.315791763758,6109.335256735713,6118.320658006747,6045.5210263158115,5986.959455842907,6071.717270817432,6093.666683872543,6066.799887037264,6082.5578668782555,6034.993354677362,6019.5706510032005,6035.5968517776555,5989.440499477447,6012.149871844038,6073.930093518507,6095.231305984415,6049.76785776232,6054.305261886748,6044.2246251374045,6071.113773717138,6074.645349341077,6065.972872492418,6020.174148103493,6091.185640238004,6206.073606738282,6285.0646716433375,6431.043914680948,6592.736434070639,6674.36500482142,6599.263143451589,6325.722494807541,6106.898916590085,5919.770112010255,5738.631574944446,5805.239773421261,5914.226879385338,5981.907961596008,6048.560863561734,6083.362529678647,6135.151521581593,6182.358405871201,6193.623685076676,6166.242798118926,6142.304079807292,6157.972652670462,6190.047405963827,6163.515885295378,6198.2504961789255,6209.85105155123,6219.03761852236,6210.275734695881,6212.935592286061,6224.133816258171,6226.301935470336,6176.926931968562,6199.904525268617,6223.619726135698,6186.8064030178075,6188.549839085322,6252.09584857176,6280.571971007821,6242.216377522514,6257.236749796481,6293.893610703184,6328.53881460891,6320.939221494105,6304.957724208561,6323.062637217359,6347.381335184734,6345.190864228113,6357.774896356452,6383.658216435697,6388.642655449231,6425.813606478407,6419.55511803092,6382.853553635306,6424.092522155348,6430.619231536297,6472.484048901088,6472.908732045738,6491.147755521269,6509.029151085514,6534.107808364369,6558.426506331743,6582.298169410011,6597.251486450611,6606.370998188377,6611.601306390919,6631.941393845248,6592.311750925988,6578.878352508349,6533.370200797343,6504.044712071981,6491.348921221366,6466.560836620431,6449.551159089942,6394.565867729887,6338.753561824985,6325.074294218337,6323.397913384189,6303.951895708072,6251.71586891602,6239.176540276592,6190.248571663925,6209.605182362221,6181.5090395819,6183.788917516341,6214.477862653478,6177.373966857668,6187.476955351467,6207.951153272528,6223.016229035406,6143.846350174707,6142.572300740755,6161.593635272221,6207.5264701278775,6174.736461011942,6163.046498661816,6162.398298072612,6176.144620912626,6166.466315563478,6177.284559879847,6198.764586301397,6203.950191015028,6154.642242746621,6138.459579760979,6176.569304057277,6178.826830247263,6148.875492677152,6208.152318972626,6250.575929948799,6276.973340150516,6197.244667678437,6171.763678999386,6179.832658747752,6222.926822057584,6242.149322289148,6263.674052199609,6184.235952405447,6183.118365182682,6157.302100336802,6159.246702104414,6178.513905824889,6251.693517171564,6257.929653874595,6213.516737641899,6203.570211359288,6209.5157753844,6241.612880422221,6192.41669087609,6182.179591915559,6228.648868638143,6249.257177025936,6205.201888704525,6213.22616496398,6208.733464328464,6219.372894689191,6233.543900673855,6226.100769770238,6232.381609962179,6256.767363162919,6230.727580872486,6213.293220197346,6193.534278098855,6208.9346300285615,6224.4914441694555,6222.010400534917,6245.055049068338,6242.886929856173,6184.235952405447,6146.819132187264,6193.958961243506,6238.729505387486,6205.268943937891,6245.390325235167,6260.410697509134,6282.985959408994,6273.9111511601395,6221.89864181264,6206.207717205014,6218.881156311173,6252.028793338393,6254.308671272835,6250.642985182165,6267.742069690475,6265.395136522668,6264.657528955642,6251.581758449288,6261.863560898729,6277.666244228631,6284.997616409972,6306.365884109246,6295.592343281787,6277.286264572891,6212.980295774973,6195.858859522207,6199.122214212682,6257.5943777077655,6260.745973675964,6290.764366479441,6227.307763970824,6238.237767009469,6230.347601216746,6193.578981587766,6215.818967320796,6220.021095278394,6202.564382858799,6184.03478670535,6193.578981587766,6245.815008379818,6251.291185771369,6246.731429902486,6230.906394828128,6231.308726228324,6264.478715,6306.7235120205305,6335.356096667779,6450.378173634788,6609.2543732231115,6729.730275837216,6830.894271241936,6781.429860762341,6563.880331978838,6358.4007452012,6204.017246248394,5997.6212379480885,6033.026401165295,6090.045701270784,6187.052272206816,6257.817895152319,6268.367918535223,6329.097608220292,6335.199634456591,6311.037398700404,6315.328933635823,6359.048945790404,6322.392084883701,6301.604962540265,6345.235567717024,6341.145198481703,6388.59795196032,6373.488172708532,6335.177282712136,6350.06354451937,6346.6437276177085,6331.019858243449,6355.182093999636,6363.742812126018,6408.826280692373,6425.925365200683,6422.08086515437,6436.900071728239,6414.950658673127,6442.577414819886,6440.61046130782,6424.561908788909,6447.22657766659,6468.013700010026,6478.742537348573,6458.268339427512,6456.211978937624,6506.838680128894,6521.948459380682,6536.745314210095,6545.0378114030145,6570.027061704048,6568.663605292274,6595.105718982902,6610.796643590527,6636.299984014033,6657.2212168242,6662.362118048921,6694.392167853376,6720.9013367773705,6713.659371573851,6712.988819240191,6765.62717743244,6778.05474734959,6762.095601808501,6776.0207386041575,6801.054692394101,6725.66225834635,6755.501837194185,6771.192761801811,6724.656429845862,6701.812947012538,6615.825786092972,6598.480832395653,6596.916210283782,6572.306939638489,6561.421640088754,6483.883438573294,6429.3675338468,6414.771844717485,6409.9215161706825,6394.07412935187,6361.507637680488,6376.684472165642,6424.6513157667305,6394.029425862959,6388.195620560125,6356.21027424458,6367.520256938966,6390.631960705753,6350.622338130754,6340.675811848141,6376.192733787624,6393.604742718308,6377.623245432765,6355.450314933099,6371.007129073993,6352.946919554105,6346.487265406521,6363.027556303448,6368.21316101708,6371.789440129929,6344.050925260893,6379.813716389384,6369.755431384496,6357.372564956256,6359.719498124064,6380.998358845515,6390.855478150306,6417.319943585389,6399.751472443518,6395.795213674929,6386.295722281423,6393.8953153962275,6361.7311551250405,6390.967236872582,6403.618324234286,6405.406463790711,6401.249039322024,6405.071187623881,6369.666024406675,6331.802169299384,6383.457050735599,6407.351065558322,6418.303420341423,6411.061455137904,6446.4219148662,6415.822376706884,6421.343257587345,6410.502661526521,6360.6135679022755,6376.103326809804,6376.058623320892,6412.335504571856,6427.624097779286,6436.7436095170515,6417.610516263308,6376.371547743267,6352.723402109552,6383.524105968965,6422.706713999119,6418.728103486073,6424.6513157667305,6397.158670086703,6416.805853462917,6433.569661804398,6404.288876567945,6379.456088478099,6385.826335647862,6411.9108214272055,6413.274277838979,6452.926272502694,6475.009796024537,6503.083587060402,6500.826060870417,6461.75521156254,6455.787295792973,6541.863863690361,6497.003912568559,6460.436458639677,6464.66093834173,6459.274167928001,6461.956377262638,6444.969051476604,6393.314170040389,6370.627149418253,6355.964405055572,6392.107175839803,6413.073112138881,6416.850556951828,6409.385074303756,6426.193586134146,6404.087710867848,6397.739815442541,6457.575435349398,6460.123534217302,6422.7737692324845,6449.618214323308,6392.7777281734625,6376.684472165642,6432.69794377064,6427.1770628901795,6453.954452747638,6570.719965782162,6712.653543073362,6846.920472016392,6963.820095517647,7055.864579184602,6990.217505719364,6709.144319193879,6496.71333989064,6305.538869564399,6127.484873233423,6172.545990055321,6217.540051643855,6271.251293569958,6399.840879421339,6444.969051476604,6435.715429272107,6463.051612740947,6500.356674236856,6555.945462697204,6499.686121903196,6520.808520413461,6534.040753131003,6534.554843253475,6535.024229887036,6540.858035189872,6539.181654355723,6523.513081492553,6549.955195183182,6523.803654170472,6527.983430383615,6584.645102577818,6570.027061704048,6561.734564511128,6580.666492064774,6583.147535699312,6646.693545185751,6603.3311609424545,6603.711140598195,6598.749053329117,6613.054169780514,6611.646009879829,6628.9239083437815,6649.59927196494,6642.916100372804,6643.296080028544,6698.7731097666165,6739.319174208543,6720.2531361881665,6682.299874103055,6691.732310263194,6777.987692116224,6772.735032169227,6795.064424880079,6834.8952334994365,6817.706742013305,6898.88827787498,6902.732777921293,6876.581236908583,6915.1379960939885,6933.287612591697,6935.634545759505,6903.805661655148,6964.0436129622,6976.135906712521,6966.010566474268,6951.683098278416,6950.7666767557475,6918.982496140301,6884.538457934673,6836.571614333584,6812.901116955414,6751.545578425596,6755.635947660917,6754.987747071713,6690.033577684591,6581.672320565262,6564.72969826814,6553.397363829299,6572.038718705025,6566.92016922476,6597.966742273181,6581.001768231603,6541.081552634425,6545.618956758852,6501.787185881995,6513.365389509844,6511.800767397973,6488.487897931087,6499.484956203099,6497.607409668853,6489.091395031381,6490.432499698699,6486.275075230012,6502.0777585599135,6492.868839844327,6499.596714925375,6499.976694581115,6480.642435627275,6509.699703419174,6518.6851046902075,6559.544093554508,6538.421695044243,6533.43725603071,6538.332288066422,6506.704569662163,6524.116578592847,6553.129142895836,6529.905680406771,6509.5879446968975,6526.351753038377,6519.869747146338,6515.041770343992,6471.768793078518,6527.581098983419,6559.477038321143,6533.996049642093,6530.084494362413,6561.756916255584,6503.217697527135,6540.969793912148,6546.691840492706,6563.433297089732,6558.806485987483,6544.9260526807375,6550.357526583377,6525.033000115514,6511.085511575403,6540.455703789677,6565.467305835165,6580.39827113131,6526.284697805011,6559.477038321143,6523.066046603447,6511.62195344233,6510.683180175207,6540.701572978684,6498.277962002512,6520.853223902372,6553.710288251673,6536.521796765542,6521.9708111251375,6553.665584762763,6538.041715388503,6577.514896096575,6564.662643034773,6566.629596546841,6590.657721836295,6578.878352508349,6538.667564233251,6560.192294143712,6608.4944139116305,6617.9492018162255,6572.686919294229,6589.87541078036,6601.431262663754,6585.695634567218,6557.934767953726,6574.497410595109,6541.506235779076,6522.037866358503,6497.160374779746,6512.739540665096,6517.679276189719,6525.658848960263,6528.698686206185,6486.9903310525815,6546.3342125814215,6530.442122273698,6530.106846106869,6543.517892780053,6539.405171800277,6533.81723568645,6498.836755613895,6483.816383339928,6507.173956295724,6537.661735732763,6528.2516513170785,6499.686121903196,6485.023377540515,6585.472117122665,6730.087903748501,6860.264463456209,6923.028161886712,7047.885006414057,7084.5418673207605,6901.123452320511,6645.084219584968,6482.7658513505285,6322.101512205782,6267.317386545824,6322.146215694692,6443.002097964537,6469.980653522093,6463.073964485403,6508.693874918685,6587.930809012749,6635.40591423582,6589.026044491058,6548.345869582399,6547.585910270919,6545.529549781031,6580.040643220025,6603.1523469868125,6575.838515262427,6606.1474807438235,6614.395274447832,6587.796698546016,6602.414739419787,6614.238812236645,6657.891769157859,6660.998661637147,6643.810170151016,6654.091972600458,6639.675097426784,6622.017219307091,6643.676059684284,6665.17843785029,6664.418478538809,6664.217312838711,6657.824713924493,6619.133844272357,6652.683812699773,6673.202714109745,6705.813909270038,6726.109293235457,6734.781770084116,6744.258909733166,6739.587395142007,6752.059668548068,6745.220034744744,6801.278209838654,6846.808713294115,6826.513329328696,6853.849512797537,6905.482042489296,6913.394560026474,6864.555998391628,6879.1516875209445,6926.693847977383,6910.622943714016,6921.977629897312,6958.634490804016,6983.534334127228,6946.5421970536945,6933.5111300362505,6955.058211691166,6923.519900264729,6906.443167500874,6878.414079953919,6813.079930911056,6798.305427826099,6755.47948544973,6735.653488117873,6698.102557432957,6648.660498697817,6607.220364477678,6612.294210469033,6633.081332812469,6601.475966152664,6536.678258976729,6549.418753316254,6569.244750648111,6531.090322862902,6548.703497493684,6554.0232126740475,6546.3342125814215,6517.612220956353,6487.124441519313,6518.752159923573,6517.2769447895225,6525.323572793433,6478.6531303707525,6514.035941843503,6537.728790966129,6522.306087291967,6508.3362470074,6536.991183399104,6524.943593137693,6516.3381715223995,6515.712322677651,6545.171921869746,6562.740393011617,6588.601361346407,6569.043584948014,6526.619973971841,6479.9495315491595,6520.830872157917,6530.978564140626,6518.90862213476,6492.690025888685,6483.145831006269,6503.687084160696,6507.688046418196,6539.002840400081,6536.834721187916,6500.267267259034,6535.784189198517,6575.570294328963,6557.3089191089775,6564.77440175705,6555.073744663447,6589.048396235514,6548.6811457492295,6574.452707106198,6517.791034911995,6506.101072561869,6532.38672404131,6528.743389695095,6538.265232833056,6524.787130926506,6521.546127980487,6528.497520506087,6487.9291043197045,6503.374159738321,6512.71718892064,6553.442067318209,6542.713229979662,6515.511156977554,6555.654890019285,6540.411000300765,6501.317799248433,6483.324644961911,6520.0932645908915,6566.696651780207,6555.565483041463,6502.971828338126,6515.444101744188,6509.230316785613,6504.536450449998,6526.977601883126,6511.733712164607,6520.652058202274,6529.10101760638,6555.498427808097,6560.102887165891,6552.6150527733635,6525.681200704718,6515.846433144383,6547.831779459927,6565.064974434969,6532.230261830123,6559.3652795988655,6562.673337778251,6560.706384266185,6577.760765285584,6546.177750370235,6522.171976825235,6508.38095049631,6522.931936136715,6520.026209357526,6479.882476315794,6487.9291043197045,6509.923220863727,6518.8639186458495,6539.695744478196,6497.987389324593,6500.803709125961,6486.073909529914,6417.610516263308,6465.555008119943,6520.294430290989,6508.112729562847,6483.436403684188,6455.809647537429,6496.71333989064,6500.200212025668,6547.831779459927,6593.094061981924,6700.89652548987,6830.581346819562,6906.1302430785,7012.144567030021,7013.955058330901,6810.755349487705,6623.425379207776,6495.036959056492,6254.375726506201,6220.781054589875,6365.732117382541,6426.595917534342,6474.2498367130565,6539.1145991223575,6537.952308410681,6555.453724319187,6512.7618924095505,6550.715154494662,6565.355547112888,6566.383727357832,6589.607189846896,6605.16400398779,6588.556657857497,6609.321428456477,6608.941448800737,6527.737561194606,6553.330308595933,6599.8666405518825,6581.940541498726,6588.8919340243265,6572.664567549774,6549.709325994173,6581.605265331897,6588.0649194794805,6642.8937486283485,6647.274690541589,