0.0,-187500.04470348894,-187500.04470348894,-187500.04470348894,-187500.04470348894,-187500.04470348894,-187500.04470348894,-187500.04470348894,-187500.04470348894,-187500.04470348894,-187500.04470348894,-187500.04470348894,-187500.04470348894,-187500.04470348894,-187500.04470348894,-187500.04470348894,-187500.04470348894,-187500.04470348894,-187500.04470348894,-187500.04470348894,-187500.04470348894,-187500.04470348894,-187500.04470348894,-187500.04470348894,-187500.04470348894,-187500.04470348894,-187500.04470348894,-187500.04470348894,-187500.04470348894,-187500.04470348894,-187500.04470348894,-187500.04470348894,-187500.04470348894,-187500.04470348894,-187500.04470348894,-187500.04470348894,-187500.04470348894,-187500.04470348894,-187500.04470348894,-187500.04470348894,-187500.04470348894,-187500.04470348894,-187500.04470348894,-187500.04470348894,-187500.04470348894,-187500.04470348894,-187500.04470348894,-187500.04470348894,-187500.04470348894,-187500.04470348894,-187500.04470348894,-187500.04470348894,-187500.04470348894,-187500.04470348894,-187500.04470348894,-187500.04470348894,-187500.04470348894,-187500.04470348894,-187500.04470348894,-187500.04470348894,-187500.04470348894,-187500.04470348894,-187500.04470348894,-187500.04470348894,-187500.04470348894,-187500.04470348894,-187500.04470348894,-187500.04470348894,-187500.04470348894,-187500.04470348894,-187500.04470348894,-187500.04470348894,-187500.04470348894,-187500.04470348894,-187500.04470348894,-187500.04470348894,-187500.04470348894,-187500.04470348894,-187500.04470348894,-187500.04470348894,-187500.04470348894,-187500.04470348894,-187500.04470348894,-187500.04470348894,-187500.04470348894,-187500.04470348894,-187500.04470348894,-187500.04470348894,-187500.04470348894,-187500.04470348894,-187500.04470348894,-187500.04470348894,-187500.04470348894,-187500.04470348894,-187500.04470348894,-187500.04470348894,-187500.04470348894,-187500.04470348894,-187500.04470348894,-187500.04470348894,-187500.04470348894,-187500.04470348894,-187500.04470348894,-187500.04470348894,-187500.04470348894,-187500.04470348894,-187500.04470348894,-187500.04470348894,-187500.04470348894,-187500.04470348894,-187500.04470348894,-187500.04470348894,-187500.04470348894,-187500.04470348894,-187500.04470348894,-187500.04470348894,-187500.04470348894,-187500.04470348894,-187500.04470348894,-187500.04470348894,-187500.04470348894,-187500.04470348894,-187500.04470348894,-187500.04470348894,-187500.04470348894,-187500.04470348894,-187500.04470348894,-187500.04470348894,-187500.04470348894,-187500.04470348894,-187500.04470348894,-187500.04470348894,-187500.04470348894,-187500.04470348894,-187500.04470348894,-187500.04470348894,-187500.04470348894,-187500.04470348894,-187500.04470348894,-187500.04470348894,-187500.04470348894,-187500.04470348894,-187500.04470348894,-187500.04470348894,-187500.04470348894,-187500.04470348894,-187500.04470348894,-187500.04470348894,-187500.04470348894,-187500.04470348894,-187500.04470348894,-187500.04470348894,-187500.04470348894,-187500.04470348894,-187500.04470348894,-187500.04470348894,-187500.04470348894,-187500.04470348894,-187500.04470348894,-187500.04470348894,-187500.04470348894,-187500.04470348894,-187500.04470348894,-187500.04470348894,-187500.04470348894,-187500.04470348894,-187500.04470348894,-187500.04470348894,-187500.04470348894,-187500.04470348894,-187500.04470348894,-187500.04470348894,-187500.04470348894,-187500.04470348894,-187500.04470348894,-187500.04470348894,-187500.04470348894,-187500.04470348894,-187500.04470348894,-187500.04470348894,-187500.04470348894,-187500.04470348894,-187500.04470348894,-187500.04470348894,-187500.04470348894,-187500.04470348894,-187500.04470348894,-187500.04470348894,-187500.04470348894,-187500.04470348894,-187500.04470348894,-187500.04470348894,-187500.04470348894,-187500.04470348894,-187500.04470348894,-187500.04470348894,-187500.04470348894,-187500.04470348894,-187500.04470348894,-187500.04470348894,-187500.04470348894,-187500.04470348894,-187500.04470348894,-187500.04470348894,-187500.04470348894,-187500.04470348894,-187500.04470348894,-187500.04470348894,-187500.04470348894,-187500.04470348894,-187500.04470348894,-187500.04470348894,-187500.04470348894,-187500.04470348894,-187500.04470348894,-187500.04470348894,-187500.04470348894,-187500.04470348894,-187500.04470348894,-187500.04470348894,-187500.04470348894,-187500.04470348894,-187500.04470348894,-187500.04470348894,-187500.04470348894,-187500.04470348894,-187500.04470348894,-187500.04470348894,-187500.04470348894,-187500.04470348894,-187500.04470348894,-187500.04470348894,-187500.04470348894,-187500.04470348894,-187500.04470348894,-187500.04470348894,-187500.04470348894,-187500.04470348894,-187500.04470348894,-187500.04470348894,-187500.04470348894,-187500.04470348894,-187500.04470348894,-187500.04470348894,-187500.04470348894,-187500.04470348894,-187500.04470348894,-187500.04470348894,-187500.04470348894,-187500.04470348894,-187500.04470348894,-187500.04470348894,-187500.04470348894,-187500.04470348894,-187500.04470348894,-187500.04470348894,-187500.04470348894,-187500.04470348894,-187500.04470348894,-187500.04470348894,-187500.04470348894,-187500.04470348894,-187500.04470348894,-187500.04470348894,-187500.04470348894,-187500.04470348894,-187500.04470348894,-187500.04470348894,-187500.04470348894,-187500.04470348894,-187500.04470348894,-187500.04470348894,-187500.04470348894,-187500.04470348894,-187500.04470348894,-187500.04470348894,-187500.04470348894,-187500.04470348894,-187500.04470348894,-187500.04470348894,-187500.04470348894,-187500.04470348894,-187500.04470348894,-187500.04470348894,-187500.04470348894,-187500.04470348894,-187500.04470348894,-187500.04470348894,-187500.04470348894,-187500.04470348894,-187500.04470348894,-187500.04470348894,-187500.04470348894,-187500.04470348894,-187500.04470348894,-187500.04470348894,-187500.04470348894,-187500.04470348894,-187500.04470348894,-187500.04470348894,-187500.04470348894,-187500.04470348894,-187500.04470348894,-187500.04470348894,-187500.04470348894,-187500.04470348894,-187500.04470348894,-187500.04470348894,-187500.04470348894,-187500.04470348894,-187500.04470348894,-187500.04470348894,-187500.04470348894,-187500.04470348894,-187500.04470348894,-187500.04470348894,-187500.04470348894,-187500.04470348894,-187500.04470348894,-187500.04470348894,-187500.04470348894,-187500.04470348894,-187500.04470348894,-187500.04470348894,-187500.04470348894,-187500.04470348894,-187500.04470348894,-187500.04470348894,-187500.04470348894,-187500.04470348894,-187500.04470348894,-187500.04470348894,-187500.04470348894,-187500.04470348894,-187500.04470348894,-187500.04470348894,-187500.04470348894,-187500.04470348894,-187500.04470348894,-187500.04470348894,-187500.04470348894,-187500.04470348894,-187500.04470348894,-187500.04470348894,-187500.04470348894,-187500.04470348894,-187500.04470348894,-187500.04470348894,-187500.04470348894,-187500.04470348894,-187500.04470348894,-187500.04470348894,-187500.04470348894,-187500.04470348894,-187500.04470348894,-187500.04470348894,-187500.04470348894,-187500.04470348894,-187500.04470348894,-187500.04470348894,-187500.04470348894,-187500.04470348894,-187500.04470348894,-187500.04470348894,-187500.04470348894,-187500.04470348894,-187500.04470348894,-187500.04470348894,-187500.04470348894,-187500.04470348894,-187500.04470348894,-187500.04470348894,-187500.04470348894,-187500.04470348894,-187500.04470348894,-187500.04470348894,-187500.04470348894,-187500.04470348894,-187500.04470348894,-187500.04470348894,-187500.04470348894,-187500.04470348894,-187500.04470348894,-187500.04470348894,-187500.04470348894,-187500.04470348894,-187500.04470348894,-187500.04470348894,-187500.04470348894,-187500.04470348894,-187500.04470348894,-187500.04470348894,-187500.04470348894,-187500.04470348894,-187500.04470348894,-187500.04470348894,-187500.04470348894,-187500.04470348894,-187500.04470348894,-187500.04470348894,-187500.04470348894,-187500.04470348894,-187500.04470348894,-187500.04470348894,-187500.04470348894,-187500.04470348894,-187500.04470348894,-187500.04470348894,-187500.04470348894,-187500.04470348894,-187500.04470348894,-187500.04470348894,-187500.04470348894,-187500.04470348894,-187500.04470348894,-187500.04470348894,-187500.04470348894,-187500.04470348894,-187500.04470348894,-187500.04470348894,-187500.04470348894,-187500.04470348894,-187500.04470348894,-187500.04470348894,-187500.04470348894,-187500.04470348894,-187500.04470348894,-187500.04470348894,-187500.04470348894,-187500.04470348894,-187500.04470348894,-187500.04470348894,-187500.04470348894,-187500.04470348894,-187500.04470348894,-187500.04470348894,-187500.04470348894,-187500.04470348894,-187500.04470348894,-187500.04470348894,-187500.04470348894,-187500.04470348894,-187500.04470348894,-187500.04470348894,-187500.04470348894,-187500.04470348894,-187500.04470348894,-187500.04470348894,-187500.04470348894,-187500.04470348894,-187500.04470348894,-187500.04470348894,-187500.04470348894,-187500.04470348894,-187500.04470348894,-187500.04470348894,-187500.04470348894,-187500.04470348894,-187500.04470348894,-187500.04470348894,-187500.04470348894,-187500.04470348894,-187500.04470348894,-187500.04470348894,-187500.04470348894,-187500.04470348894,-187500.04470348894,-187500.04470348894,-187500.04470348894,-187500.04470348894,-187500.04470348894,-187500.04470348894,-187500.04470348894,-187500.04470348894,-187500.04470348894,-187500.04470348894,-187500.04470348894,-187500.04470348894,-187500.04470348894,-187500.04470348894,-187500.04470348894,-187500.04470348894,-187500.04470348894,-187500.04470348894,-187500.04470348894,-187500.04470348894,-187500.04470348894,-187500.04470348894,-187500.04470348894,-187500.04470348894,-187500.04470348894,-187500.04470348894,-187500.04470348894,-187500.04470348894,-187500.04470348894,-187500.04470348894,-187500.04470348894,-187500.04470348894,-187500.04470348894,-187500.04470348894,-187500.04470348894,-187500.04470348894,-187500.04470348894,-187500.04470348894,-187500.04470348894,-187500.04470348894,-187500.04470348894,-187500.04470348894,-187500.04470348894,-187500.04470348894,-187500.04470348894,-187500.04470348894,-187500.04470348894,-187500.04470348894,-188573.2190100216,180963.8134794013,175721.8376662538,170922.47109681024,165468.04195261502,159196.8130107895,152503.80665109237,147752.40692524993,143899.79319569984,139506.5354712648,134818.19001653077,130796.8206163431,126450.72507270874,120223.12673606,111542.44679718577,94015.01345813436,63059.38965790149,49560.18770458552,50356.55800778366,50977.78004143001,51753.02794611787,52303.77492949664,52858.34406117727,53274.980577824186,53890.257047445426,54080.62685497128,53866.22892215597,53576.52796227074,53405.850041610014,53248.78433332257,52845.60356683774,52430.03993392467,52155.62756724687,53487.12098444951,61568.61770971033,79972.35119013205,107768.24298718489,131431.87837980728,142121.62251730234,144518.69064792283,144365.6259018929,144691.8496122181,145462.336595337,145637.50721663324,144154.49132376807,140266.83005891205,135697.66410561375,131715.3879064784,129381.37404696633,128760.35317902008,129641.41424195937,131403.96105098262,133311.23540535397,134945.86318085948,136382.47685223544,137777.15865101322,131450.027996305,113964.16890194046,101837.85579655836,93561.65302534736,87208.97432672672,82391.7934169523,78647.54094452155,75045.0655871708,71459.7116660728,68554.99071538338,66644.65417202165,64824.149289625806,63087.932835570915,61893.14268745693,61121.806338048744,59842.77246508271,58251.395315098205,57001.03873026833,56149.01258337648,54597.75681468926,50658.15009571912,43992.055236346154,27317.542113964813,-3102.913868774637,-35349.93205665732,-67305.46114509835,-92266.28002718449,-103091.96747445673,-109999.6623396471,-115211.44094603551,-119334.64489396155,-121901.31806150891,-121301.3301850951,-119561.0233618049,-115609.97254967364,-102742.56500513137,-85139.60512156549,-70316.73286160623,-59691.65232082037,-51422.06566596814,-43207.46430247597,-37746.374338433074,-33261.09448207551,-28584.729562369535,-23164.476235446484,-15549.326306501187,-8429.513386429953,-2435.7142967837212,3099.3599414062433,9085.782955382223,15789.629911140193,20023.027959230898,21881.597862434133,23739.296047603613,25409.641910748713,27358.378751084656,29014.97829138974,28866.227432039672,26433.12828935722,21816.37547211355,15829.617181970738,9781.726870742665,3480.703053558237,-3547.1324380794094,-10931.411198545838,-17332.973162290236,-23398.7225173381,-29029.21635260777,-34588.788102720755,-39626.156047124394,-43470.052596336915,-45627.84530256335,-46899.01136148112,-47743.41556351371,-47338.066677816714,-45646.21843650561,-43643.52448505456,-42703.857148153445,-42372.47018485906,-42068.575867244705,-41824.4724660483,-39573.07065404304,-34594.95718419042,-25625.73857614262,-12049.847787600493,4485.4586703132,24639.691369496748,47034.239415435724,66857.06279958044,81968.60783917998,96243.14710416165,108928.41028313761,119123.91264723691,127162.49402314355,134178.88542162007,140509.59235544116,146039.74920985094,149654.070991763,151501.48737448305,153478.72268899952,156158.24981430173,158645.440178566,160931.35308401028,164056.52929026238,167316.06183243537,169220.00577688287,170526.1970193621,171974.6347635549,174074.17882373082,176487.02728593675,178548.95336019437,180511.63768907043,182003.01313436189,183516.85208283094,185359.90987538217,-187500.04470348894,-187500.04470348894,-187500.04470348894,-187500.04470348894,-187500.04470348894,-187500.04470348894,-187500.04470348894,-187500.04470348894,-187500.04470348894,-187500.04470348894,-187500.04470348894,-187500.04470348894,-187500.04470348894,-187500.04470348894,-187500.04470348894,-187500.04470348894,-187500.04470348894,-187500.04470348894,-187500.04470348894,-187500.04470348894,-187500.04470348894,-187500.04470348894,-187500.04470348894,184822.50688344325,146356.048745638,118688.65712745872,99983.95740794629,85304.00220203426,72009.2963587399,59380.73955544705,49323.12510289253,41453.56761855693,33740.02531051938,12248.867720230546,-78739.65248342187,-120945.15513719978,-91781.42598645997,-105402.24378135728,-89670.75075754533,-66472.23281529342,-48378.450975233434,-33937.10064138182,-25978.04677224717,-19928.167155762574,-15727.067378409789,-12004.451394611764,-8995.571314760604,-7500.932514778676,-6598.726701584662,-5622.044875865564,-4736.379353568477,-4205.570126243845,-3550.3063857920633,-1778.461251075417,33.684078894147746,1451.1646570163557,3352.001708984579,5660.31106237305,7761.553855127556,9193.473660167892,10312.290228878288,11646.73407634903,12824.291029487971,13027.803662753542,12996.33240656047,13552.287346397323,14270.560654468616,14359.632356123015,14004.127860561355,13734.632877663718,13479.130086795103,12372.11523915711,11123.055055505642,10098.987531541292,9773.88140843885,9356.306118524804,8465.589101980819,7330.902794707155,7098.757576794336,7226.162520189586,6795.422052791364,6303.281343374413,6310.322142877834,6339.200596714091,5638.316945829028,5205.050731307356,5633.086637626486,6844.797056293137,7425.093045841819,7307.232297328985,7358.730716554012,7413.179566047141,7001.9521715584015,6512.00193309807,6451.160484690725,5354.315680779896,2563.767440768175,1470.5883229480175,1504.7864919646374,2203.0996922373406,2487.1903642642933,2131.8199791693664,2488.2855997426036,3611.438406877328,4349.738877980576,3909.610677911124,2608.5379849121555,2156.116325392285,2603.5982493875326,2693.9440004758835,3112.0557322568575,4502.647161799331,6182.112536682193,7018.023075821767,7492.662369330213,8499.809622741894,9913.423349073333,10553.398496317684,10742.985992787599,11213.914896716464,12030.737046091206,12252.980441210324,11980.043289666568,11928.813091375005,12285.636339859528,12179.085574041079,11583.791563962885,11340.850453478153,11780.062232024937,12179.554960674639,12072.423049500352,12081.900189149403,12751.133769885751,13408.31976036069,13334.4472449359,13255.634993986487,13779.693994485617,14450.872176989578,14442.199700140918,14230.372217937973,14418.082167873643,14642.605440927202,13811.433471612154,12479.604778242681,11414.745320647398,10738.985030530099,10102.183830998401,9674.080869445905,9603.315246500402,9757.40817277529,8673.773249837548,6602.459442908698,5288.132165447732,5702.846432071499,6412.335504571856,6706.9314964928035,6984.42840390544,7778.16120125785,8470.595892738807,8467.936035148625,8414.314200200344,8633.316592373443,8752.429038575774,8160.979528543893,7537.656430918745,7602.923524728242,8376.048013692858,8690.76057562358,8724.176433584265,9079.03272855672,9797.4624988392,9933.2940498941,9608.85847912532,9576.783725831954,10103.301418221166,10337.480644879419,10139.041857605203,10153.123456612046,10773.719641413647,11274.510475934801,11294.314121522204,11310.385025785568,11686.184905312646,12060.531921450129,11970.65555699534,11784.62198789382,11935.160986800312,12300.701415622403,12265.586825083117,12108.118785395478,12240.37405733753,12646.862882001744,12626.276925358407,12331.099788081621,12235.70254274637,12600.572419234804,12670.779248568922,12418.36099843514,12331.926802626467,12580.142924802652,12630.814329482833,12342.655639965014,12159.751315087238,12408.995617508366,12570.554026431326,12296.231066731343,11951.768332930606,11967.861588938427,12036.503796160674,11593.268703611935,11062.347717565026,10967.352803629972,11178.35327128807,10886.05950904602,10394.879924640647,10334.172586700033,10733.642963605282,10738.292126451985,10435.604803038217,10427.82639596777,10860.265595944596,10980.383870647416,10778.413507749261,10798.641836481314,11261.278243217259,11566.178389332103,11401.31192222976,11251.644641357023,11587.189029120093,11877.78405878354,11643.627183869743,11419.752111405387,11655.183035753136,12050.205415511778,11937.17264380129,11723.959353442116,11911.803413844516,12276.941511266412,12180.270216497209,11851.788979982017,11813.209869052156,12046.673839887839,11916.810204602505,11532.740179626964,11433.096102845206,11738.979725716083,11791.729842630606,11457.146579879116,11312.799014186743,11641.928451291138,11852.481884060131,11603.170526405636,11389.39844243508,11579.209456349547,11903.041530018036,11659.87690208875,11671.58921618333,12192.809545136637,12645.477073845515,12290.061985261678,11854.270023616557,11691.415213515189,12090.192686342321,12280.249569445798,11948.415571262309,11869.759782524085,12408.034492496789,12342.007439375811,11770.003947020048,11706.83791718935,12402.424204638506,12608.68610247208,12015.515508117142,11645.392971681711,12173.922321071903,12472.027536872332,11945.733361927672,11464.366193338179,11714.213992859603,12182.773611876204,11693.672739705175,10835.745732277124,10614.396406936217,10851.526063862571,10389.649616438106,9789.997016191128,9792.992149948139,10185.265265138778,9821.669438084298,9094.723653164347,8789.845858793959,9205.67771264049,9095.573019453648,8561.768658372004,8531.191471957145,9330.13222576764,9455.167884250628,8801.424062421807,8234.919099202049,8144.014554502315,7827.625611737444,6871.55209440614,5955.711717094388,6000.146985071538,6250.978261348994,5380.556628770427,4327.521243992001,4422.11382652686,5048.499113142385,4363.105221164849,3133.692220889595,3000.6322861471517,4063.8824181416535,3867.9917297353427,2727.829245070129,2648.8605319095295,4322.3579910228245,4758.932263723882,3565.572627255038,3209.77755901546,5187.236390976476,6266.557427234344,4831.91070937046,3498.2938764445635,4424.416056205757,4461.877579912851,1574.7474521097486,-2249.9042451267537,-4246.272652896959,-3899.3065237172277,-6231.912223328617,-9383.977578160475,-9995.186030290846,-8942.597680401526,-10938.988439916187,-14321.83555624909,-15207.434023312811,-13115.489556251712,-16330.720940914267,-24212.4154224891,-29089.878987059474,-27387.815998532296,-26654.61172516486,-28392.57161528726,-29387.62657494862,-27664.552946633452,-27022.07440401011,-29427.792659734805,-31584.758351416393,-30957.79191944503,-30218.776192519214,-32048.400586652828,-34135.1594490003,-33593.08494247019,-32001.260757596585,-32486.964164610406,-33142.85375390694,-31374.160215158492,-27773.025962475058,-26574.41366605922,-26960.517699780194,-25915.730108705775,-22515.69450088674,-21138.312952317352,-21587.314794935563,-20453.321391740013,-16736.963896389472,-14757.11342777174,-15450.419837286454,-15727.693227254538,-13402.687120757953,-11943.699353182239,-13167.725583043764,-14236.228374985263,-12590.983520863478,-10969.36446063095,-11983.08312691249,-13418.355693621123,-12489.014862658367,-10697.634303287781,-11427.038780097817,-13004.557848520024,-12464.539702479804,-9712.950553053684,-9454.050297027863,-10904.522049966103,-10634.870604857279,-8093.767832966785,-7528.7157331366225,-8791.231666950187,-8947.135084525953,-6457.284862671479,-5342.379849240762,-6509.47618597462,-7089.369844123107,-5039.804284549271,-3517.248155742664,-4583.985159872193,-5733.311859764083,-4174.836477617798,-2301.7155887741555,-3081.567952819819,-4439.324669757446,-3328.487673817596,-1118.07896114337,-1528.3899341094416,-3026.180330059568,-2522.751989692687,-187.3970255132944,-241.60000581741403,-1861.1850573045085,-1988.8135181443117,231.45231383470463,542.2086169968387,-1106.7913301934398,-1754.3213670636853,300.921535601799,1141.7941620104507,-296.51824194410347,-1278.229210165645,559.1512392939615,2071.358510417761,1112.6251354962749,-6.191433214120057,1523.025515440168,3450.863474710402,2721.68251534492,1356.996757626147,2382.2042205577163,4610.673142751831,4235.096780669306,2714.798178052685,3133.4910551894973,5442.292146955985,5451.992804049588,3881.4698316418926,3826.2833745817397,6195.590638588744,6836.079875955567,5587.422023704294,5616.613401962924,7985.25011363627,9003.997922420254,7629.4997488856025,6698.795461511071,8568.518885197507,10058.016783954714,8939.311973966596,7653.7066881307,8988.642273979458,10723.539975111482,9793.215667392691,8227.632430509619,8960.568482943592,10914.245058804163,10333.323220410732,8621.60427827886,8725.58459348495,10750.160902757752,10559.299356853886,8703.054035074001,8258.567244835764,10257.55080670724,10527.60458321626,8722.388294027842,7838.26504209817,9695.024454000528,10513.701798165059,8942.105942023509,7693.202220583227,9247.631936983102,10515.713455166037,9180.844924550644,7733.077732691495,8994.185506604375,10872.737869350656,9990.492163955232,8351.528150025386,9175.569912859191,11360.519988598822,10903.717387165712,9259.701878988968,9540.976231214552,12007.558287091051,12225.84542344158,10594.503354370994,10383.52523845735,12914.882649765332,13815.076805958368,12431.861452086147,11973.248359352156,14451.028639200764,16009.794594024968,15009.218753483148,14230.260459215697,16519.682588539432,18766.882272587096,18140.87696562731,17108.3381305144,19049.475377735544,21783.630166486524,21292.49528557006,19672.70906838287,20628.715530480808,23300.5983591793,22744.330494920076,20477.52833098511,20374.55384427951,22947.597258996637,22903.51961893077,20818.437137417455,20398.69372829124,22705.63962526794,22582.66032727484,19824.522116723314,18032.783929441444,19936.370245977672,19632.49828010777,13341.622154906054,6083.720157589932,4268.0656037408835,4683.159850020391,3326.408961583252,2251.0665358384294,4781.395766901465,7969.67094775092,6988.4517179073955,3936.5221782353137,2805.389798330045,3011.9869723304478,-97.72182675860248,-3846.6458137805243,-3982.7232340244336,-413.77549335664435,275.6864161117573,-1951.6649188595916,-2840.258519680324,-141.88887380228923,181.47381323263804,-2881.2963225002677,-4901.558745093196,-3121.689334117095,-3052.9577199170258,-7474.780973765966,-11644.722419348052,-12381.54767531725,-13365.091486584126,-16964.772875877963,-20198.243284016047,-20306.179857990726,-18634.11291052257,-19084.098229896812,-20124.92956220264,-18694.41791706299,-15747.899204242136,-15533.054236537724,-16471.20165481587,-15564.167864819512,-13361.246986537813,-12863.384230540303,-13547.705238783985,-13090.54500943959,-10060.251958400246,-8391.783641789394,-8742.795436715536,-8253.895730244605,-5482.838211397911,-3631.4879216537383,-4073.873647913176,-4447.795980906008,-2664.7973257061635,-1105.9419639041382,-1852.1326008001092,-2846.2040837054356,-1916.5950318092148,-484.63052327996775,-1075.5435914449206,-2118.23011854054,-1554.2285506997766,18.730761853547317,31.404200959706422,-242.00233721760958,354.90099846136553,2318.3676383933594,2746.805876112685,2147.354441565805,2791.5987720011203,4889.06411994268,5507.492185532115,4867.517038287764,4663.892646299916,5939.596109342112,6402.567792244887,5380.042538647955,4512.325467148479,5286.724005547047,5974.42012720348,5130.01592517089,4335.992555140562,5231.917528142635,6607.533288900053,6255.180389306592,5598.732006398679,6285.95874142155,7726.19339539926,7468.634244040757,6452.076906213392,6373.979911086549,7735.849349003953,8293.614780141686,8165.338118712679,8729.11616910889,9876.654729444354,10271.610053969629,10080.435583643388,10077.038118486182,10674.701413476636,10628.612116409793,9836.063961513515,9410.956133718031,9838.209728981225,10148.2954798097,9653.226691869104,9197.116994514108,9550.095742952317,10108.509374679254,9654.81366572543,8935.065142520089,8937.881462321457,9305.098271977697,8875.52009529115,8479.737756221028,8750.015050174601,9295.643484073102,9034.195129179374,8428.932241074115,8277.655634600596,9061.285443459206,9004.981399176288,8151.971775528405,7731.848386746453,8022.4881198988105,8341.402809787132,8112.99033319835,7870.183333180348,8197.368168517134,8417.734017102006,8284.584675381742,8321.420350244087,8889.42288034235,9292.98362648292,9021.678152284403,8876.816496469557,9173.804125047222,9631.590203236367,9420.545032089358,9213.433767966482,9519.496204793002,10190.048538452213,10123.19447078639,9881.57211322452,10124.58027894262,10958.188588403296,10992.163239975363,10522.441330247084,10517.143966811176,11102.446747117847,11276.075098046673,10914.736797182179,10686.570189782404,11096.7694040262,11275.069269546184,10733.17357697172,10348.924738040536,10712.721730795114,10974.035975222108,10489.07017577531,10007.12186182998,10085.867057546027,10138.639526205006,9459.593529652779,8625.985220192102,8077.942797892428,7647.157627005295,6598.011445762092,5093.090843330722,3365.0774794909335,1961.7679073533902,341.33348957699417,-1378.901467192348,-2417.0058866746294,-2682.254038125758,-2701.767111035241,-2746.6494139014976,-2598.636162118454,-2277.9333326737087,-2080.8803535557217,-2092.8161850948554,-1992.7921286573564,-1793.8839547495788,-1880.720481958447,-1850.813847877246,-1680.5606103611722,-1322.5750711649741,-938.1697700226033,-753.5220090773117,-581.0559488601624,-211.04517114700928,269.71850034219034,500.43320660986984,662.7962783332204,901.7364265604529,1153.0370894714702,1230.329421797922,1255.9445209437038,1297.4070069082984,1365.1774960967894,1239.650099235785,1081.623265936764,996.7313404955079,997.2007271290693,992.6409712601867,929.8772728296844,869.214638377981,965.6847674470863,1025.8556635207729,953.0560318298378,1064.0324430504375,1283.392463134821,1416.9441362552807,1443.5874156460065,1508.027494910657,1633.6666504939378,1780.4505563319394,1800.790643786269,1798.913097252023,1979.3363784952617,2167.8733429757767,2254.35224227336,2157.055098659408,2191.700302565134,2393.76007244111,2542.5332835356335,2556.614882542477,2632.9907933462614,2915.9191746615384,3177.971026655558,3269.07673705539,3479.2278384241868,3829.3232118276615,4131.474093374502,4214.555527514878,4264.265807183481,4558.99590957116,4828.334430257611,4887.007759452791,4902.385759638043,4959.606225443629,5068.213351751966,5110.72636970596,5030.036572222301,5098.745834677915,5257.532627288417,5298.346912663807,5285.941694491112,5391.129003897787,5472.802278137479,5544.596081327925,5476.110336316864,5517.349304836906,5617.842747907966,5640.105085385452,5534.694258534224,5546.786552284545,5690.93295227682,5832.330087701093,5842.701297128356,5884.342597048592,5999.543487971246,6106.183660767515,5989.664016921999,5877.3465010340815,5945.362859411581,6071.493753372879,6008.99827587584,5879.11228884605,5949.296766435715,6055.19933166496,6057.4345061104905,5997.151851314527,6077.931055776007,6218.724694099987,6229.632345394176,6171.31664411028,6289.736186234497,6745.935290567314,7053.115314616599,6985.702453339392,6986.95415102889,7096.701216304447,7132.620469644126,7023.231032279853,6972.1349444550215,7055.976337906878,7133.2016149999645,7001.572191902661,6912.992228626279,7066.414602567506,7312.3508468092505,7419.683923683635,7386.826859334334,7565.640814976789,7938.691429935865,8227.878299698628,8492.00886392699,8826.905051100857,9117.678894719946,9218.10528255764,9183.951817029932,9268.799038982277,9449.579948136801,9522.156062383183,9445.467227157025,9473.295149003881,9609.886659370262,9626.292839800459,9574.660310108698,9605.930400601674,9635.188834093671,9624.95173513314,9519.02681815944,9398.997950434441,9435.028962496395,9512.298943078393,9685.100279462371,9769.969853159173,9783.760879488096,9936.423294117843,10080.99437725477,10053.65819378593,10100.261580975244,10173.463544066375,10099.52397340822,9932.087055693515,9858.639223413376,9836.46629291371,9752.759009928586,9583.265731723992,9431.698552572556,9365.447982007025,9300.806737042278,9142.958717698899,9091.326188007139,9241.01582062433,9355.52380746887,9430.290392671872,9535.79062650092,9755.821198918962,9966.441686921322,10117.986514328304,10263.049335843247,10466.15963770862,10616.028084281455,10627.740398376036,10593.81045029288,10592.916380514667,10590.90472351369,10497.005045056945,10299.929714194503,10171.317776598666,10076.836952786083,9977.461096937788,9800.189411662748,9712.928201309229,10062.88946424597,10484.152791995144,10640.480892715561,10758.878083095322,10909.864116890922,10987.514077128659,11012.525679174147,11109.666360576912,11706.882620678261,12108.141137139934,12347.416561533995,12079.374442025954,11753.508359612031,11578.449497038067,11214.406635094481,10702.596390556859,10358.513636411863,10938.02731490461,12375.289186869764,11958.138580100367,11522.637191133164,11430.235079554926,11254.304498947204,10883.377299711383,10614.016427280478,10695.041500930965,10982.060251481564,10870.793267583045,10477.335509936274,10265.217455055412,10190.249704152311,9894.536125008599,9444.193177723071,9107.575906226148,9055.451638156372,8893.535601322128,8609.243763595077,8566.753097385537,8783.363852901919,8874.84954295749,8636.0882086859,8524.932983509658,8649.208682681166,8716.912116636291,8437.470607456042,8177.251598507357,8192.920171370528,8259.997756480903,8020.230593708825,7753.328413168003,7693.939828150253,7677.555999464513,7316.910602678133,6865.204198980832,6660.730440703684,6603.420567920276,6303.81778524134,5849.295061742671,5543.657308060802,5492.94119989171,5207.755292386448,4609.332038084512,4271.79834506492,4192.472003993035,3979.683396778512,3386.1998780011986,2957.3369571372223,3006.1755187720682,3225.2896696674434,3263.1088212858226,2943.3671168526553,2945.4234773425433,3256.8279810938816,2942.763619752362,2333.633879856334,2246.1044485693515,2661.9139506714287,2492.688893400299,1895.204412365486,1806.333876411185,2498.746216147687,2603.866470320996,1912.0799794292427,1544.3043761616202,2307.459987099169,2677.2472473677694,1922.2053196674967,1391.6643132763284,2097.577106663836,2759.792239641218,2165.4593545746034,1570.9700072968017,2199.5010613800364,3170.9302271521365,2776.6231032160645,2066.7316993155123,2430.1040089254393,3490.7389868186697,3264.9640160756135,2373.7329094091547,2409.9203836822967,3488.7273298176924,3451.6010822774274,2477.556762404056,2221.2716604795055,3215.656067807206,3381.461308176674,2421.118607654406,1918.6290405546476,2851.2108744634243,3390.558468169984,2536.6100712549774,1895.1150053876647,2700.2695441567357,3549.6581852028594,2887.130127803103,2056.516952099437,2609.655572134921,3698.1631753639194,3346.8608077598583,2601.161909241904,2969.473954376454,4143.0970004912615,4063.703604186011,3418.0734655944666,3520.489158688684,4576.698491179764,4697.576725194064,4163.01240480094,4162.654776889655,5461.55935067646,5985.148964542028,5518.131615892842,5278.386804865218,6462.895150529761,7208.884621725634,6680.981121180192,6209.024037006383,7171.691318952003,8210.734511701407,7806.078530082528,7215.388979362128,8003.042102222694,9352.439266734036,9158.023793461776,8437.67177315614,8751.847893219936,10063.13533343498,9919.234802631712,8981.959102387322,8823.105254543454,10041.923527946894,9989.620445921475,8884.66195877337,8369.297786867355,9307.914591779065,9484.560428209357,8556.292480980454,7193.439566307016,6920.860042674547,7371.627673104725,6648.816960909005,5945.6534320895,6535.1806920982235,7200.078034410243,6567.546018069508,5803.585744331568,6154.709297979987,6990.485726652829,6454.490894614565,5494.438766770216,5490.437804512716,6443.873815998294,6266.780944678896,5495.645760970803,5492.717682447157,6675.7061094887395,6879.844591599059,6096.3488932071805,5818.360247416526,6822.624125793473,7169.031461361821,6416.090597640347,5918.987800954318,6868.825181582592,7513.270677718006,6775.037261848124,6034.993354677362,6630.734399644662,7422.209670807085,6753.266662748655,5775.33313934006,5923.972239967852,6744.1918544998,6209.113443984204,5118.236555842943,4879.497573315808,5534.269575389573,5004.399121332064,3756.233007458807,3112.100435745768,3578.2237146167417,3122.7622178509496,1767.531248036772,1081.5785624478535,1705.8627850845796,1657.1359821720102,426.42658071834813,-611.8566527195755,-379.08558596200777,-253.37937514536085,-1195.6618661477407,-1841.3143564837405,-1303.0172947665806,-717.8933284155522,-1664.243836908798,-3033.8246266632827,-3286.1534698192445,-2758.7193559073635,-3703.572297522104,-5316.451825672606,-5900.681722245422,-5188.26457122142,-5676.136097447407,-7147.573786684727,-7872.820839026075,-7064.626463011082,-7215.813662506779,-8664.340813677409,-9521.776082727443,-8439.884595857215,-7805.16210855986,-8834.906975615857,-9956.383401916433,-9373.628720477667,-8920.268287690675,-10412.850727182715,-12190.283798013186,-12306.825793603159,-11968.956824416737,-13445.84833930115,-15280.770096870674,-15552.254385024833,-14708.051348692341,-15345.031362179681,-16693.266235979347,-16784.41664986809,-15473.576244542151,-15435.488871990308,-16452.046209817676,-16623.86406944562,-15054.682201705242,-14411.153127092497,-15154.080409297992,-15420.982589838815,-13940.71596154165,-13038.420741369813,-13886.825905659904,-14502.705872381435,-13158.091981183528,-11898.817050315984,-12534.09833122472,-13265.067430146628,-12181.41015546443,-10613.949372047111,-11079.446802073337,-12156.711477841316,-11806.884325371306,-10477.581379125284,-11073.14361013694,-12641.230242399008,-13054.759866566643,-12088.270436319166,-12692.706309879579,-14060.074276932988,-14044.584518025462,-12256.534368578717,-11686.319015779378,-12715.683903179635,-13212.540830676655,-11596.91203795815,-10573.202141905087,-11459.515864791378,-12236.954240435869,-10985.480068383225,-9689.615331842344,-10527.269307049432,-11507.415653159102,-9916.15026189688,-7029.668334682982,-6777.451250249297,-7708.513165535112,-6819.092550169534,-4114.173843166094,-4047.5656446892795,-6125.674381932543,-6750.539749925108,-4682.444594197821,-4433.759085388075,-6272.100659859259,-7108.078254232199,-4783.697996580362,-3715.172852894408,-5118.705942476505,-5953.99063277133,-3693.625771239492,-1691.8929448000129,-2256.0956783408737,-3106.7583688209497,-1343.608062697418,780.478212890412,-20.205976987597584,-1729.622689440571,-1236.4985032675868,382.10307146347424,-537.2465297277605,-2352.2305312431495,-2641.9538428728397,-1720.9055091030014,-2243.757515401544,-3903.5980586526466,-4388.29563716598,-2739.4745039313443,-1982.4209192300941,-2496.4886899577014,-2498.299181258581,-844.7394781994199,-425.5995661735018,-1697.3244187026523,-2519.2874693021145,-1495.1081866154893,-612.7283707533325,-1055.8740563242504,-1531.4074196109082,-810.3848469716129,-66.07175660988767,-539.0346692841852,-1185.6929881206738,-820.7337046544201,-66.00470137652175,-286.3705499613941,-629.2239581613492,-67.43521302166141,1128.9419089486491,1349.93360637827,1119.5094727885096,1510.955573434302,2610.750807613231,2793.2080976019024,2292.0596351694626,2180.6808925486675,2994.4855564219424,3203.96610545708,2651.967424388817,2293.758367748066,2832.435409120966,3194.176041385656,2786.0331876317487,2504.40120749488,3067.0840224127796,3642.574386903571,3354.750973552582,3012.232841519456,3318.585851023895,3893.7632910923116,3700.3759980649947,3141.6270901712287,3028.2813940383667,3391.229020503643,3109.7087990890504,2496.421634724335,2356.700880134211,2781.4734317628663,2726.555195636177,2363.4511069597133,2401.538479511557,3023.1181410691906,3076.2258858950004,2535.3360218210246,2194.3601601553155,2416.1341686408723,2327.2859844310265,1562.1410682369553,856.6976614830091,703.4093980085132,579.3348645371037,-52.437192492150366,-604.8605567050644,-617.712809766866,-479.6013807775236,-851.7579259583862,-1248.6355005068185,-1165.2187901996124,-847.8463706787074,-1050.755506843985,-1216.270174535534,-945.7917148818631,-768.0059394843506,-1189.3810259557995,-1518.7116287602937,-1586.6385801599718,-1152.075964459892,-753.3655468661245,-728.2645378428147,-527.1211894895065,24.81043634539084,338.338355819983,304.1848902922738,397.883403048921,815.4586929629676,1222.5510147274751,1441.866331322948,1720.3243637471635,2203.4796718930806,2612.7401128697534,2589.2484294472256,2556.7266412647537,2798.1478331265253,3078.304598129344,2811.4918245663434,2479.009625793651,2682.7904799926855,3350.0571072169673,3392.6371804043274,3119.8341393273045,2996.4525099340094,3229.6706115806833,3192.4102535736865,2932.0347824138144,2958.722765293451,3412.083198080444,3578.380176827929,3238.521902384985,2961.2932159058114,3142.6329186717176,3313.0202666545233,2898.19424130848,2461.6646720963327,2584.263990433692,2852.306109941734,2464.458640153246,1841.359059972651,1509.2791926001541,1473.5834567050288,787.4072536715572,-166.20757176966333,-647.1053537255948,-400.1856327278177,-723.4365610404684,-1682.5052121287838,-2231.6875733956786,-1893.8633076981673,-1942.6795175885582,-2656.281311068691,-3095.2919239153775,-2649.396973776457,-2481.557724661556,-3322.0727231589226,-4156.955082053552,-3773.6450163894915,-3129.8253690988267,-4071.3479007897263,-5099.237573055932,-4640.803294277584,-3050.0296413933806,-3060.758478731928,-3981.9856264574087,-3920.4736257164036,-2125.025048854953,-1698.7102268588815,-2598.7032173518205,-2870.165153761525,-1131.4900078165542,-354.3869083388935,-1031.3318409123233,-1396.2911243785768,257.76031705860106,1569.6512543739384,1284.7559195465947,1003.3251051098234,2605.6322581329655,4399.292695437992,4331.298688804947,3922.5970414396575,5105.853689414703,7046.2086255799095,7144.5339494388045,6426.0594756674145,6922.089388619589,8603.722882714615,8611.098958384868,7671.990415095141,7713.877584204386,9370.700641954023,9815.075673469983,9082.206676269374,8928.918412794877,10607.087386499332,11514.344693940246,10944.755189985657,10605.76863357647,12032.659296114361,13123.35737029998,12550.616270377192,11786.991272806083,12765.10361017032,14006.430090240252,13527.186337374013,12598.91839014511,13248.124807849505,14724.457529122536,14477.24723544684,13534.718875255452,13816.149689692224,15371.831103781595,15398.675548872417,14431.493214546826,14317.722835269313,15795.284902487387,16035.543803637482,15032.576326438944,14472.821590044688,15617.923810234524,16008.431137613195,14890.620397403289,13952.294165169498,14836.752693265998,15491.792916273227,14385.493324457804,13112.516774239157,13547.168796917058,14347.003620505766,13424.65888555752,12045.891528831904,12217.41881578193,13220.922734847396,12531.282011423351,11109.129918709985,10876.112982763409,11975.192961119767,11583.590398262788,10107.48119443431,9397.47803181148,10407.48630851344,10329.434016875508,8916.624953344459,8018.2636401967575,8983.903704154933,9212.852622610644,7838.510911287179,6668.374737307398,7415.839423637322,8025.147977488992,6898.955333108346,5635.232405094195,6182.738385526942,7139.683620892003,6331.668058832653,5098.790538166826,5433.21733870713,6814.331628600554,6519.065084345947,5520.791473483023,5722.918298592365,7347.130161181708,7480.614779068802,6501.720130648629,6380.752489656507,7991.0839189391045,8484.252808600999,7595.525097313535,7242.702811086513,8762.956710214223,9641.581433007888,8924.805691815101,8375.064536936825,9694.577419111421,10869.273348960085,10310.949124210969,9608.14322330275,10600.135993973732,12017.303647673565,11637.726323333542,10729.17261471422,11330.188671372971,12902.566838570458,12734.213499333084,11704.021597387982,11806.325531759923,13313.749529570287,13298.237418918303,12145.513253869207,11832.588831494908,13246.29196480417,13534.920040955549,12399.920809259513,11759.2751096815,12996.6676827273,13577.254244953901,12471.80401942778,11493.669330319088,12369.723602500391,13151.498216569213,12074.591168712517,10744.394152688285,11172.631224707511,12097.34524456802,11167.624433949522,9695.091509233895,9701.305294192469,10773.585530946915,10121.428682974421,8633.495406329084,8320.191004299046,9482.392308997192,9173.401793647026,7651.605624151901,7002.935648314435,8091.644417243531,8131.028190973782,6717.123891964423,5763.687880478845,6673.739155976672,7044.0405063677445,5745.046525603119,4578.978369114205,5328.745285123025,6127.082541833227,5093.560229964284,3842.6895550119348,4296.720540132587,5361.244721561042,4588.790784930085,3305.219507839621,3556.028432372622,4990.161060114034,4730.679658732374,3565.863199932957,3555.246121316686,5137.794332241337,5275.883409486224,4182.301960265871,3949.7320592084006,5574.502715409126,6219.372894689191,5272.642406540204,4791.342293184077,6265.283377800391,7260.338337461751,6431.245080381046,5664.781411264112,6868.713422860315,8136.392609643056,7496.506869376525,6602.101814997413,7445.56724376288,8978.718099441303,8579.69475742516,7527.352276724849,7973.828372219607,9713.73286410962,9636.149959105249,8428.529909673918,8290.239666728934,9798.289513384047,9953.008288503683,8777.552399343538,8446.612470938262,10028.847757440539,10606.997979521511,9427.921107759608,8682.110450519378,9947.15213145639,10746.22699573362,9626.963392134117,8469.232436327033,9195.15004100204,10068.186827681879,8912.556935853594,7449.5905577648355,7740.498511850657,8820.020713808623,7956.662232477932,6409.519184770487,6373.778745386451,7725.232270387683,7447.243624597028,6044.001107692851,5744.688897691834,7070.1026404026325,7037.066762097688,5725.689914904823,5314.395465182718,6862.007899523724,7509.24736371605,6397.69511195363,5637.35582081745,6854.408306408919,7724.114683164917,6680.332920590988,5634.226576593706,6599.039626007036,7853.419524838869,7092.633198813582,5990.871011122586,6703.779900524605,8337.491254507453,7990.592180561088,6855.92822503188,7186.5552290147825,8904.487956105228,8854.040068869599,7618.212117935672,7516.399921941748,9111.375702783549,9343.744438140922,8100.339245836645,7607.55033583049,9037.100855958564,9623.074188598894,8510.270239146977,7707.462633545713,8889.04290068661,9795.249676138124,8834.906975615857,7838.846187454008,8732.938317410746,9996.951818102816,9289.7426235369,8196.742319672385,8793.01980650661,10305.875278219615,9893.060909874548,8604.37108330382,8616.508080543052,9937.339715640512,9613.552345460934,8160.644252377064,7726.573375055001,9040.990059493788,9061.687774859402,7635.020629766063,6888.807641125637,8098.707568491408,8523.59187884234,7240.266470940885,6302.700198018575,7348.940652482588,8166.634519891086,7086.553524321738,5946.703964078899,6684.199772381756,7817.0979400989945,6976.158258456977,5695.537411634614,6039.5307588017895,7339.061181433342,6736.90518580737,5323.805549598402,5267.61326403776,6669.8946559303595,6457.910711516227,5067.5427994183065,4704.617524697486,6151.065963633771,6346.174340984147,5044.073467740234,4396.118747725338,5732.641307430424,6282.985959408994,5070.761450619871,4134.357468409236,5215.019609334423,6156.877417192151,5157.195646428543,4075.080642113762,4846.662860710962,6090.5374396488005,5320.519843163472,4035.294536983316,4400.477337894123,5812.4817386247805,5355.902654636223,3989.004074216375,3973.9837019424085,5503.871202930356,5406.395245360762,4089.832793454265,3774.852010590078,5323.470273431572,5625.0623613670305,4369.453116590156,3726.7734082667125,5103.037369613334,5758.211703087295,4603.095901381481,3680.1253175884867,4727.304545319623,5664.1555624193625,4645.877140268939,3470.6224168088934,4125.595584582757,5299.688017331126,4560.337014238478,3285.482917485585,3575.1391738819093,4908.912469018993,4502.490699588144,3218.8076637754043,3201.39565484472,4621.983125446216,4546.836560587473,3294.9153536457247,2927.251509100379,4331.186930082671,4557.766563626118,3334.254423887065,2618.0821797945714,3847.9422149589323,4447.728925672642,3335.5955285543837,2389.267371805593,3362.28351143402,4283.354196948314,3312.059141642945,2161.9724824395757,2787.061367876693,3959.0080331573527,3234.1633122162,1985.7513291539346,2267.5174197575357,3523.283126745597,3068.760403246928,1748.755782694314,1595.5792779420947,2957.985157726426,2822.1983101604355,1496.9857331497353,1023.4416751195998,2340.8534933153983,2576.910266507896,1346.64789994334,579.6030854705674,1761.3398148226518,2370.2907407630373,1257.8667709668603,258.5873316034474,1165.107031477336,2041.2954141253729,1092.6426759532305,-97.72182675860248,430.1146185534738,1559.503562391229,836.8046089177858,-446.94548212832,-285.96821856119857,996.597230028776,575.5797714686122,-757.2323986568927,-959.470982488511,374.1458504373849,298.3957884783493,-996.7536922399631,-1520.4774165722629,-252.95469200071003,27.15736951319808,-1174.2041914706458,-1986.3101227653174,-913.7840168218634,-374.25760915966146,-1460.8876658544143,-2485.648093896877,-1690.6635988549708,-801.3994457005795,-1678.0348632377224,-2817.504443824821,-2318.144120948806,-1113.496853530032,-1673.273941668742,-2856.7541070883403,-2673.0227676657164,-1338.9812515951696,-1566.700824105838,-2752.3044052486903,-2890.080558071203,-1488.6038289789951,-1418.1511304558671,-2591.9306387818624,-3081.500897586453,-1720.503177702806,-1318.708219374206,-2394.2518108191266,-3093.7049500590506,-1924.909880746589,-1160.077888974892,-2082.489679156504,-3010.5788124297637,-2118.7442086630117,-1071.4755739540547,-1795.269762905808,-2878.323540487712,-2321.6756965727445,-1018.3901808727004,-1486.0780818555454,-2607.1521767559266,-2397.470462020691,-981.3756920547119,-1125.298574602434,-2250.127762571307,-2367.4520692172136,-946.1716945376032,-731.2596715998259,-1716.6363259120378,-1966.3500149667282,-361.94179796478727,477.5003167987248,110.01528620902137,88.24468710955229,1392.6254382879065,2287.8798589563203,2064.0494899808755,1927.457979614494,2743.2966522332017,3471.4270796092846,3206.268335135977,2910.1747763365242,3301.933801404691,3873.870238527088,3615.9087557683893,3207.9223642256698,3455.356175345919,4132.502273619446,4059.389717506137,3572.903999436379,3634.818331577579,4211.985076902518,4099.354636592226,3503.0547980135443,3211.6774572941613,3642.7532008592134,3689.0883671150646,3169.745584696005,2872.0427002957704,3254.3469374593424,3482.40178613684,3134.0274970564246,2830.3343451421674,3147.8408751298043,3545.836036901002,3289.305065787443,2935.72282024894,3110.0664270003354,3441.6545559948154,3199.3392943548315,2807.2449931198353,2942.6742127745406,3837.9286334429544,3886.00723576632,3593.8699357354567,3636.8076368341017,4046.2021882775057,4098.974656936486,3867.2094186794066,3825.7469327148124,4145.443933659069,4263.327033916358,4074.477145013469,4068.196304821528,4445.1584750602815,4790.492926894775,4849.993270634803,4758.149952667946,4688.5242686896645,4628.174558660336,4444.5102744710775,4380.159602184249,4470.304187572502,4472.718175973675,4238.0695626818615,3871.7915262927445,3417.4252650052626,3098.555278605852,2754.6289866720426,2429.0981804249504,2169.5944272988354,1886.2860663278184,1414.0384094760907,853.5684172592661,612.9518881978855,589.8401844310981,593.908201921964,574.9762743683189,602.35716132607,664.5620661451895,726.0070116528287,768.6764918180099,877.3953768486234,1010.8129395023512,1069.5086204419877,1043.178265473636,1134.2839758734674,1262.001843691092,1296.1329574743459,1179.8815345622938,1110.948754662127,1100.8904696572388,998.2512591184687,829.6520506920875,648.2676444372707,538.6323378839896,396.0282082591305,210.1063978798864,257.1344682138525,1146.7338975350735,1409.188080929289,1141.1236096767914,849.8133241907746,664.0926795116281,442.60924370399044,137.08324874439822,-299.8039483790336,-704.191709064449,-1027.7779135439293,-1566.6114171280167,-2375.18577279875,-3252.7599636030154,-4285.455260927112,-5517.416360070272,-6611.176623246268,-7616.513385357069,-8808.531917158594,-10061.727173534295,-11374.087497483195,-12648.785132024901,-13818.027236226468,-14883.110211266305,-15843.788187955402,-16528.8021002772,-16665.505369365856,-16373.680993757367,-15607.440842084987,-14757.247538238471,-14011.43688099824,-13155.74504801572,-12780.883941755765,-12759.985060690053,-12937.837891320933,-13368.041916852228,-14195.861124498979,-15363.940937988871,-16664.365430398637,-18059.226043132072,-19498.946606987312,-20996.602892470706,-22385.540292923488,-23591.752182454133,-24566.1988337277,-25421.577742287845,-26229.794470047294,-26935.193173312327,-27699.86870287284,-28720.67287214671,-30025.366547747442,-31282.026324513714,-32467.831071356664,-33772.949430102046,-35105.60513801636,-36304.284489665566,-37606.6759355874,-38941.63387318062,-40189.37530390922,-41135.56935019128,-41966.78602299524,-42898.71965631481,-44131.93245314747,-45569.97663616856,-46951.403850484356,-48021.426561048815,-48524.94430839352,-48750.451058203114,-48952.44377284572,-49325.47203606034,-49756.726593581036,-50288.22872498378,-51205.030227307114,-52342.21992995977,-53284.0777378175,-54391.29375115559,-55492.295979535105,-56906.08851982219,-58479.74073645363,-59876.590654443586,-61040.7589126538,-62317.64701815212,-63499.31669227084,-64231.649247604524,-64263.70164915343,-63444.77843579989,-62397.1298214352,-61608.26970437404,-60189.850352984715,-58894.67852052194,-57868.80050525672,-57072.96664392551,-56437.059514172026,-56024.580421993785,-55969.57277888928,-56514.95534359877,-57840.54790026521,-59466.59260589989,-61033.47224396137,-62656.76768502804,-64578.23539712851,-66401.28837839227,-68374.52273065124,-70299.90199803139,-71038.20246913463,-71204.70061358222,-71227.3652824599,-71292.81119022504,-72230.86920152536,-75500.81765661451,-80428.37148050923,-85956.31551221795,-91199.90065096626,-96198.77889141785,-101105.29972378013,-105623.30253402026,-111124.60328633826,-113480.94653856118,-113254.21044280654,-113453.34213415887,-112685.31384293007,-110326.13191916131,-107243.26756516309,-103718.06218839434,-100717.89928888074,-97977.88834308248,-95519.82230184345,-93938.43638163047,-93825.62712736454,-91581.71314975181,-88145.19949498172,-84768.4097013962,-80777.8633568124,-75900.80212364222,-71611.0553277797,-68786.75595364046,-66590.63000567317,-64749.785035823,-62932.36469416198,-61256.877929792165,-59719.368483944956,-57244.31511691989,-53703.329408565696,-49272.05136681216,-45154.033023599746,-42360.91433297567,-40240.471391734056,-38374.34659890492,-37420.75412520816,-36763.90341090005,-36590.29741171568,-36884.111092580686,-37761.43941419595,-39343.518238487035,-40689.36147562999,-41590.94143997925,-42270.50152665395,-42320.681192956115,-40922.356059832106,-38066.7865951999,-34549.24786677931,-30947.912448395786,-27230.39266233357,-23390.452371889638,-19858.094436895186,-16971.27723351446,-14693.947397941041,-12776.748869031533,-11484.348652881225,-10634.937660090645,-10558.382935331218,-10968.604501319469,-12102.888477192937,-12250.409990597964,-11403.390634464102,-10548.145836370688,-9661.608596039843,-8947.112732781497,-8709.223116543664,-8967.653985935925,-9136.543767040226,-9268.866094215644,-9498.284399304915,-10094.47247916132,-10418.617477252183,-10065.303452647144,-9200.872087582598,-8319.699265921028,-7535.041276817475,-6698.0131504551355,-5534.448389345216,-5097.337674777231,-5257.398516821685,-6320.045151715894,-8217.90942167156,-9266.02742266982,-10210.478032884364,-11149.363058729537,-11935.630373433874,-12613.78230020789,-13243.408589769435,-13316.051759249183,-12892.195629143194,-12018.153013962867,-10858.522159877082,-9540.529196325446,-8134.7162288089075,-6994.844316821614,-6283.164773364637,-5915.478577074836,-5732.1272173079515,-5832.2630324677275,-5572.96044504171,-4522.249641686635,-3224.8873382672477,-1870.5057347423715,435.5460924561134,3257.811457849915,4776.836011032583,5344.1232853082765,6232.694534384553,7247.933119289055,8695.990883826124,10940.463655050238,12514.272333892863,13958.887929783814,16020.635190085792,18919.254114538922,22010.522724452345,24619.284226809054,26131.938532821958,27154.329675952158,28261.903317201533,29178.078970680115,30533.689920150035,31975.04216135051,33007.40218250778,34258.02698827112,35213.78758118005,36139.28391209649,36857.95955156798,37524.60032994751,37884.61987788914,37845.41491811453,37470.374997898936,37069.161184926175,36597.271155985734,36082.532832924466,34888.59205109978,33296.92432843737,31559.523231926352,29773.484739480587,27618.396594333244,25030.846897464624,22254.112035526283,19862.74359974189,18672.40144877451,17361.449284726295,15788.311158217331,14457.532996837259,13501.034796361304,12671.718021836046,11830.845395427394,10742.896585809778,11236.244289427315,12377.837285737669,12482.286987577318,11873.82780001495,10085.643540101473,8548.245852976544,7636.495844900113,7127.8595480751455,6915.965010638834,6616.1834140042565,5875.111326588551,4794.1809647299015,3867.1200117015856,3234.587995360851,2478.9425705602853,1538.1352946919556,924.5352059048661,70.87738166777869,-862.1961906190146,-725.448218041446,-303.11200655841907,99.50996631502704,142.02298426902107,-130.28831842998486,-476.06980515358515,-692.3899879920468,-1364.7975164410493,-1907.9896101939214,-2428.606442046934,-3071.6661300261176,-3830.194929861418,-4661.433954409833,-5766.705365980311,-6994.397281932507,-8374.461039836531,-9939.172558685847,-11706.07795787787,-13002.143860118851,-14257.507235706717,-16090.640853719815,-17602.803421354703,-18931.346408289242,-20084.964643116553,-20882.765457959827,-21751.577764937614,-22335.450033599143,-22654.20826127628,-23153.166252752097,-23879.91087197195,-24549.233859686123,-25017.32409206916,-25515.56682772241,-26153.820890643703,-26632.684663854205,-26852.335256616505,-27213.04770863625,-27608.248902350537,-27944.441490702808,-28213.53414220025,-28477.284726772872,-28840.27705672706,-29201.905930269473,-29447.01515996637,-29803.972518917624,-30405.413258721026,-30971.538242285045,-31325.612226201563,-31609.524084272874,-31989.41433303527,-32340.090851794586,-32393.51152104277,-32331.64189239048,-32426.055660969698,-32451.38018743756,-32234.90354238791,-31819.87635134177,-31652.55119234934,-31408.939529530948,-30931.059233076485,-30394.505607426836,-30227.49337285678,-30244.301884687175,-29614.072098025335,-28649.080234656365,-27808.609939647908,-27114.811791755175,-26314.462878043996,-25527.189734839172,-24804.691947065825,-24188.07437277727,-23533.168260236773,-22674.436590008332,-21628.88903962243,-20660.589118074076,-19766.407581139516,-18760.422618439512,-17491.849361878558,-16314.001836061698,-15568.369992777109,-14683.307967580316,-13539.882128224628,-12255.99792671179,-11509.293199693348,-11155.241567521283,-10547.721153226037,-9043.493454872782,-7981.785593245697,-7715.330447593981,-7416.241755037518,-5820.461311395325,-4450.92522512975,-4076.8464299257316,-3766.8053825861675,-2332.0692577444624,-649.0723072376618,-268.73502358615684,-236.23558714814035,780.6346751015992,2313.718475546655,2606.5710314000885,2391.7707671845874,2964.377756640644,4489.727853504164,4922.144701736534,4707.947934621327,5037.323240914731,6520.115616335347,7106.826556542702,6891.623960927005,7001.326322713652,8466.282006058933,9372.779354188366,9192.512535156315,9076.88696108901,10393.136488573133,11614.34639863329,11591.01117742195,11439.421646526056,12575.605520678226,14009.782851908549,14097.714614595727,13799.29647437292,14612.788213823822,16218.582238981991,16475.31437579565,16116.255952865597,16637.81155798573,18290.745412200144,18751.66073461303,18339.6286773239,18530.065540083117,20077.365050001747,20750.68899997342,20313.846506338898,20213.19660105665,21601.642263131413,22419.134964839814,21966.82506404222,21544.779425237113,22575.731286493694,23472.25975659606,22968.45143657344,22254.84964309331,22817.957141155857,23749.533146564147,23206.989253400476,22147.829490641296,22172.706982220054,23004.728317824403,22428.746214955594,21107.71341415804,20584.704945648307,21282.682869754182,20750.934869162425,19209.51386803554,18294.656967479823,18655.74939915531,18076.794514273945,16308.458603436782,14980.943796747184,14900.94690334164,14449.195796155429,12777.330014387371,11113.600267601047,10883.489058433659,10692.40399508524,9161.28714815225,7399.366187973761,6954.968804713346,7008.5235844282615,5734.250633031205,4021.637621121123,3398.314523495975,3665.4178697368948,2634.778932902686,1021.1394454407032,258.02853799206474,1189.559839911442,2259.694309198178,2698.637866811498,3316.5741940229173,4680.902323830405,5188.21986773251,4471.578237006454,3724.314716376629,4034.378115460648,4340.61936624281,4231.45344632309,3874.6301978385686,4039.831941107743,3982.544420068791,3344.8938542477913,2823.4947113388434,2645.9548051303395,2450.5782068465005,1853.205484533964,1397.5204703236188,1372.5982752559514,1500.7408262182269,1096.3754172772667,929.5419966628548,945.5905491817653,1060.0538325373927,626.9217284824525,13.254584461997089,-192.82849941593403,-10.438264660628398,-55.92406462717827,-243.20933141819614,-177.94223760869951,266.4327939072602,491.8054332501213,447.77249667316636,543.907349575442,1005.9626109555496,1250.647157507796,1242.779343459528,1473.4940497272075,2043.6199955487248,2516.3146872895586,2546.26602485967,2765.223713543858,3196.2547536199995,3753.5060946352596,3735.401181626461,3637.7464101012242,3902.882802830077,4527.70346733373,4573.569246956021,4319.049932843439,4411.16147174376,5173.288902436364,5402.103710425343,5224.250879794465,5251.743525474492,6219.797577833841,6876.804754353137,6915.182699582899,7024.885061369546,7785.783146117109,8416.28115371241,8476.58616025283,8666.1960084672,9246.670811971524,9934.478692350232,10288.396214055565,10720.656600076747,11372.656985838055,12132.661000807406,12646.684068046103,13139.428274563346,13855.913443078214,14714.57805807329,15130.700484597743,15611.03947294229,16336.867670639476,17114.797784661983,17516.2351150793,17707.56604761673,18068.8149415034,18795.91718863454,19303.100622069913,19663.723667111833,19834.53569823929,20243.95260142715,20616.779698941675,20845.818024375203,21219.092156778832,21891.09735382764,22641.691284381304,23059.31127778426,23428.942075841675,24002.4654868204,24749.617248727947,25055.880851254566,25227.028158548852,25631.3488640009,26273.96151709098,26326.73398574996,26161.442835502963,26045.77255794675,26518.82487759887,26352.41614012911,25598.4917996516,24986.635146932025,25027.360025329595,24814.213790203787,24077.4332377235,23381.6681363187,23234.92893396961,23142.370360180183,22531.005445838626,21889.778600904778,21605.218542244264,21561.230309156217,21031.605724287718,20334.566573448967,20028.280619177895,20081.500122725978,19644.009428502253,19001.016795756437,18645.132320539036,18971.64660354216,18910.55928594581,18446.805291987097,18225.187745712727,18906.200695777025,19184.345803778866,18566.72240098982,17796.593045782214,17875.718221154002,18325.39061610587,18085.48934286706,17600.590598653627,17287.934397212794,16832.159976024624,15895.197200202609,14763.774247619422,13898.22529533211,13389.007853151305,12638.54803306437,11807.443118982688,11238.658277828488,10929.421893289316,10267.005594611835,9389.677272996578,8656.294185673498,8332.238594560456,7728.4062181003355,6830.693105541838,6034.09928489915,5697.683179102323,5261.667700012648,4613.869442208939,4040.0778102967515,3875.166639705496,3642.4849799257495,3040.798370933339,2424.359610600425,2179.093918692341,2037.4285623346047,1416.832377533004,692.255877525315,320.61342246692453,252.1947326892296,-262.85651479441105,-959.403927255145,-1474.0528433385903,-1475.1927823058109,-1993.261515290918,-2879.8434591106725,-3390.0443780475116,-2957.739288537418,-2806.1944611304357,-3170.5725992408516,-3328.264156373043,-2451.338166157981,-1882.1509936035866,-2461.530561629601,-3507.0334085265886,-3692.798756694646,-4051.007813335397,-5662.143905418385,-7124.752655595858,-7345.029097202909,-6853.804809308625,-7061.519570531795,-7651.069182284973,-7869.177504679859,-7763.409049917347,-8207.225287821924,-8738.570957013484,-8736.335782567952,-7995.755433530264,-7641.614394380378,-7675.611397696901,-7812.8734603969415,-7175.044080620299,-7106.535983864783,-7332.333306352295,-7346.7501815259675,-6665.513714017119,-6182.358405871201,-6213.494385897445,-6083.116660489638,-5278.118583931754,-4322.715618934109,-3750.823885300623,-3233.0457249934348,-2464.2574744531485,-1551.3675274094974,-879.5187925718776,-154.87523733082264,871.4721645679671,2167.091031919841,3258.1690857611998,4320.234575299571,5534.090761433931,6788.2024393323,7821.948268645796,8835.443417482784,10035.642687754953,11541.122083797703,12816.57967765089,14278.651985961436,16036.169652482231,18242.957382554698,20758.646220999508,23701.02986109613,27484.86727295724,32494.384943769568,39817.1964069839,50098.015379669116,62564.1197042608,74929.10473693666,85247.13936413996,92611.56977553008,97612.48202472711,100963.29909125557,102113.27399173666,102617.26112571493,103159.89442585642,103437.57014722469,103767.25837794047,104181.9949963087,103846.07062888988,102631.2309659995,101120.78948268766,99995.44620459632,99459.09374464676,98851.21570244024,97528.66298301972,96163.97722530094,95236.69275482808,93918.40921859852,92234.45114308014,90302.8133872525,88510.98579299281,86784.22412684251,84994.6093552839,83330.90196024203,83144.48841148477,85118.1921503773,88503.36384813355,92035.18534126108,95456.2315888681,98642.91979586122,101201.45692842687,103052.31547979302,104815.2869719609,107114.25329616707,110588.67550953335,115013.15862097248,119985.3712302889,125087.8274545464,129799.50813049175,132983.96116303935,135068.35074047456,137741.55232209593,140964.09272719536,143611.32158175966,145758.0501744807,148393.4773079726,151059.5039796238,152838.94870745525,153211.17230786948,152981.23991265774,152555.77445695098,151629.9428498677,150083.55976147173,149281.95915007105,149395.1707357372,149835.1648253399,149823.69838043433,150137.7850935203,151136.03635263877,152337.84494851172,153112.4446526104,154215.0562065907,155900.288331543,157653.98384976195,158723.04543531482,159478.132066504,160631.8173565647,161898.64717705813,162629.95155214687,163108.7035666351,164361.40708463278,166179.54268211636,167856.3258476646,169229.0805851317,171372.1434917621,174162.57997305156,176829.1430865697,178756.08697606172,180977.24687781895,183527.89384459186,185744.5386939691,-187848.1284198914,-187500.04470348894,-187500.04470348894,-187500.04470348894,-187500.04470348894,-187500.04470348894,-187500.04470348894,-187500.04470348894,-187500.04470348894,-187500.04470348894,-187500.04470348894,-187500.04470348894,-187500.04470348894,-187500.04470348894,-187500.04470348894,-187500.04470348894,-187500.04470348894,-187500.04470348894,-187500.04470348894,-187500.04470348894,-187500.04470348894,-187500.04470348894,-187500.04470348894,-187500.04470348894,183811.76099917424,179658.69512065593,179572.05975914715,180847.5397047448,182060.27830365638,181614.24924305073,180337.78582069706,179709.59004278065,180785.08893073667,185014.68718226996,-187500.04470348894,-187500.04470348894,-187500.04470348894,-187500.04470348894,-187500.04470348894,-187500.04470348894,-187500.04470348894,-187500.04470348894,-187500.04470348894,-187500.04470348894,-187500.04470348894,-187500.04470348894,-187500.04470348894,-187500.04470348894,-187500.04470348894,-187500.04470348894,-187500.04470348894,-187500.04470348894,-187500.04470348894,-187500.04470348894,-187500.04470348894,-187500.04470348894,-187500.04470348894,-187500.04470348894,-187500.04470348894,-187500.04470348894,-187500.04470348894,-187500.04470348894,-187500.04470348894,-187500.04470348894,-187500.04470348894,-187500.04470348894,-187500.04470348894,-187500.04470348894,-187500.04470348894,-187500.04470348894,-187500.04470348894,-187500.04470348894,-187500.04470348894,-187500.04470348894,-187500.04470348894,-187500.04470348894,-187500.04470348894,-187500.04470348894,-187500.04470348894,-187500.04470348894,-187500.04470348894,-187500.04470348894,-187500.04470348894,-187500.04470348894,-187500.04470348894,-187500.04470348894,-187500.04470348894,-187500.04470348894,-187500.04470348894,-187500.04470348894,-187500.04470348894,-187500.04470348894,-187500.04470348894,-187500.04470348894,-187500.04470348894,-187500.04470348894,-187500.04470348894,-187500.04470348894,-187500.04470348894,-187500.04470348894,-187500.04470348894,-187500.04470348894,-187500.04470348894,-187500.04470348894,-187500.04470348894,-187500.04470348894,-187500.04470348894,-187500.04470348894,-187500.04470348894,-187500.04470348894,-187500.04470348894,-187500.04470348894,-187500.04470348894,-187500.04470348894,-187500.04470348894,-187500.04470348894,-187500.04470348894,-187500.04470348894,-187500.04470348894,-187500.04470348894,-187500.04470348894,-187500.04470348894,-187500.04470348894,-187500.04470348894,-187500.04470348894,-187500.04470348894,-187500.04470348894,-187500.04470348894,-187500.04470348894,-187500.04470348894,-187500.04470348894,-187500.04470348894,-187500.04470348894,-187500.04470348894,-187500.04470348894,-187500.04470348894,-187500.04470348894,-187500.04470348894,-187500.04470348894,-187500.04470348894,-187500.04470348894,-187500.04470348894,-187500.04470348894,-187500.04470348894,-187500.04470348894,-187500.04470348894,-187500.04470348894,-187500.04470348894,-187500.04470348894,-187500.04470348894,-187500.04470348894,-187500.04470348894,-187500.04470348894,-187500.04470348894,-187500.04470348894,-187500.04470348894,-187500.04470348894,-187500.04470348894,-187500.04470348894,-187500.04470348894,-187500.04470348894,-187500.04470348894,-187500.04470348894,-187500.04470348894,-187500.04470348894,-187500.04470348894,-187500.04470348894,-187500.04470348894,-187500.04470348894,-187500.04470348894,-187500.04470348894,-187500.04470348894,-187500.04470348894,-187500.04470348894,-187500.04470348894,-187500.04470348894,-187500.04470348894,-187500.04470348894,-187500.04470348894,-187500.04470348894,-187500.04470348894,-187500.04470348894,-187500.04470348894,-187500.04470348894,-187500.04470348894,-187500.04470348894,-187500.04470348894,-187500.04470348894,-187500.04470348894,-187500.04470348894,-187500.04470348894,-187500.04470348894,-187500.04470348894,-187500.04470348894,-187500.04470348894,-187500.04470348894,-187500.04470348894,-187500.04470348894,-187500.04470348894,-187500.04470348894,-187500.04470348894,-187500.04470348894,-187500.04470348894,-187500.04470348894,-187500.04470348894,-187500.04470348894,-187500.04470348894,-187500.04470348894,-187500.04470348894,182504.00513458313,173989.1751395673,165950.59376366064,159373.52590245317,154028.91087876688,148061.97858595595,141834.1790836071,136229.81443760567,131969.63899965753,127232.76790771102,122151.12115754142,117539.86686943375,114386.23689249002,110693.5722462621,106356.23858645423,102249.35141198056,99646.6695841157,96841.19037880783,93312.00639152604,89814.53952962632,87673.77885267483,85721.35397450376,82896.02642011958,79940.25408509423,78210.60904390921,77039.44468968447,74879.14858807906,72408.54321820059,70824.43038516407,70152.51459509309,68532.14723255005,66419.683864079,64860.09089470994,64443.56613678529,63159.05608642771,61332.4268260511,59813.514031590705,59512.72660645564,58658.86761651846,56994.69083484302,55168.35214714434,54482.69003423334,53545.01200258875,51792.43407159258,49934.17709281172,49283.76368090674,48730.62506087125,46764.677377304724,44699.71146580118,43804.56880385504,42774.08632923202,39865.409119774,35651.680606803966,31419.31073895821,27557.08575929234,22939.30476180372,18495.442687921844,15381.66587134193,14039.577727267471,12679.27291146194,11404.955256575973,10727.295068179974,11279.60667367061,11369.639500336589,10869.832142571468,10342.487435637408,10605.656874854192,10211.908544529504,8450.881654129225,6160.006661415895,4694.6262949259635,3405.8247096329583,1428.5223398831297,-530.1163232465176,-1318.5070536741084,-1383.5506300390518,-1980.521020951393,-2655.521351757211,-2662.9644826608283,-1961.522038164382,-2080.165097733152,-2569.8247635155635,-2739.295689975702,-2055.488771854493,-2249.121934070818,-3164.1129450932676,-3373.325273194942,-2000.1682043276078,-1222.90864263876,-1426.7118485822498,-1739.3904017675402,-898.9424585035395,-60.57322747388214,229.8429882339225,556.5360851926905,1588.2032022718433,2336.3160891909706,1960.3150439637952,1376.5992375134513,1687.467299397862,2506.0328848401173,2296.2170596381497,1707.4721106853617,1771.3980998275401,2808.7202082538856,3016.367914243688,2829.484978852866,3256.492704927052,4861.012680651269,5620.748474687157,5609.617305948414,5661.495704829181,6840.7066870578155,7534.504834950547,7528.358105225338,7625.901118028298,9058.022088768732,10521.70372268006,10828.14613916232,10704.093957435365,11465.12615264966,12438.522271933827,12455.75546690887,12122.82623324707,12549.185758732052,13536.641125278607,13573.342689674222,13144.233899621237,13228.790548895664,14200.219714667764,14403.33001653314,14166.692097984804,14332.564393587638,15562.804408407737,16231.322733321516,16195.53759044857,16211.563791223025,17080.778429601007,17661.700267994438,17583.267996700764,17384.24806407071,17867.023392560888,17968.54501587689,17180.06487847148,15793.764983864427,14376.709088886868,11107.073558220096,6666.877170428893,5034.372810646631,4540.667479117808,3945.9322626509984,3862.2696831547837,4031.6064991481903,3769.4205366874385,2449.728840557199,1471.7729654041489,1267.8132972494718,1391.6196097874176,880.2564001389028,1085.4901177275322,2988.3611784411883,5279.862019999268,6305.7847387534075,7203.542554800815,8685.396156954308,9966.039355521127,10580.466458853061,10900.990474342165,11672.662099917186,12851.850730401366,13352.127474800049,13071.25545397466,13377.116725101081,14256.568462439593,14784.471962985035,14472.15103771103,14765.383573220202,15636.408702899063,16823.46514743151,17382.77284893666,17720.954742545455,18961.431856326086,20401.018309714593,20858.044428592257,21301.391279863274,22230.3968346592,23371.229871658074,24168.315430678776,25079.283127699273,26858.817262508546,28410.47536259596,29108.18506576837,29482.59913713922,30603.986156461975,32007.183969877242,33195.76033303265,34222.82299075401,36229.763773651575,38953.56970471975,41492.459653909165,43318.15014101865,45500.75328359047,47917.98268770966,50073.09318460145,53397.89282058392,59048.6373363301,64350.851100784676,66443.95785855745,67972.39249615581,72412.70064266928,80266.47779541943,88649.43249814898,95779.21429624729,102096.04079676162,108164.02532625501,114143.00520932737,119404.9858337624,123424.4329839269,127817.95892929542,132239.78218314436,135034.06316448012,135740.8923793903,135816.26246169358,135809.26636567907,134966.33737878053,133273.37155024667,132027.2617968633,131158.3600829077,130433.69417592218,129377.79776785348,129474.98315274516,130117.30523315731,131003.99893569935,130850.30834082466,130580.47808176019,130886.18289067542,131074.96572434495,130774.64768584343,131223.20249357255,133112.46134191292,136495.68843790155,142403.38860790594,151124.45814901093,164645.14012874843,175228.37820391398,179281.28591552807,179353.61616058543,178498.0807898141,178696.45252185495,178489.0283333097,175405.33696476664,172489.216624405,173271.147700685,175724.81044826633,177511.6536035125,179729.63955755706,182162.4928310505,184327.05811584688,185069.27014222983,185606.24845102412,-187788.56102091802,-187500.04470348894,-187500.04470348894,-187500.04470348894,-188022.65084059845,185866.04277682817,183990.26203039434,181163.6604265762,179056.69558724115,177899.7916459789,176882.1614244177,175638.84563909122,175339.89105700149,175858.42917662015,176213.55369252607,175719.1778086636,175578.27241161733,176055.92919062724,176312.88484488547,174937.0902701724,173620.1254868657,173047.40673868736,172663.2026032451,171126.69898589837,169265.8045012718,168036.25739052982,166968.29104045522,164792.39342122,162047.77801606394,159947.92103146567,158281.59848232253,156093.60856933697,153435.65087743412,151396.8365069433,149805.369949981,147756.31848052962,144691.17905988445,142100.79069147,140213.18587221933,138045.20077052127,134826.90719686833,132079.20725097743,130043.65623517707,128162.3993113517,125302.71712573971,122664.89835559111,120633.25889507042,118658.99636256653,115878.57346279305,113341.58341188234,111020.17593624306,109731.08377827214,108318.25236299663,106606.44401388694,105392.43136554139,104599.19030656699,103029.67316265979,101404.25430586986,102028.02443838412,103014.89865957483,102551.68110748305,102526.49069148191,105747.33236400275,111631.27262965115,119185.04466832217,126587.02601039721,130914.74842008931,132621.81819937448,135534.3399088788,136170.02352118774,136007.8616151645,137170.39819602945,138312.61704118457,138765.30692163788,138650.35189990426,132998.80272135767,125152.5357547445,122135.36317770043,122180.06666661105,123205.25177779816,124617.166771551,124946.11739469974,124483.92802285291,125285.30511680903,127495.66912599435,128939.4800590849,129465.32719914046,131097.65274496708,133629.2336737196,136362.11441303664,138170.61640866,140302.14581515145,143801.35611311867,148548.93369065927,152000.2218485143,154656.39140086074,157739.94865893706,160302.9784921382,162505.4523355308,164498.08800197698,168438.63349421424,173202.84076962958,176246.5001638532,178214.66067012082,180948.56958968277,184525.25103393212,-188105.12877763854,-187500.04470348894,-187500.04470348894,-187500.04470348894,-187500.04470348894,-187500.04470348894,-187500.04470348894,-187500.04470348894,-187500.04470348894,-187500.04470348894,-187500.04470348894,-187500.04470348894,-187500.04470348894,-187500.04470348894,-187500.04470348894,-187500.04470348894,-187500.04470348894,-187500.04470348894,-187500.04470348894,-187500.04470348894,-187500.04470348894,-187500.04470348894,-187500.04470348894,-187500.04470348894,-187500.04470348894,-187500.04470348894,185675.51650709112,183474.38376836583,181540.6002450705,178808.52416855385,175143.7321476617,172296.83515987816,170246.42023401504,168231.32106439126,165251.96763896558,162614.41708975044,160725.71703502143,159066.8376167819,156324.2562203713,153020.623686388,150177.19121899502,145946.4530284945,139551.0824979642,132901.5279294882,124945.60330457728,117441.6756560416,107999.2929696194,93408.36476187287,82192.32644943315,80852.31701759303,79548.58446700388,77923.3891276585,76238.62638933974,74249.90227817325,72564.67015322091,71673.99784016584,70195.67581363629,68390.32541398113,67057.60265083345,66668.72700080002,65672.95678531608,64123.55621141866,62798.81302104152,62609.4266902717,62040.12775899503,60807.27259007366,59635.37062828191,59679.157695669855,59517.06284487997,58401.68844481569,57147.84498785079,56980.94451200301,56965.7453257734,55755.80069491872,54061.02437508397,53365.438087634815,53285.26238027363,52268.95091163527,50803.03410327841,49946.47055226214,50010.776521060056,49245.49749439925,47896.10032988791,46912.66827734331,47132.542387550166,46726.657059986246,45661.39527099077,44663.43458455022,44782.256458074626,44510.95098387611,43402.170348426145,42213.45987480401,42192.3598280382,42184.357903523196,41239.817886330835,39833.714346136374,39207.57492870986,38792.59244115263,37589.06276095662,36198.62779362533,35652.26175215981,35733.55504674376,34985.19629063562,33774.98343884748,33084.403942156314,33196.92262374433,32465.864117844598,31149.681645593842,30102.56947309607,30009.496809184173,29398.087191353705,28273.682686529482,27219.306197083737,27125.98766398283,26625.845030050878,25670.41971330878,24968.530233923226,25427.143326657217,25988.350926441068,25849.79246256262,25499.831199625874,25647.486823497635,25748.114377035425,25003.086030851133,23974.704620206907,23126.94765650602,22266.897233354717,20654.822368004607,18438.132815138437,16137.870089753878,13588.765393348383,10763.057859308465,8245.804398751783,6298.363959594245,4698.873126372472,3317.1329876342998,2726.8234165696404,2859.6598338675303,2741.933195821428,2434.90963398333,2268.567951746935,2210.5875266298685,1946.1216862346753,2295.367693348848,3012.88104210866,3661.9757010907774,3766.5148099082485,3679.4771169992828,4639.976279732738,6110.519899191845,6813.996352433724,6789.3423782995205,6713.078226218013,6383.635864691242,6166.93570219704,5316.38477043924,4692.815803625083,4450.92522512975,5063.586540649717,7404.998827576498,6278.135630862193,1117.8330919543614,-66.13881184325359,1365.1774960967894,3948.9273964080094,5986.221848275883,7176.765164943357,7959.143276112471,9515.092911135305,11434.392504023614,13493.681072435507,15604.848039728171,17058.4266851457,19262.554557627984,21502.98166310569,23429.277352008507,24902.01144242423,27558.31510523738,30932.869724377364,33471.60321135559,35497.61003227354,41978.56539232319,53566.8943604105,63887.11945857042,68814.56152374286,72384.00100278867,77076.48153024692,81664.64646633225,84462.01198840285,86216.46746593327,88596.34710506763,91689.18033709293,95060.940988176,99033.04714358416,104189.54988593458,106381.29489198863,104705.49520319643,103877.11720193831,102159.94443415933,101123.60580248902,98739.97107028616,93928.98159372588,87549.52550524777,80426.89626537518,75676.59177501104,71135.41020577076,67546.83763347121,65230.97339045685,64332.70148428697,64673.677345952674,67487.67256589801,75236.86590634179,85967.2902187455,98897.72968265173,112480.66127069728,125661.03794110274,140536.7720766988,156918.25382927107,172181.6789724444,184936.14315225402,-187500.04470348894,-187500.04470348894,-187500.04470348894,-187500.04470348894,-187500.04470348894,-187500.04470348894,-187500.04470348894,-187500.04470348894,-187500.04470348894,-187537.14859928473,-188321.96305059947,-187500.04470348894,-187500.04470348894,-187500.04470348894,-187500.04470348894,-187500.04470348894,-187500.04470348894,-187500.04470348894,-187500.04470348894,173639.14682139718,151982.54161865017,133802.30323103705,122236.05778647159,119100.82329521458,121129.19940104478,123293.67527886335,124545.37296836055,124914.86965595123,125727.60143609066,127008.73637303548,128334.3959849353,127963.73700663293,127096.73519095602,125170.90888868677,121201.52964610215,114479.48837035756,106791.13647832115,99528.85353909178,93027.1557601876,86862.94697081411,82755.6798166847,81497.12014163974,81724.10210658338,81667.93217276719,81883.78296897208,83550.97723614899,86700.31567815729,90152.49790579056,93532.95338546675,98962.14741017192,105943.89360474273,112216.39659600217,115918.62778885696,118696.72610720708,119711.13767756673,119883.40257208378,120113.53613299564,122776.23239472299,124035.14969767926,121875.1218170073,117710.96947323912,113783.92443465287,111390.56669361195,109892.32926277272,107944.79941663735,106192.35559610793,105144.72933348767,104483.20710458841,103214.1644613939,101782.46817379812,101348.2184825204,101549.49594134044,101217.61723966805,100288.45522266094,100090.1728975979,100448.18078853855,100434.88150058765,99736.56830031495,99739.36226837186,100425.24789872741,100964.79665813407,100594.71882518755,100586.40397625018,101281.56558055468,102003.325760761,101667.22257938655,101316.5684123717,101496.54465872582,101649.31883207784,100634.57198555136,99277.86580060313,98615.74007460357,98287.50470727739,97160.35093788516,95449.5260655315,94293.06915915837,93536.70847853523,92241.40253560574,90379.6810364343,89370.76799521066,89100.51305300153,88575.93996237994,87296.41435103588,86599.79988334178,86593.65315361657,86435.17928542844,85360.77563295074,84700.10277034077,84763.1570414492,84953.23627629713,84168.98061859378,83433.98820566991,83367.33530370418,83394.76089415085,82451.47257464798,81329.03502333582,80926.25658825118,80912.75613460019,80232.52549559182,79291.02531564538,78983.17473926244,78942.96395098734,78443.76009032251,77384.39916186323,77030.19106747999,77285.26917520394,77299.73075386653,76565.40889327633,76361.31511465492,76840.89414368798,77413.41172616622,77279.92710827912,77621.3276530895,78681.58265132697,80027.91762684795,80437.3345300358,80731.52819055655,81578.70400890161,82367.83234689622,82057.21015420082,81300.53654915531,81090.96659314235,81189.22486176787,80500.2993941664,79217.33161417623,78420.29075864443,77996.83695993865,77103.21421661547,75687.27590886068,75072.80410203984,75348.87049780732,75686.78417048266,75284.05043888694,75368.9870678171,76008.62693889462,76584.25141385215,76325.37350957078,76361.22570767709,77096.5981002567,77982.9565266319,78057.00785601234,78199.0531920258,79074.97335374038,80198.12616087511,80494.01855397446,80360.75745353191,81022.5255516202,82022.67670901737,82402.45519905748,82262.08624387816,82489.42583673309,82705.65661259372,81744.93393241572,79108.21039774542,77069.77600691032,76036.67837818604,74960.33012394073,73264.97265875014,72133.61676140032,71676.63534601156,71209.68505259574,70002.31087235342,69090.22558811016,68737.38095013869,68507.38149969358,67516.66277845655,66413.98416924289,65761.73791429256,65280.571911403174,64193.695985519415,62747.336953560945,60467.48137086408,56253.93167184969,51351.09887732254,45469.84082100878,40022.608938528174,35937.20179047606,32013.15188564681,27634.266332896514,24170.282384190847,21867.493911682835,19861.849529963678,17304.742909043183,15227.416482855855,13843.17294873869,12758.95688044511,11425.854137641685,10675.997814655044,10674.947282665646,10830.649534541313,10328.092912208189,9808.75012978913,9728.35090498339,9638.183967850682,9741.31491676747,10734.782902572502,12308.099843037111,13769.00986063598,15003.116727246848,16334.408978749392,17634.25232580332,18758.343906205166,19808.58532292668,20895.684766254995,21556.670553287335,22308.583236763865,24056.154377002047,26260.595173906706,27436.63220842269,28050.053483254134,28860.080702314463,30378.121778741097,31250.264495642725,31674.254736215444,32141.205029631263,32793.518339814946,33046.80830798249,32899.04092538845,32529.968920942418,33043.723767247655,33435.482792315815,33314.202226901325,33061.42634885626,33480.18628122643,34160.595734190436,33921.767344685475,33132.84017239096,32902.79601845694,33290.33056382305,32624.40504126609,31545.10635675268,31321.454801732878,32015.454115325705,32297.846054774054,32180.56645161706,32210.22721650925,33148.3746347874,33615.36963169213,33224.839952569004,32578.49455815489,33118.244483261646,32948.61709459032,31863.104625118332,31027.864638312418,31384.59847981912,31485.80717871275,30391.06343878072,29088.269661458693,28963.368113442437,29408.480752525422,28144.176679155433,25831.86636350946,24279.71652504403,23150.95343005102,20558.598108124508,16878.271624835925,13647.058742887824,11801.832831124406,8748.338669340452,5549.401706385816,2669.8935234419732,-509.2174421808055,-6168.768545242375,-14300.556695527637,-19835.697988950968,-23573.915490378797,-28390.38114433064,-31508.963585968446,-34063.85738418787,-32751.541763727877,-31707.312966264843,-31651.79123303786,-31211.059535868113,-28909.478057560693,-25747.24265900167,-23494.969128962653,-21827.618399574567,-19447.001152873177,-16375.826761225077,-14431.448511057915,-13297.745680540285,-11908.316541709488,-9363.682194195057,-7619.553222602991,-6972.38081364403,-6691.598199796463,-5396.113442911321,-4543.841426830462,-4739.933280936871,-5196.221792247509,-4434.072009810449,-3881.1122037306077,-4231.878129467742,-4697.576725194064,-4000.828147033232,-3172.092517863812,-3264.293463741954,-3796.689664922913,-3739.31273690614,-2747.744649379808,-2671.3910903204787,-3287.360464019831,-3276.4528127256413,-2578.5866473420438,-3340.401153612275,-4534.18547322577,-4926.592698883141,-4224.345591586303,-4218.712951983565,-4839.934985629915,-5272.150668162188,-4633.874253496439,-4488.096176158926,-5304.828918555846,-6718.0850169760015,-7624.470606383158,-8944.63168914696,-11220.665123541967,-13605.193925523035,-13033.34689537846,-11979.909179199836,-11910.93169581076,-12070.836075644027,-11414.655913669576,-10271.69946094745,-10070.846685272061,-10324.04724646178,-10027.238431839756,-8976.482924995771,-8840.204339051765,-9167.076249966174,-9115.689589463424,-7961.177284857904,-7429.9210226441655,-7603.862297995365,-8299.917972078083,-9228.185919306985,-11960.84314117946,-14470.787581299255,-14346.914213527944,-12134.136215941457,-10474.0721552458,-10121.853366119072,-10237.747161119838,-9269.179018638019,-8001.142203943993,-7571.318158068438,-7405.222345021051,-6362.133486525237,-4587.0920523514815,-3669.0612040831097,-3268.2497225105435,-2619.847967606541,-1403.868365748926,-1103.3938650362331,-1235.2021020891789,-966.5564854808433,466.5032585267137,1328.8335596124602,1509.6591722558944,1774.7285097513807,3293.9542286341466,4376.046881204472,4487.805603481007,4417.9787538026285,5621.2402130651735,6719.895508276882,6769.561084456574,6550.692802750207,7554.286128793494,8839.80200765157,8933.120540752476,8611.590696762883,9091.661464173969,10137.119607582046,10226.861861570103,9862.126095548403,9982.02085280667,10900.051701075043,10685.989044426566,9788.07476616797,9401.613104535712,10320.1356911821,10559.075839409334,10037.810806967116,9672.33743337839,10522.597792458271,10983.088431726508,10620.274915727963,10282.964740152926,10988.899885284887,11517.049255019338,11121.401026415948,10522.731902925003,11008.010626794176,11763.030202749993,11433.677248201044,10689.341806094862,10723.607030344849,11336.760084242831,10934.316925325027,10093.913685549938,9812.84049902445,10500.760138125437,10379.948959344501,9742.030172590039,9464.35445122176,10094.271313461222,9932.645849304898,9009.608210278537,8249.358326120178,8749.366849585396,8931.980601785255,8203.269029053334,7377.103850496274,7839.963774676773,8445.584290693318,8101.836812715151,7486.515639605002,7892.020987513183,8984.864829166512,9229.616430952125,9084.933589092921,9585.791478847443,10597.543191616916,10476.799068069347,9912.082244406014,10034.122769131991,11122.026875260697,11244.693248831421,10777.720603671147,10792.942141645211,12075.664052446373,12689.55471391138,12526.05170322081,12432.084969530699,13717.220868733033,14830.583611796334,15085.952292198217,15255.512625636176,16600.774717423286,17899.29931155435,18237.503556907603,18363.187415979795,19500.198304676807,21008.359910054198,21398.08492637693,21484.96615707471,22374.00679278455,24058.613068892133,24538.683836303215,24350.258630544977,24286.936138503093,25052.572793075182,24791.347955626006,23790.03450751716,23044.290905510297,23622.686996780278,23493.091582428406,22331.31496087491,21076.42097192061,21128.61229522375,20799.147581952522,19469.934042684323,17981.71019336107,17737.74090263139,17719.770100089325,16739.713160957475,15771.770867320403,15835.741559951492,16086.416374017761,15123.525574627589,14100.21800997472,13825.02333224098,14150.531786743617,13624.148204821135,12537.361685915195,11901.365149183888,12184.204123521344,11866.63053830034,10990.799783563589,10354.870302065649,10811.292923843017,10784.090850840908,10033.094588887046,9143.159883398996,9414.6218198087,9483.085213075306,8699.790680383525,7712.357665581426,7875.726565805265,8268.111439718181,7763.543160384079,6922.916403164435,7015.363218231585,7598.0955479258955,7138.901309836067,6341.033439759427,6269.23963656898,6966.099973452088,6765.426011732342,6041.944747202962,5815.879203781987,6555.856055719382,6548.703497493684,5969.167467256483,5538.963441725188,6233.94623207405,6465.3761941643,6053.925282231007,5667.351861876472,6394.275295051968,6865.427716425385,6599.821937062971,6266.490372000978,6952.934795967913,7815.0415796091065,7762.716145839232,7475.160953421707,7995.15193642997,8964.457686478816,9012.178660890897,8761.325032868986,9147.540825312237,10234.282640729267,10415.555288261807,10089.242170958778,10176.190456889923,11446.998887896407,12134.247974663733,12308.256305248298,12762.488456069048,14548.884576426099,15678.653499919594,15214.67598851633,14403.397071766505,14800.341701548303,15213.468994315745,14984.184799693205,14690.751098483934,15396.2839122157,16241.135149137397,15842.782359454914,15082.778344485563,15165.211578036737,15972.511884273516,15764.864178283713,15070.060201890494,15015.544297164,15865.961118455067,15758.002192735934,15030.274096760048,14606.395614909605,15342.058580167126,15312.330760041566,14578.768858762844,14053.458160574219,14940.598898005355,15326.3676555595,14904.344368498847,14391.841219883112,15093.820106246485,15641.884880290614,15222.052064186582,14559.814579464744,14947.416180064223,15621.097757947178,15310.430861762867,14588.491867600904,14772.670241912634,15691.550456470306,15583.055088884246,14974.171218177227,15032.285753761025,16104.27541783755,16220.795061683068,15746.781617019371,15575.209626580434,16621.561839766724,16871.789618943887,16358.906490672409,15916.498412668518,16749.994963406916,17102.593732189387,16633.58707828368,16055.503911436072,16664.25367167636,17207.512820662596,16717.741396157908,15946.829729894369,16251.774579498122,16899.997520446483,16543.107216728597,15835.22746982902,16019.607009840849,16953.887576328227,16826.61674339971,16191.11194504642,16152.778703305568,17122.017398121046,17131.494537770097,16488.63601549101,16187.893293844856,17093.04953730697,17231.853870374427,16670.176883957014,16163.194616221741,16971.098419558813,17388.629005983952,16902.5903228033,16274.863931520455,16893.023776176426,17503.002882361758,17097.385775731298,16425.380578682492,16870.783790443398,17639.326171794673,17343.05379903958,16645.411151100536,16785.08720220175,17662.862558706114,17445.2683264337,16634.034113172784,16297.618007375957,16979.413268496188,16787.232969669458,16055.235690502608,15600.601208281661,16239.92815493681,16272.248777419183,15646.690505348506,15077.101001393916,15804.650283414161,16137.758331031602,15532.36133245961,14838.205556655594,15418.278028759722,15974.009451152022,15476.906654465993,14661.716182436488,14875.778839084966,15565.263100297821,15176.722726431219,14381.805286622679,14423.245420842817,15309.894419895938,15181.885979400395,14474.565026112203,14268.839570145557,15137.696580612253,15082.755992741108,14342.287402425696,13834.522823634485,14637.129263535651,14827.767291994965,14312.693692766868,13848.492663919053,14764.288337741893,15481.77933475725,15251.310497678578,14842.117111935273,15643.650668102584,16540.916745771974,16366.528435531669,15873.0466214474,16397.664415557912,17487.110792054034,17412.880648717957,16805.315530933804,16992.913722147194,18140.184061549196,18267.164321799795,17726.252105981363,17702.872181281113,18750.543147390264,18877.277538451857,18362.360401434948,18179.03139341252,19364.277346644085,19886.861132009166,19652.257222206263,19544.25359299822,20550.68559058733,21257.0677706084,21063.903995025637,20526.72452053124,21275.485608039573,22143.24738302796,21712.663377840923,20547.556346363588,20268.941851728185,20485.574958989022,19783.95370053693,18924.953809375027,18977.078077444803,19910.352815431692,19914.46553641147,19403.661120374338,19269.90828155378,20333.136061803827,20547.265773685667,20087.915073384655,19839.40837853055,20847.159129042524,21237.82291863238,20871.231957820888,20388.45662933071,20834.820966103194,20323.12248028785,18082.471857365592,15167.916139115829,13262.631090001,11712.135280625258,9490.573047467835,7293.642436700158,6413.296629583434,6447.785371277973,5835.079352269096,4983.8355164331815,4869.394584822009,5577.631959632869,5245.127409115721,4187.621675446234,3245.652108866228,3340.289394889998,2632.387296245968,1279.749128788606,-4.425645402150798,-87.95411443163329,-784.3003611922695,-2331.1528362217946,-4160.866637333231,-4871.205076122889,-5916.529109064235,-7912.13755752296,-10325.164833684545,-11851.096075903903,-13358.74359115882,-15776.59884412275,-18510.86539159601,-20308.951474303183,-21339.56805939294,-23189.01845085841,-25262.343914788238,-26518.646063643228,-26775.646421390345,-27827.832439879472,-29228.705671871387,-30408.96718608942,-30664.9393635916,-32008.659185011293,-34175.72786518668,-36336.940388314775,-37407.00780236814,-39156.21061995156,-41963.097985160115,-45126.74154361982,-47293.74316856184,-49648.16417076161,-52913.32935253732,-56422.150900620334,-58810.72536834781,-60426.085940132856,-61855.47999804974,-62698.36428145937,-62081.18791355943,-60491.9788827871,-59589.326034703976,-59103.667331179066,-58264.87341700476,-56814.87105070008,-56509.88149760741,-56984.31962541576,-57446.93368040725,-57129.427150419615,-57618.81859526856,-58745.43592279386,-59848.29334596317,-60016.51257473381,-60654.565471955,-61864.95713769879,-62862.694306694786,-62514.09650016982,-61963.70714470233,-61784.42380242632,-61529.9715435471,-60150.15365483209,-58378.442630582176,-57334.79497847497,-56585.76567003318,-55069.57978839634,-52927.7909311999,-51815.05403698135,-51420.45634036736,-50793.86988805174,-49329.98708844031,-48596.916925539605,-48154.553551024626,-47196.513080181256,-45164.5606952382,-43838.43169670483,-43139.06796444273,-42408.99293529904,-40505.07134259598,-38984.77273997936,-38268.309923208944,-37676.03339863222,-35926.361194415236,-34309.68186970733,-33625.9867103084,-33234.60766489597,-31840.082328329365,-30286.345516007605,-29730.479983148576,-29541.80890820133,-28617.76544067448,-27169.37239997058,-26654.812890864956,-26525.68686314665,-25884.88470135745,-24358.796996926903,-23736.926762691353,-23630.845383506465,-23210.0290906464,-21708.505953372234,-20877.89277766857,-20663.89717625346,-20382.108733905403,-19020.70868262156,-18086.986909745563,-17923.59565777727,-17875.807628131824,-16799.928760520073,-15877.695784294105,-15871.61610980226,-16159.797151064535,-15568.235882310377,-14786.170695563638,-15048.446065002212,-15609.363092108142,-15346.461873824821,-14306.770480486213,-14134.12560631342,-14417.94805740691,-14191.949569219301,-13022.998037695652,-12715.415682246172,-12988.397537278835,-12922.705760324689,-11680.55226570991,-11066.28162458916,-11134.38738994448,-11091.025005701185,-9802.782214019564,-8975.946483128844,-9027.489605842782,-9221.480395970393,-8295.224105742467,-7433.094970356819,-7574.40269880327,-7964.507694781744,-7292.055462843831,-6274.112316860237,-6318.7040470485745,-6734.558252639563,-6345.593195628309,-5198.434614948585,-5133.279279861365,-5538.292889391529,-5376.466259535106,-4216.589536260311,-3962.673719248023,-4313.9090316187185,-4351.459962303635,-3207.609439803295,-2705.119872703537,-2871.841534595673,-2884.5820289351977,-1624.8824149230022,-646.9488915144076,-1340.970556851692,-2650.447505765856,-2682.343445103579,-2480.462489183246,-2459.7647738176315,-2330.929318777242,-1852.713746155947,-1332.8121701255047,-976.1453838521701,-473.96874117478626,173.65070267328056,782.735739080398,1155.2275604280903,1582.0117690577233,2128.310755289883,2597.8091475736082,2860.3303862011894,3184.810660458882,3601.3801218724398,3995.7543010418776,4248.463123853579,4560.851104360951,4973.576065728195,5308.315790690875,5520.679714760747,5728.439179472826,6070.420869639024,6392.353045028812,6623.291268741044,6830.044904952634,7146.567958184238,7486.068604715897,7725.835767487975,7887.841211300041,8198.150479573069,8498.312055863387,8684.792659854014,8812.17525150481,9053.752905577769,9354.85325513521,9536.84115849032,9682.708642805654,9914.92091595184,10212.534393374252,10355.697316610494,10436.87885247217,10606.841517310324,10868.178113481774,11039.705400431802,11000.008702279176,11050.724810448268,11247.7554378218,11381.620035364633,11340.068142422217,11341.029267433796,11516.579868385777,11610.233677653514,11560.344584029268,11467.808361984296,11533.678952894086,11635.357038421278,11595.302712357368,11460.521693291867,11416.667570670554,11509.114385737705,11410.342026989703,11202.604914022078,11110.783947799677,11151.01708781923,11101.418566872904,10898.844706874455,10803.201592350197,10820.792415236523,10753.804237103968,10565.334327856819,10383.77110764636,10362.67106088055,10309.496260821374,10063.247092157257,9814.382769391868,9743.997126102106,9732.731846896631,9581.812868334398,9279.840800743199,9176.307520426217,9069.242664485297,8728.177395841765,8217.90942167156,7830.084303627527,7558.376498028815,7233.583299348748,6659.121115102901,6127.373114511146,5655.483085570703,5162.5153616089065,4426.561823673466,3673.7550704187242,3031.701210940029,2495.393454479391,1696.564459391172,818.3197162532468,76.64413173724792,-498.5780118200793,-1221.7910554159946,-2186.760567040511,-2370.9389413522413,-1188.3751974553106,-61.37789027427319,517.264070184716,895.0085514794054,1937.583319852748,3628.984526274744,4395.559954113955,4577.369043513423,5217.657115180149,7070.326157847186,8013.659180838965,8248.084276686224,8676.231941727632,10294.98997866988,10953.159445900852,10917.508413494637,11514.903487551628,12891.793297743,13224.275496515691,12549.76690408789,12906.612504316869,14224.851337057513,15530.863765581104,15785.964225049524,15540.877347097081,15224.913087476862,15109.578086087477,15031.503442705089,14897.527086439979,15567.833550910182,15755.141169445655,15215.838279228006,15346.707743013829,15440.003924370281,15487.523733082264,15211.166764636848,14850.70018180611,14557.288832341294,14249.81823561409,14383.101687801087,14054.77691349708,13630.585507224263,13685.436688117587,13675.400754857154,13433.33136240618,13215.446557455845,13230.802205896642,13065.332241694003,12839.221994784117,12713.784004900934,12594.604503465236,12546.72706684197,12357.787770961259,12175.308129228131,12123.653247791917,12095.82532594506,11990.32509211601,12006.038368468091,11914.060940034502,11488.550780838821,11519.060912020315,11836.790959452506,11728.809681988918,11456.341917078724,11470.065888174282,11429.430416754534,11328.177014371993,11217.55823106268,11106.782985542177,11129.447654419859,11093.394290613449,10827.363828106383,10563.501484811484,10301.762557239837,9864.741249649675,9431.363276405726,8700.841212372925,7851.921957960362,7232.421008637072,6520.070912846436,5597.793233131556,4922.949364536925,4539.706354106231,4282.75069984802,4183.598361444278,4143.119352235717,4268.266769440981,4446.052544838493,4585.52743023961,4659.243483453212,4819.170215030935,5068.414517452064,5428.903452027256,5639.345126073972,5510.040284400021,5692.7434435777,5995.989560602851,6252.207607294036,6315.552451080376,6383.6805681801525,6558.627672031841,6712.608839584451,6932.035914902201,7068.381556079574,7173.770031186346,7384.189353488608,7546.932404867698,7617.385103390826,7735.111741436928,7928.119054808504,8005.478442368322,8107.380045340067,8128.278926405779,8220.301058328278,8460.224683311544,8490.511297048486,8508.951486224114,8546.50241690903,8531.616155101796,8518.272163661977,8436.509482444464,8451.172226807144,8554.50434142403,8477.63669224223,8416.728188601517,8351.282280836378,8384.56402833033,8421.422054937131,8447.417133738654,8400.254952937956,8466.19259908111,8422.76315960445,8300.45441394501,8251.481741843432,8123.920336236994,8176.290473495779,8083.59778923962,8164.287586723279,8258.880169258138,8323.990800856447,8125.283792648768,8103.98258018286,8075.953492635906,8014.910878528462,7932.544700210656,8029.953602546883,8083.866010173084,8271.77712580885,8134.179786941981,8085.832963685151,8067.102201831603,7974.744793742275,7816.963829632263,7810.660637695866,7862.404926109902,7892.602132869021,7817.947306388296,7833.794693207109,7704.959238166719,7708.557869024024,7607.50563234158,7561.505742252558,7596.888553725309,7548.273509535016,7480.167744179696,7387.162135501163,7238.970069762478,7296.145832079153,7281.39368073865,7217.825319507757,7111.475719389406,7159.5543217127715,7155.3298420107185,7088.699291789448,6889.2546760147425,6604.560506887497,6426.9982489345375,6403.7524347010185,6253.995746850461,6260.634214953687,6348.118942751759,6223.351505202235,6229.8335110942735,6322.168567439147,6429.099312913337,6577.358433885388,6607.868565066882,6531.537357752009,6628.141597287846,6602.884126053349,6669.738193719172,6857.805771566126,6897.390710996475,6981.85795329308,7029.087189327144,7025.108578814099,7051.528340760272,7054.054087883722,7093.817841269713,7070.013233424811,7113.4203211570175,7127.837196330691,7082.73137601988,7239.081828484754,7287.495706974949,7447.7130112305895,7422.813167907378,7431.820920922866,7486.33682564936,7645.145970004317,7697.113775862906,7737.413971115825,7805.340922515503,7851.631385282444,8059.904940116995,8222.111549629159,8226.917174687049,8291.245495229423,8441.158645291167,8499.742567508527,8543.015544774002,8619.346752088875,8650.303918159476,8875.363633079962,8863.718374218748,8883.745537250703,8986.697672211847,9042.934661261399,9080.217371012852,9096.80236539869,9121.411636043982,9135.202662372907,8985.155401844431,8819.84189985298,8753.501922309628,8633.42835109572,8528.151634711223,8362.41344957512,8276.426288655555,8187.511049212343,7950.269633563714,7851.921957960362,7786.453698450769,7706.903839934331,7582.494030296091,7454.329127589361,7514.34356145186,7197.552287286793,7100.545716350761,7000.588715146628,6981.768546315258,6977.655825335482,6877.050623542145,6836.370448633486,6852.128428474478,6841.243128924743,6753.62429065994,6804.653323251406,6734.871177061937,6639.004545093125,6660.417516281309,6620.676114639773,6579.817125775472,6559.119410409858,6526.061180360459,6511.756063909062,6465.532656375487,6395.728158441563,6345.861416561773,6389.4920217385325,6404.355931801311,6338.820617058351,6377.086803565837,6311.082102189315,6179.229161647459,6160.163123627081,6330.706933821075,6374.561056442387,6282.762441964441,6195.881211266663,6331.86922453275,6285.779927465907,6263.539941732877,6284.170601865126,6300.8002997398735,6272.145363348171,6276.995691894972,6266.959758634539,6366.872056349762,6423.690190755152,6244.809179879329,6336.026649001437,6529.928032151227,6528.676334461729,6466.314967431423,6513.43244474321,6557.666547020262,6560.728736010639,6612.785948847049,6630.823806622482,6725.9528310242695,6755.568892427551,6739.9226713088365,6817.751445502216,6846.249919682732,6846.294623171642,6976.76175555727,7016.033770565245,7013.955058330901,6977.432307890929,7169.567903228749,7156.9168158670445,7204.61543853467,7193.707787240481,7225.313153900284,7302.896058904656,7304.974771138999,7395.968722816554,7358.9542339985655,7276.118669047198,7362.93284451161,7476.367947622293,7642.7096298586885,7659.294624244527,7545.390134500281,7643.424885681258,7848.9715276922625,7927.515557708211,7861.309690631591,7855.386478350935,7956.081087122094,8149.177807471491,7963.658328492443,7897.273647460181,8166.478057679899,8298.06277728829,8388.497935354464,8364.872141465205,8360.871179207705,8451.261633784967,8572.0728125659,8554.50434142403,8614.585830519894,8932.561747141093,9065.331109205617,9092.46612697436,9052.344745677085,9073.668309887447,9054.110533489053,8877.62115926995,8654.349583905887,8559.332318226376,8646.66058381326,8594.044577365468,8439.862244112759,8342.654507476629,8205.839479665694,7924.0510373176385,7774.517866911634,7687.144897835839,7707.8649649459085,7579.878876194821,7401.400196719193,7301.264381559418,7207.498813569405,7196.434700064028,7066.481657800872,7075.869390472101,7236.734895316947,7109.21819319942,7103.518498363316,7019.878270611557,7108.145309465565,7177.435717277017,7160.649557191081,7394.806432104878,7750.355631155448,7722.818281986509,7633.858339054387,7315.614201499725,7084.83243999868,7150.859493119657,7132.240489988386,7069.722660746892,7031.0094393503,6920.636525229994,6856.2635011987095,6790.594075989017,6787.330721298543,6913.215746070832,7100.299847161752,7199.988627432422,7358.283681664906,7530.861500604332,7608.399702119792,7493.511735619514,7513.114215506818,7599.347245615393,7679.56765646549,7652.410286952292,7530.950907582153,7479.139563934751,7569.150038856273,7400.215554263063,7501.334846178872,7512.53307015098,7411.346723001805,7471.159991164207,7506.00636077003,7479.988930224054,7512.354256195338,7431.530348244947,7444.5390635179365,7429.742208688523,7496.976256010086,7502.988875268564,7499.591410111358,7436.112455858285,7476.524409833481,7466.24260738404,7469.729479519067,7471.808191753411,7475.496229588536,7499.6584653447235,7424.020162107964,7357.7248880535235,7449.434095553648,7517.24928823105,7394.918190827155,7494.29404667545,7531.867329104821,7450.685793243146,7430.792740677923,7399.947333329598,7413.760711402979,7387.5421151569035,7350.8852542502,7245.474427398972,7388.346777957294,7373.907551039166,7321.11273063573,7410.854984623788,7528.134587780784,7467.00256669552,7366.129143968719,7474.490401088047,7431.7538656895,7427.507034242993,7387.251542478984,7306.964076395521,7262.729974118469,7210.873926982156,7175.826391676234,7228.174177190564,7207.118833913664,7082.619617297604,7197.28406635333,7101.59624834016,6949.291461621698,6895.714330162326,6999.068796523667,6916.680266461404,6814.063407667089,6817.259707124199,6847.836893539059,6838.0691812120895,6803.1557563729,6667.167743106812,6789.431785277341,6740.682630620317,6721.169557710834,6673.582693765485,6689.98887419568,6641.731457916672,6577.805468774494,6689.899467217859,6644.436018995764,6604.336989442943,6655.4554290122305,6578.431317619243,6464.526827874998,6579.660663564285,6688.290141617077,6575.838515262427,6566.629596546841,6582.54403859902,6460.369403406311,6411.061455137904,6499.172031780724,6430.351010602833,6281.376633808212,6301.984942196005,6358.8477800903065,6396.465766008588,6374.73987039803,6452.188664935668,6342.8215793158515,6190.762661786397,6257.393212007668,6316.670038303142,6223.530319157877,6225.139644758659,6208.129967228171,6364.145143526214,6262.020023109916,6211.102749240727,6177.552780813311,6253.772229405908,6194.026016476872,6190.94147574204,6204.888964282151,6139.398353028101,6197.669350823087,6324.739018051508,6153.6364142461325,5971.268531235281,6121.338143508214,6104.149652022083,6090.358625693158,6080.255637199359,6101.512146176356,6108.195317768493,6203.1231764701815,5984.4113569750025,6009.512365998312,6063.670642813521,5872.272655042727,5855.620605423523,5926.810911513676,5818.807282305633,5831.480721411792,5901.061701901162,5775.042566662141,5920.910050977475,5915.232707885827,5906.4037688259805,5790.62173254749,5844.10945702904,5992.6144471901,6154.9328154245395,6124.109759820672,6072.499581873368,6082.6696256005325,6114.677323660532,6150.663632233576,6063.96121549144,6235.6449646526535,6392.97889387356,6315.150119680181,6348.856550318784,6458.335394660878,6483.436403684188,6489.113746775836,6478.675482115207,6418.3704755747885,6566.2496168911,6659.702260458739,6776.333663026531,6723.829415301016,6624.319448985988,6760.642738418906,6958.433325103918,6866.210027481321,6828.659096796406,6967.5528368416835,7051.617747738093,7205.4648048239715,7270.553084677826,7353.142780440186,7384.077594766331,7418.543984716414,7602.700007283689,7710.815395214009,7811.68881794081,7924.207499528826,8183.28656951029,8531.727913824072,8719.951953882213,8692.548715180006,7769.712241853744,7765.9124452963415,8040.59303290761,8253.806323266785,8296.83343134325,8325.913050879604,8431.279174241921,8549.229329732578,8660.093982230901,8820.020713808623,9020.73937901728,9228.990582107375,9491.333006779314,9802.111661685904,9888.255284816658,9634.026543381995,9335.094313036718,9217.747654646357,9316.98940002792,9293.83299277222,9225.771930905812,9257.310242332249,9365.403278518115,9379.842505436243,9333.932022325042,9399.37793009018,9657.317061104424,9897.687720976797,9858.415705968822,9743.371277257356,9808.906592000318,9869.90450261885,9813.265182169102,9712.525869909034,9760.380954787846,9860.583825180987,9926.990857957704,9887.04829061607,9869.412764240833,9859.533293191587,9856.202883267748,9840.176682493291,9843.685906372775,9905.443776302789,9908.81888971554,10047.913795460916,10088.146935480469,10103.591990899085,10135.197357558889,10155.939776413416,10056.921548476404,10150.173026343946,10298.968589182925,10249.906510103525,10311.530269566807,10398.389148520131,10525.727036682014,10601.454746896596,10603.265238197475,10523.000123858468,10617.659761626694,10611.825956323857,10684.737346737069,10788.13651658732,10941.871814950922,10988.855181795978,10943.794064974078,10983.64722533789,11093.48369759127,11143.506901682247,11185.617588236046,11227.147129434006,11461.907501448095,11597.493183313989,11542.060857064827,11640.028553012438,11786.946569317171,11804.358578247855,11844.72582873414,11801.251685768568,11860.193235897212,11970.610853506429,11924.521556439586,12041.130607262923,12108.409358073397,12196.184658549388,12107.470584806275,12187.579236934094,12289.77141258376,12294.331168452642,12266.86087451707,12253.650993543983,12278.014395000268,12268.80547628468,12198.576295206107,12255.483836589317,12307.272828492265,12311.76552912778,12317.62168617507,12306.222296502865,12314.805366373703,12417.399873423563,12501.531839553338,12534.545366113827,12502.984702942933,12543.419008662584,12681.105754507274,12635.351733607262,12669.728716579524,12838.484387217091,12880.796239470988,12861.26081481705,12802.118098988307,12743.80239770441,12876.638815002301,12885.02071917304,12787.72357555909,12672.522684636437,12600.214791323519,12572.141000287653,12272.627624586537,12184.0253095657,12249.873548731035,12151.481169638773,11968.42038254981,11805.274999770523,11797.451889211165,11840.747218221095,11783.459697182143,11718.863155706305,11729.547289555943,11931.629411176375,11964.46412378122,11848.123293891347,11850.894910203804,11842.133026377323,11763.633699850287,11604.176354906125,11407.011617065862,11350.662869294032,11209.176326891939,10971.398469376383,10716.40976863024,10578.052470451888,10472.328719178286,10240.921108832492,10119.774653884728,10059.313185133122,10088.61632211403,10071.271368416712,9978.243407993723,9933.651677805386,9982.512591184688,9936.266831906656,9879.783973668096,9922.67697127783,9862.014336826127,9817.959048504717,9795.048510438028,10027.081969628569,10180.303177869699,10219.061102755202,10179.945549958415,10158.890206681515,10349.863511307658,10480.822382071303,10565.602548790283,10689.855896217334,10895.670759161801,11062.101848376018,11276.298615491225,11502.520621123389,11755.22944393509,12031.586412380508,12227.1865281089,12465.031440857822,12680.278739962429,12733.878223166255,12835.757474393544,12909.674693307245,12969.107981813906,13041.43822687128,13071.724840608222,13057.799703812565,13070.473142918723,13029.122415676406,12903.282094393027,12924.628010347846,12902.142155425807,12831.801215624955,12720.578935215348,12720.623638704257,12655.535358850404,12600.840640168268,12383.40287010704,12234.18262412341,12147.457855636818,12060.24134877221,12028.61363036795,11991.621493294419,11941.844158392449,11894.749032825117,11843.205910111179,11734.732894269573,11664.436657957633,11721.858289463316,11745.685249052674,11594.095718156781,11281.99831032733,10830.917755474777,10288.709138477938,10061.011917711725,9862.796647882062,9853.297156488557,9760.962100143684,9714.381064698824,9463.34862272127,9169.713755811901,8708.709026421193,8550.279861721976,8376.629159048696,7923.8722233619965,6935.2098626148545,6009.33355204267,5074.538895432817,3519.192757510276,2342.038135771529,1104.9361354036494,86.18832661966404,-847.9134259120734,-1848.042231564788,-2600.6925226083426,-3242.6122716203063,-3725.3205448771173,-3934.5105212343365,-3726.1699111664193,-3129.8030173543716,-2690.188907407392,-2399.370360299392,-1760.3339863221631,-960.2979970333573,-202.43974953171607,570.2600562882491,1097.425949266666,1599.9155163664243,2127.059057600386,2637.5729009595993,3229.5141493694964,3806.457377249882,4278.168592234682,4773.37149064201,5200.759196371937,5489.677845201236,5812.884070024976,6267.183276079092,6659.814019181016,6909.527708235706,7269.591959666248,7532.6496401607565,7797.987198589707,8072.332510034145,8381.121859684214,8602.202964091655,8766.600044560439,8979.58981747506,9219.44638722496,9494.439899258603,9757.855207664395,9969.906207311895,10179.431459835943,10318.61577255914,10476.88847504717,10665.224273827585,10786.951874131188,10899.06822431901,11032.552842206102,11210.6962455149,11300.304389036226,11296.884572134564,11384.034023765806,11371.673509082022,11190.244399338293,11292.19070579895,11585.132668630204,11545.5253774554,11443.73553320593,11542.463188465023,11591.748784988975,11550.800389146852,11498.810231543808,11573.085078368793,11481.688795291042,11474.737402765442,11504.241705446448,11492.08235646276,11492.84231577424,11452.318603076768,11430.011562110372,11417.494585215401,11430.16802432156,11547.805255389841,11537.210528518026,11413.717140402454,11399.769651862342,11325.85243294864,11259.244234471827,11269.593092154633,11226.40952186698,11074.060031659608,11056.916243662386,10999.628722623434,10775.79835364799,10606.170964976665,10628.857985598801,10625.169947763676,10561.892159210702,10396.243381052422,10202.431404880454,10024.444463782844,9864.204807782748,9547.860568506787,9164.77402028728,9186.186991475462,9281.047794943786,9080.79851636869,8815.058626539543,8358.032507661881,8139.365391655611,8058.4520767274,7813.029922608129,7618.145062702306,7603.571725317446,7443.265014083983,7387.69857736809,7322.655001003147,7495.679854831679,7468.298967873928,7253.38694493615,6865.248902469743,6796.360826058487,6688.223086383711,6652.9296818887815,6910.019446613723,6849.535626117662,6919.451882773863,6842.137198702955,6577.9172274967705,6499.104976547358,6582.722852554662,6502.90477310476,6112.263335259358,5728.238013772728,5597.1226807978965,5056.0316510238235,3823.712923969379,1224.3168025394443,-910.8112348093075,-667.8477725801197,2092.0785775278305,8927.376142427462,14993.147849219782,20359.756989450096,23505.094469200907,23614.461554820726,25314.691700302566,27791.130875483857,26598.9782332156,23485.067306168952,19775.460037643916,16887.48054355151,14362.359268946562,13519.72085472594,11838.847319942393,9767.131181613348,6818.5784600470615,57.30987278340731,-12421.065559514233,-25299.492514072957,-30476.581213066725,-26335.69703527654,-18422.777166697644,-10447.652393299628,-1476.7574044176822,11251.13055123455,30716.571893283355,48879.66649289924,54954.31184224032,49559.494800507404,45625.431314162175,44146.48343878787,44123.48349374336,44270.28975132582,43328.0296120679,40054.90720926609,35287.77185532711,29062.02871346816,21379.80119941249,13460.801656341751,15410.946656578382,10466.137285964167,16041.422312429228,17910.229314592998,15660.772104355348,10642.179625294164,-877.2389146374363,-10815.316237844972,-19055.73386618303,-23446.577602216912,-25811.3921655884,-28469.461616213517,-30155.029017332676,-31698.55108243836,-34345.89169572493,-37667.651494461476,-40997.927307835496,-43674.124023213866,-46325.48795050239,-49193.037950162645,-52734.4483416615,-56198.90167700073,-59402.64426501325,-62484.32397655535,-65643.02779949043,-68604.70099505199,-71297.5274083051,-73861.80893919575,-76568.51578575562,-79130.98682534538,-81473.49434775047,-83741.43645065266,-86137.11877311692,-88378.55170709512,-90213.7416855981,-91845.41903083552,-93586.10583378146,-95492.17319395223,-97041.3055469162,-98315.77966401335,-99474.33763436528,-100378.26453188236,-100623.88785170173,-100428.33243946225,-100059.55100769413,-99578.87674318276,-98865.99020552519,-98151.58374924467,-97556.73677405558,-97258.22922685495,-96834.14957930442,-96214.22394683647,-95690.85785041546,-95443.84872243986,-95034.78944716329,-94332.43058114417,-93646.14261938843,-93220.27483228146,-92929.36687819564,-92701.02145684022,-92772.1000042081,-93315.06858051641,-94138.93152939458,-95003.45230143695,-96248.6679850421,-97884.2568855592,-99868.71181353473,-101841.65559311576,-103638.91466127809,-105909.40486304818,-109085.6995088696,-111605.50106829418,-113517.55869597897,-115397.8321430483,-118079.50503581823,-120638.10922361723,-122642.36779718017,-124871.52962345238,-128268.70420798114,-132232.27199700737,-136217.2527572218,-139761.70298596658,-144237.28218523052,-148760.24708273972,-151938.9110134734,-154416.6018863442,-157134.61871559845,-160697.1291538631,-163936.3439603262,-166319.46460240657,-168148.17257501752,-169466.18789031362,-167948.37033133153,-164751.57913584463,-164497.64096708788,-164532.06265354904,-164891.09872473465,-166195.63593812418,-166835.81225106862,-169110.59398777413,-171345.5896193492,-172525.15822948914,-173096.13354159993,-174024.60265452895,-175000.56922442548,-174806.3996203422,-173702.4916651835,-173307.2010644914,-173652.60257155928,-173933.0052057511,-174350.24521949832,-175183.07121790305,-176387.2267469438,-176797.76123735443,-176613.8957874651,-176489.17305340446,-176673.3514277162,-174578.88121353165,-170249.50477474986,-166651.16449012334,-165213.79085943592,-164025.63917942514,-162566.4725978938,-161471.39358179492,-162716.54221016672,-165018.01192975187,-166488.06381083297,-167222.56448537883,-168549.20757403466,-170492.51294046795,-171954.18291737832,-172240.88874350654,-172696.88668213924,-173880.74682721458,-175272.27703002418,-177369.45180528783,-180673.41961543795,-184499.32301036394,-187500.02235174447,-187500.02235174447,-187500.02235174447,-187500.02235174447,-187500.02235174447,-187500.02235174447,-187500.02235174447,-187500.02235174447,-187500.02235174447,-187500.02235174447,-187500.02235174447,-187500.02235174447,-187500.02235174447,-187500.02235174447,-187500.02235174447,-187500.02235174447,-187500.02235174447,-187500.02235174447,-187500.02235174447,-187500.02235174447,-187500.02235174447,-187500.02235174447,-187500.02235174447,-187500.02235174447,-187500.02235174447,-187500.02235174447,-187500.02235174447,-187500.02235174447,-187500.02235174447,-187500.02235174447,-187500.02235174447,-187500.02235174447,-187500.02235174447,-187500.02235174447,-182424.7011452557,-176830.35008077027,-173380.179510138,-170389.89608167365,-167290.62554724523,-164281.99133658307,-162109.58058948285,-160469.40958135243,-159360.0254488022,-159162.99482142864,-159988.40004067423,-161445.53261346015,-163109.70939513558,-164593.57465429005,-166250.08478761732,-169080.35207752613,-171727.11154545684,-173943.59993262292,-175645.14883102762,-177442.20673348985,-179283.54344171804,-179766.29641846378,-179524.76346787973,-180459.8486971675,-180286.08623577195,-179008.3487639843,-177560.84979305862,-176266.5496786296,-174535.451774055,-172158.29904774416,-169695.42738144725,-168077.60811777212,-166530.17449738676,-164580.4541802948,-162942.83127103225,-163104.41203169967,-164287.80279014146,-165496.60748202892,-166862.88021360402,-169102.8155807037,-172439.05930984727,-174796.0954661483,-176224.52839905364,-177680.07399798324,-179884.47009139898,-180889.15865292057,-181059.45659392557,-180834.06160283825,-181066.51974517343,-180638.30502489867,-178963.19824018457,-176800.7787228559,-175582.20631864146,-174234.10555530855,-171837.7973839995,-168861.52849930865,-166622.26368454262,-164654.2149369973,-162000.57113177434,-159054.70061954268,-157329.30240980416,-156613.95718025652,-155573.3270136508,-153910.0219500091,-152566.12331463376,-151989.56006640912,-150617.87821267586,-148214.61864884122,-145659.30016747717,-144757.85431359464,-143981.0864902838,-142980.10831834178,-142058.81411538293,-142380.612180306,-142639.7583055208,-141691.17262258203,-140166.090746652,-139670.37375812218,-139663.66823478558,-139127.02520215814,-138365.81419298818,-138550.21608474446,-138591.94679164252,-137297.64667721352,-135133.28255811724,