53104 
53075 
53062 
53068 
53123 
53171 
53189 
53208 
53265 
53251 
53237 
53174 
53045 
52886 
52736 
52579 
52421 
52146 
51869 
51592 
51284 
50946 
50636 
50340 
49986 
49637 
49279 
48947 
48577 
48204 
47865 
47591 
47325 
47059 
46855 
46629 
46340 
46056 
45838 
45652 
45492 
45342 
45189 
45059 
44989 
44930 
44921 
44910 
44891 
44868 
44845 
44819 
44770 
44745 
44736 
44752 
44767 
44786 
44841 
44891 
44903 
44963 
45030 
45124 
45184 
45198 
45281 
45366 
45445 
45495 
45580 
45756 
45894 
46001 
46121 
46320 
46495 
46610 
46679 
46796 
46928 
47131 
47304 
47428 
47548 
47687 
47794 
47941 
48065 
48182 
48274 
48375 
48497 
48602 
48672 
48701 
48709 
48797 
48875 
48938 
49003 
49055 
49130 
49195 
49259 
49349 
49420 
49454 
49554 
49640 
49704 
49753 
49792 
49867 
49914 
49971 
50028 
50045 
50106 
50198 
50313 
50463 
50546 
50615 
50679 
50713 
50720 
50775 
50887 
51011 
51140 
51238 
51325 
51426 
51551 
51619 
51706 
51777 
51845 
51881 
51929 
52044 
52118 
52203 
52300 
52349 
52420 
52461 
52522 
52584 
52683 
52786 
52848 
52906 
52951 
53040 
53074 
53054 
53078 
53148 
53227 
53314 
53381 
53439 
53497 
53549 
53613 
53654 
53686 
53732 
53782 
53843 
53871 
53907 
53937 
53944 
53927 
53985 
54051 
54090 
54073 
54066 
54065 
54054 
54029 
53958 
53839 
53732 
53573 
53389 
53157 
52848 
52521 
52256 
51937 
51594 
51247 
50874 
50474 
50057 
49675 
49328 
48926 
48532 
48138 
47697 
47343 
47040 
46715 
46426 
46221 
46011 
45789 
45567 
45348 
45145 
44995 
44890 
44768 
44652 
44584 
44543 
44497 
44478 
44424 
44367 
44318 
44338 
44412 
44441 
44444 
44424 
44434 
44412 
44410 
44480 
44535 
44525 
44530 
44614 
44730 
44820 
44868 
44904 
45016 
45177 
45272 
45378 
45559 
45731 
45881 
46028 
46186 
46374 
46553 
46717 
46869 
46994 
47204 
47349 
47500 
47656 
47718 
47836 
47984 
48123 
48257 
48390 
48493 
48565 
48659 
48727 
48816 
48852 
48891 
48975 
49056 
49081 
49110 
49199 
49243 
49270 
49379 
49492 
49518 
49549 
49608 
49645 
49689 
49808 
49961 
49990 
50033 
50080 
50167 
50289 
50334 
50384 
50529 
50601 
50701 
50836 
50931 
51017 
51042 
51098 
51153 
51184 
51253 
51338 
51451 
51532 
51655 
51766 
51849 
51888 
51937 
52014 
52129 
52208 
52257 
52306 
52382 
52476 
52538 
52598 
52676 
52769 
52842 
52888 
52945 
53026 
53056 
53080 
53112 
53121 
53146 
53201 
53241 
53213 
53226 
53235 
53272 
53312 
53318 
53330 
53303 
53302 
53287 
53315 
53301 
53278 
53315 
53342 
53291 
53294 
53354 
53313 
53256 
53284 
53359 
53421 
53416 
53362 
53308 
53302 
53309 
53298 
53322 
53355 
53400 
53348 
53257 
53147 
53032 
52913 
52754 
52570 
52310 
52053 
51766 
51467 
51191 
50880 
50552 
50185 
49828 
49423 
48978 
48600 
48207 
47809 
47422 
47071 
46804 
46578 
46283 
46021 
45747 
45444 
45227 
45116 
44994 
44872 
44759 
44639 
44539 
44457 
44434 
44464 
44433 
44380 
44390 
44422 
44420 
44508 
44568 
44608 
44648 
44644 
44679 
44718 
44757 
44826 
44814 
44863 
44893 
44924 
45013 
45087 
45191 
45283 
45389 
45492 
45604 
45714 
45803 
45949 
46083 
46221 
46405 
46581 
46683 
46806 
46978 
47158 
47329 
47414 
47463 
47508 
47556 
47661 
47783 
47880 
48000 
48106 
48163 
48228 
48203 
48190 
48208 
48223 
48227 
48250 
48260 
48245 
48260 
48282 
48322 
48395 
48426 
48462 
48514 
48524 
48551 
48637 
48710 
48814 
48885 
48921 
48957 
49034 
49097 
49124 
49181 
49248 
49371 
49506 
49569 
49597 
49691 
49795 
49911 
50007 
50131 
50275 
50330 
50386 
50499 
50576 
50658 
50807 
50925 
51047 
51176 
51283 
51380 
51480 
51593 
51695 
51786 
51902 
51959 
51964 
52022 
52124 
52162 
52205 
52311 
52385 
52426 
52444 
52436 
52535 
52655 
52687 
52698 
52731 
52780 
52792 
52801 
52849 
52936 
52971 
53027 
53142 
53165 
53180 
53178 
53193 
53179 
53212 
53207 
53207 
53245 
53332 
53371 
53365 
53315 
53291 
53220 
53095 
53032 
52963 
52846 
52679 
52447 
52141 
51846 
51611 
51318 
50965 
50572 
50175 
49765 
49363 
49044 
48763 
48424 
48013 
47634 
47289 
47029 
46791 
46556 
46347 
46133 
45894 
45718 
45544 
45400 
45304 
45193 
45080 
44977 
44913 
44888 
44909 
44906 
44867 
44896 
44938 
44924 
44930 
44980 
44981 
44976 
45034 
45119 
45182 
45217 
45296 
45375 
45369 
45400 
45472 
45538 
45629 
45723 
45836 
45963 
46091 
46196 
46415 
46635 
46801 
46929 
47035 
47177 
47350 
47441 
47555 
47714 
47876 
48057 
48193 
48286 
48347 
48382 
48430 
48506 
48546 
48566 
48562 
48589 
48635 
48676 
48714 
48758 
48768 
48804 
48844 
48887 
48902 
48924 
48936 
48938 
48961 
49002 
49029 
49039 
49031 
49051 
49097 
49161 
49234 
49293 
49352 
49464 
49531 
49590 
49684 
49765 
49867 
49952 
50041 
50049 
50108 
50225 
50320 
50401 
50480 
50571 
50651 
50749 
50832 
50841 
50862 
50912 
51021 
51121 
51208 
51296 
51352 
51434 
51500 
51514 
51552 
51572 
51618 
51686 
51814 
51915 
51947 
52015 
52109 
52135 
52155 
52206 
52239 
52277 
52303 
52313 
52356 
52425 
52518 
52571 
52571 
52566 
52649 
52663 
52671 
52698 
52734 
52769 
52760 
52749 
52771 
52779 
52735 
52722 
52735 
52706 
52648 
52575 
52428 
52240 
52019 
51812 
51573 
51305 
50941 
50530 
50152 
49804 
49459 
49097 
48708 
48284 
47884 
47505 
47186 
46873 
46584 
46291 
46002 
45718 
45466 
45219 
44939 
44723 
44566 
44412 
44295 
44208 
44127 
44049 
43996 
43914 
43894 
43918 
43927 
43910 
43926 
43984 
43974 
43970 
44010 
44097 
44091 
44099 
44161 
44220 
44306 
44426 
44534 
44639 
44689 
44721 
44789 
44828 
44889 
44989 
45081 
45166 
45303 
45457 
45599 
45758 
45889 
46006 
46146 
46337 
46504 
46634 
46776 
46909 
46998 
47135 
47266 
47409 
47583 
47739 
47832 
47904 
47984 
48088 
48192 
48247 
48325 
48380 
48390 
48422 
48509 
48615 
48682 
48703 
48716 
48759 
48821 
48849 
48882 
48922 
48949 
48942 
49001 
49051 
49107 
49192 
49245 
49234 
49302 
49401 
49501 
49535 
49558 
49622 
49693 
49805 
49894 
49939 
49922 
49877 
49907 
49991 
50057 
50148 
50177 
50281 
50396 
50475 
50568 
50653 
50724 
50763 
50858 
50986 
51093 
51176 
51198 
51210 
51291 
51421 
51498 
51550 
51656 
51733 
51827 
51875 
51958 
52012 
52005 
52003 
52063 
52161 
52257 
52238 
52227 
52253 
52310 
52334 
52346 
52359 
52374 
52401 
52432 
52400 
52403 
52428 
52453 
52456 
52470 
52510 
52555 
52605 
52655 
52646 
52636 
52574 
52528 
52443 
52314 
52220 
52177 
52068 
51836 
51543 
51272 
50989 
50661 
50310 
49977 
49619 
49210 
48867 
48505 
48098 
47728 
47361 
46997 
46667 
46373 
46058 
45781 
45543 
45291 
45049 
44824 
44633 
44403 
44287 
44236 
44097 
43997 
43950 
43874 
43813 
43712 
43619 
43613 
43647 
43710 
43710 
43702 
43688 
43693 
43723 
43738 
43747 
43780 
43776 
43807 
43877 
43972 
44027 
44115 
44246 
44367 
44431 
44525 
44593 
44685 
44774 
44891 
45111 
45301 
45473 
45568 
45626 
45735 
45887 
46027 
46130 
46230 
46322 
46430 
46535 
46637 
46720 
46845 
46971 
47056 
47183 
47288 
47318 
47347 
47414 
47429 
47456 
47474 
47495 
47629 
47673 
47693 
47715 
47712 
47753 
47795 
47838 
47898 
47966 
48045 
48113 
48163 
48174 
48158 
48190 
48237 
48303 
48388 
48471 
48576 
48674 
48734 
48780 
48814 
48856 
48921 
49005 
49121 
49248 
49345 
49428 
49478 
49543 
49624 
49748 
49878 
49946 
50026 
50046 
50111 
50141 
50209 
50319 
50428 
50500 
50546 
50664 
50783 
50808 
50897 
50942 
50987 
51053 
51068 
51131 
51232 
51298 
51396 
51415 
51393 
51437 
51461 
51497 
51552 
51587 
51611 
51673 
51785 
51771 
51733 
51789 
51828 
51865 
51842 
51859 
51908 
51954 
51964 
51962 
51951 
51970 
51919 
51798 
51695 
51651 
51590 
51485 
51319 
51089 
50818 
50525 
50241 
49987 
49722 
49417 
49140 
48834 
48465 
48139 
47834 
47500 
47165 
46837 
46513 
46222 
45955 
45734 
45488 
45249 
45095 
44963 
44833 
44692 
44599 
44474 
44370 
44330 
44277 
44235 
44244 
44252 
44230 
44168 
44149 
44138 
44173 
44244 
44296 
44347 
44341 
44364 
44386 
44452 
44501 
44485 
44512 
44589 
44661 
44784 
44909 
45051 
45163 
45239 
45241 
45331 
45452 
45622 
45721 
45872 
46005 
46110 
46230 
46354 
46590 
46823 
46933 
47050 
47192 
47272 
47285 
47319 
47384 
47474 
47576 
47606 
47605 
47623 
47666 
47740 
47783 
47797 
47827 
47850 
47807 
47811 
47840 
47828 
47854 
47921 
48030 
48075 
48124 
48152 
48202 
48268 
48358 
48408 
48348 
48338 
48402 
48448 
48423 
48485 
48590 
48640 
48715 
48739 
48774 
48862 
48969 
49056 
49104 
49168 
49263 
49343 
49463 
49548 
49655 
49658 
49649 
49679 
49765 
49881 
49958 
49998 
50081 
50131 
50192 
50357 
50534 
50564 
50547 
50531 
50569 
50639 
50724 
50749 
50794 
50852 
50883 
50897 
50926 
51002 
51093 
51151 
51156 
51179 
51241 
51247 
51248 
51237 
51286 
51341 
51284 
51199 
51138 
51118 
51017 
50903 
50818 
50644 
50422 
50172 
49905 
49627 
49349 
49100 
48772 
48413 
48065 
47700 
47319 
46958 
46662 
46439 
46184 
45906 
45687 
45455 
45165 
44951 
44800 
44667 
44519 
44370 
44251 
44184 
44127 
44058 
44025 
44006 
43967 
43933 
43881 
43884 
43885 
43845 
43828 
43906 
43972 
44026 
44027 
44086 
44196 
44217 
44252 
44322 
44410 
44466 
44513 
44634 
44724 
44850 
44948 
45009 
45113 
45253 
45372 
45452 
45571 
45721 
45892 
46040 
46160 
46210 
46318 
46426 
46497 
46533 
46652 
46770 
46860 
46918 
47003 
47091 
47198 
47287 
47385 
47404 
47391 
47432 
47459 
47478 
47582 
47664 
47673 
47655 
47660 
47629 
47676 
47766 
47851 
47856 
47850 
47876 
47893 
47914 
47973 
48012 
48038 
48067 
48069 
48085 
48096 
48130 
48206 
48255 
48315 
48390 
48408 
48398 
48464 
48544 
48625 
48731 
48796 
48852 
48909 
48961 
48991 
49009 
49099 
49207 
49309 
49341 
49401 
49448 
49489 
49545 
49605 
49684 
49699 
49735 
49747 
49806 
49894 
49941 
49951 
50008 
50148 
50235 
50230 
50266 
50296 
50297 
50269 
50274 
50340 
50432 
50479 
50445 
50465 
50537 
50596 
50613 
50601 
50570 
50528 
50537 
50524 
50428 
50322 
50207 
50073 
49868 
49673 
49391 
49033 
48742 
48489 
48153 
47829 
47566 
47325 
47045 
46738 
46437 
46130 
45866 
45628 
45311 
45050 
44865 
44684 
44545 
44407 
44274 
44161 
44055 
43974 
43902 
43823 
43753 
43668 
43665 
43668 
43681 
43681 
43629 
43588 
43564 
43614 
43646 
43639 
43650 
43698 
43778 
43873 
43909 
43942 
43959 
43986 
44033 
44128 
44223 
44291 
44356 
44460 
44530 
44634 
44781 
44890 
44975 
45077 
45209 
45287 
45411 
45547 
45680 
45770 
45828 
45922 
46016 
46135 
46236 
46354 
46435 
46436 
46480 
46578 
46625 
46637 
46676 
46761 
46844 
46927 
46954 
46942 
46918 
46909 
46913 
46952 
47009 
47073 
47077 
47087 
47160 
47193 
47186 
47219 
47246 
47312 
47378 
47418 
47513 
47583 
47640 
47646 
47651 
47699 
47786 
47875 
47930 
48008 
48094 
48179 
48272 
48311 
48358 
48419 
48478 
48574 
48682 
48779 
48872 
48934 
48972 
48980 
49051 
49162 
49218 
49263 
49325 
49383 
49450 
49519 
49580 
49634 
49702 
49715 
49794 
49859 
49859 
49874 
49955 
50001 
49997 
50051 
50108 
50152 
50245 
50326 
50340 
50390 
50378 
50416 
50385 
50372 
50411 
50431 
50454 
50491 
50474 
50432 
50412 
50421 
50395 
50354 
50330 
50285 
50200 
50064 
49845 
49660 
49438 
49164 
48911 
48631 
48381 
48118 
47830 
47547 
47218 
46913 
46605 
46286 
45972 
45669 
45426 
45186 
44994 
44844 
44691 
44523 
44346 
44214 
44079 
43989 
43879 
43776 
43748 
43728 
43730 
43705 
43664 
43650 
43622 
43569 
43537 
43513 
43497 
43523 
43526 
43532 
43604 
43664 
43731 
43810 
43807 
43878 
43978 
43994 
44037 
44090 
44191 
44303 
44337 
44405 
44509 
44558 
44633 
44768 
45014 
45222 
45318 
45399 
45532 
45602 
45644 
45779 
45931 
46032 
46096 
46149 
46237 
46308 
46381 
46437 
46426 
46428 
46443 
46515 
46578 
46642 
46657 
46632 
46593 
46652 
46676 
46635 
46693 
46719 
46701 
46709 
46724 
46755 
46826 
46885 
46913 
46912 
46978 
47059 
47066 
47021 
47027 
47106 
47200 
47258 
47281 
47276 
47251 
47370 
47451 
47482 
47528 
47611 
47704 
47746 
47799 
47820 
47872 
47999 
48127 
48189 
48299 
48356 
48393 
48417 
48460 
48529 
48610 
48663 
48675 
48693 
48676 
48675 
48730 
48785 
48867 
48934 
48998 
49075 
49130 
49199 
49219 
49272 
49346 
49320 
49332 
49338 
49373 
49427 
49456 
49485 
49520 
49550 
49612 
49630 
49669 
49670 
49665 
49657 
49652 
49616 
49639 
49668 
49620 
49559 
49564 
49517 
49428 
49295 
49140 
48947 
48737 
48502 
48256 
48041 
47785 
47517 
47252 
46926 
46647 
46384 
46094 
45818 
45561 
45285 
45058 
44909 
44727 
44583 
44428 
44271 
44126 
44019 
43969 
43848 
43744 
43656 
43601 
43577 
43574 
43541 
43596 
43638 
43610 
43605 
43692 
43761 
43827 
43822 
43829 
43852 
43885 
43951 
44056 
44115 
44167 
44190 
44211 
44336 
44443 
44521 
44632 
44701 
44786 
44857 
44932 
45049 
45188 
45297 
45420 
45537 
45635 
45747 
45882 
45976 
46075 
46178 
46247 
46265 
46324 
46440 
46533 
46600 
46674 
46696 
46658 
46597 
46616 
46629 
46630 
46664 
46660 
46686 
46701 
46673 
46660 
46713 
46770 
46748 
46686 
46661 
46693 
46713 
46728 
46742 
46704 
46723 
46744 
46712 
46730 
46785 
46872 
46995 
47042 
47082 
47175 
47234 
47310 
47397 
47461 
47481 
47500 
47545 
47664 
47777 
47819 
47866 
47902 
47972 
48025 
48144 
48272 
48364 
48383 
48440 
48514 
48504 
48533 
48589 
48645 
48734 
48773 
48784 
48847 
48910 
48975 
48996 
49004 
49025 
49043 
49107 
49137 
49209 
49310 
49336 
49362 
49398 
49441 
49508 
49537 
49561 
49639 
49666 
49678 
49717 
49738 
49745 
49742 
49778 
49726 
49640 
49574 
49449 
49280 
49134 
49009 
48842 
48659 
48395 
48150 
47901 
47580 
47287 
46986 
46689 
46420 
46195 
45939 
45679 
45435 
45161 
44933 
44776 
44582 
44392 
44189 
43973 
43802 
43726 
43635 
43542 
43430 
43356 
43309 
43231 
43188 
43202 
43225 
43221 
43259 
43275 
43278 
43276 
43310 
43347 
43389 
43447 
43495 
43495 
43573 
43606 
43641 
43709 
43795 
43897 
44029 
44108 
44145 
44206 
44249 
44262 
44379 
44512 
44638 
44746 
44793 
44901 
45015 
45088 
45211 
45348 
45454 
45531 
45606 
45725 
45845 
45976 
46087 
46179 
46283 
46341 
46419 
46456 
46450 
46517 
46538 
46571 
46572 
46578 
46652 
46717 
46730 
46709 
46764 
46809 
46829 
46844 
46831 
46872 
46890 
46935 
47063 
47149 
47174 
47177 
47222 
47271 
47320 
47365 
47426 
47480 
47516 
47565 
47609 
47614 
47661 
47741 
47830 
47869 
47935 
48002 
48017 
48087 
48146 
48180 
48296 
48401 
48424 
48487 
48571 
48632 
48674 
48741 
48850 
48911 
48897 
48950 
49049 
49102 
49145 
49153 
49138 
49176 
49245 
49251 
49281 
49373 
49479 
49519 
49482 
49479 
49533 
49605 
49673 
49687 
49677 
49680 
49726 
49734 
49728 
49762 
49819 
49842 
49845 
49895 
49935 
49970 
49928 
49814 
49706 
49672 
49673 
49589 
49426 
49258 
49079 
48862 
48645 
48479 
48248 
47999 
47697 
47358 
47067 
46774 
46463 
46205 
45936 
45662 
45429 
45165 
44908 
44674 
44465 
44224 
44043 
43888 
43725 
43610 
43460 
43320 
43229 
43138 
43030 
42980 
42952 
42951 
42918 
42923 
42945 
42975 
42955 
42930 
42956 
43010 
43032 
43053 
43166 
43204 
43228 
43258 
43274 
43326 
43349 
43374 
43452 
43526 
43521 
43616 
43738 
43863 
43925 
43991 
44085 
44237 
44371 
44442 
44548 
44713 
44822 
44935 
45079 
45132 
45219 
45393 
45514 
45577 
45617 
45689 
45756 
45837 
45964 
46043 
46074 
46135 
46215 
46273 
46263 
46267 
46340 
46389 
46458 
46559 
46595 
46586 
46589 
46588 
46634 
46686 
46749 
46808 
46844 
46813 
46864 
46953 
47016 
47105 
47231 
47301 
47386 
47447 
47495 
47522 
47591 
47682 
47751 
47839 
47879 
47933 
48029 
48065 
48123 
48209 
48273 
48318 
48375 
48411 
48453 
48512 
48561 
48642 
48720 
48789 
48881 
48961 
49001 
49037 
49041 
49074 
49119 
49183 
49243 
49314 
49391 
49408 
49407 
49400 
49473 
49572 
49649 
49656 
49671 
49732 
49787 
49811 
49836 
49871 
49897 
49935 
49979 
50023 
50014 
50042 
50041 
49981 
49969 
50014 
50022 
49996 
49997 
50053 
50115 
50108 
50097 
50058 
50047 
50013 
49991 
50001 
50036 
50069 
50023 
49977 
49930 
49866 
49805 
49709 
49559 
49393 
49173 
48960 
48765 
48524 
48248 
47968 
47645 
47348 
47047 
46748 
46483 
46174 
45808 
45473 
45155 
44866 
44600 
44362 
44140 
43906 
43683 
43492 
43343 
43249 
43202 
43140 
43054 
43001 
42927 
42795 
42703 
42634 
42586 
42572 
42519 
42522 
42509 
42477 
42475 
42499 
42512 
42532 
42589 
42664 
42754 
42837 
42878 
42886 
42885 
42929 
43015 
43072 
43079 
43140 
43245 
43350 
43452 
43555 
43672 
43822 
43911 
44039 
44191 
44284 
44393 
44513 
44629 
44728 
44849 
44998 
45083 
45151 
45242 
45285 
45332 
45415 
45447 
45499 
45591 
45649 
45712 
45812 
45902 
45994 
46011 
46014 
46099 
46142 
46148 
46093 
46088 
46120 
46150 
46242 
46319 
46349 
46359 
46398 
46411 
46450 
46518 
46554 
46614 
46690 
46721 
46752 
46775 
46877 
46996 
47010 
47003 
47049 
47191 
47357 
47452 
47480 
47565 
47693 
47795 
47843 
47929 
47978 
48023 
48064 
48133 
48163 
48239 
48321 
48408 
48491 
48582 
48646 
48676 
48747 
48844 
48875 
48887 
48906 
49002 
49084 
49106 
49143 
49167 
49214 
49253 
49321 
49378 
49402 
49459 
49516 
49588 
49642 
49684 
49740 
49793 
49820 
49845 
49870 
49911 
49955 
50008 
50025 
50100 
50112 
50122 
50180 
50214 
50266 
50274 
50242 
50217 
50206 
50198 
50184 
50152 
50068 
50017 
49953 
49859 
49818 
49695 
49521 
49390 
49258 
49052 
48819 
48607 
48387 
48112 
47824 
47544 
47239 
46950 
46668 
46463 
46265 
46033 
45766 
45521 
45324 
45133 
44967 
44783 
44609 
44458 
44319 
44147 
44013 
43945 
43891 
43839 
43816 
43766 
43755 
43758 
43774 
43798 
43837 
43854 
43873 
43956 
43974 
43978 
43993 
44047 
44159 
44192 
44183 
44244 
44340 
44476 
44556 
44597 
44682 
44829 
44885 
44953 
45047 
45086 
45116 
45187 
45322 
45424 
45510 
45575 
45696 
45817 
45879 
45947 
46037 
46128 
46204 
46277 
46416 
46502 
46553 
46585 
46605 
46649 
46748 
46832 
46850 
46833 
46838 
46848 
46832 
46785 
46788 
46879 
46920 
46927 
46947 
46954 
47007 
47046 
47089 
47088 
47127 
47175 
47178 
47160 
47147 
47144 
47148 
47158 
47179 
47214 
47226 
47286 
47336 
47321 
47373 
47416 
47405 
47435 
47532 
47593 
47583 
47593 
47561 
47558 
47603 
47640 
47684 
47734 
47787 
47834 
47839 
47888 
47905 
47854 
47865 
47860 
47854 
47918 
47949 
48008 
48036 
48048 
48105 
48145 
48168 
48192 
48235 
48265 
48317 
48378 
48364 
48386 
48524 
48602 
48633 
48673 
48688 
48738 
48790 
48833 
48880 
48930 
48966 
49015 
49094 
49153 
49199 
49229 
49280 
49304 
49306 
49340 
49453 
49505 
49543 
49542 
49537 
49527 
49537 
49575 
49594 
49624 
49655 
49640 
49654 
49672 
49674 
49691 
49698 
49684 
49658 
49588 
49489 
49344 
49249 
49149 
48980 
48730 
48437 
48173 
47916 
47655 
47330 
47023 
46719 
46429 
46210 
45952 
45639 
45362 
45093 
44855 
44630 
44420 
44248 
44036 
43875 
43710 
43581 
43480 
43394 
43338 
43244 
43149 
43054 
42972 
42912 
42850 
42814 
42748 
42696 
42650 
42639 
42616 
42589 
42601 
42624 
42651 
42678 
42684 
42678 
42675 
42747 
42827 
42880 
42949 
42959 
42988 
43084 
43141 
43193 
43330 
43462 
43571 
43624 
43663 
43695 
43750 
43868 
44013 
44097 
44192 
44295 
44352 
44483 
44626 
44660 
44740 
44843 
44923 
45004 
45098 
45159 
45224 
45320 
45447 
45608 
45758 
45860 
45963 
46068 
46118 
46158 
46257 
46367 
46486 
46543 
46592 
46631 
46725 
46818 
46929 
47001 
47093 
47183 
47224 
47265 
47343 
47465 
47563 
47587 
47640 
47765 
47864 
47905 
47944 
48019 
48113 
48177 
48207 
48207 
48240 
48342 
48422 
48407 
48387 
48412 
48487 
48539 
48570 
48592 
48615 
48651 
48674 
48717 
48791 
48855 
48886 
48942 
49031 
49122 
49155 
49158 
49099 
49095 
49094 
49131 
49176 
49296 
49390 
49427 
49410 
49388 
49375 
49328 
49298 
49296 
49257 
49273 
49251 
49318 
49335 
49296 
49316 
49263 
49197 
49161 
49095 
49074 
49069 
49039 
49029 
48966 
48882 
48803 
48695 
48634 
48541 
48452 
48393 
48330 
48206 
48098 
47996 
47903 
47857 
47789 
47763 
47685 
47585 
47500 
47424 
47384 
47331 
47212 
47064 
46972 
46886 
46773 
46690 
46564 
46445 
46403 
46329 
46197 
46050 
45949 
45842 
45752 
45708 
45666 
45597 
45457 
45338 
45284 
45255 
45205 
45105 
45017 
44981 
44961 
44908 
44790 
44712 
44657 
44661 
44692 
44695 
44685 
44656 
44666 
44638 
44569 
44514 
44484 
44473 
44482 
44503 
44537 
44563 
44555 
44530 
44521 
44564 
44650 
44691 
44674 
44676 
44707 
44694 
44688 
44725 
44725 
44693 
44711 
44807 
44849 
44881 
44944 
44988 
45035 
45059 
45121 
45244 
45300 
45371 
45465 
45502 
45515 
45546 
45610 
45588 
45634 
45684 
45739 
45840 
45855 
45886 
45887 
45915 
45923 
45924 
45933 
45949 
45951 
45955 
45994 
45994 
45989 
45989 
45961 
46004 
45998 
45933 
45866 
45856 
45859 
45883 
45869 
45808 
45753 
45720 
45649 
45614 
45584 
45546 
45518 
45501 
45466 
45408 
45415 
45438 
45374 
45286 
45227 
45177 
45107 
45077 
45045 
45043 
45061 
45039 
45022 
45048 
45045 
45034 
45024 
44978 
44941 
44949 
44971 
44971 
44995 
45036 
45029 
44991 
44987 
45058 
45088 
45120 
45115 
45131 
45167 
45197 
45252 
45265 
45254 
45312 
45461 
45480 
45482 
45497 
45486 
45443 
45495 
45589 
45675 
45742 
45744 
45731 
45720 
45750 
45818 
45919 
46034 
46116 
46165 
46251 
46315 
46310 
46261 
46284 
46347 
46453 
46576 
46613 
46638 
46704 
46703 
46676 
46643 
46643 
46719 
46845 
46867 
46878 
46957 
47040 
47085 
47157 
47278 
47363 
47342 
47354 
47367 
47408 
47483 
47502 
47534 
47608 
47658 
47682 
47692 
47725 
47752 
47791 
47797 
47777 
47822 
47877 
47908 
47946 
48030 
48016 
47958 
47968 
47938 
47909 
47931 
47979 
48042 
48046 
48015 
48007 
47997 
47952 
47918 
47912 
47920 
47923 
47895 
47875 
47904 
47958 
47983 
47967 
48011 
48037 
48074 
48132 
48094 
48055 
48054 
48072 
48108 
48172 
48203 
48259 
48320 
48291 
48272 
48336 
48345 
48321 
48339 
48369 
48325 
48375 
48434 
48386 
48400 
48458 
48489 
48490 
48521 
48552 
48617 
48592 
48611 
48668 
48682 
48715 
48721 
48715 
48648 
48562 
48563 
48653 
48679 
48668 
48650 
48723 
48762 
48755 
48737 
48720 
48745 
48757 
48768 
48703 
48686 
48699 
48682 
48713 
48728 
48720 
48711 
48725 
48768 
48786 
48822 
48827 
48840 
48830 
48868 
48909 
48900 
48883 
48838 
48791 
48767 
48794 
48822 
48839 
48867 
48881 
48912 
48940 
48928 
48904 
48848 
48845 
48838 
48808 
48815 
48833 
48837 
48846 
48862 
48892 
48888 
48823 
48765 
48757 
48777 
48806 
48843 
48865 
48899 
48849 
48784 
48778 
48829 
48906 
48890 
48807 
48751 
48714 
48670 
48671 
48692 
48692 
48640 
48573 
48543 
48536 
48562 
48581 
48587 
48605 
48584 
48522 
48508 
48494 
48539 
48558 
48531 
48508 
48495 
48474 
48420 
48374 
48330 
48320 
48342 
48368 
48403 
48388 
48344 
48308 
48321 
48286 
48230 
48199 
48155 
48140 
48122 
48069 
48054 
48085 
48128 
48163 
48145 
48124 
48121 
48094 
48063 
48044 
48055 
48107 
48131 
48144 
48166 
48132 
48079 
48045 
48020 
47955 
47938 
47965 
47976 
47930 
47853 
47770 
47752 
47753 
47702 
47673 
47667 
47750 
47816 
47756 
47680 
47691 
47709 
47709 
47715 
47668 
47643 
47576 
47474 
47486 
47544 
47568 
47612 
47584 
47554 
47554 
47498 
47419 
47360 
47349 
47359 
47385 
47363 
47327 
47346 
47360 
47364 
47351 
47316 
47293 
47305 
47329 
47303 
47256 
47218 
47223 
47273 
47254 
47192 
47158 
47125 
47084 
47109 
47114 
47078 
47055 
47025 
47046 
47041 
47018 
47002 
46945 
46957 
47011 
47000 
46967 
46967 
46977 
46954 
46889 
46848 
46828 
46835 
46876 
46878 
46868 
46900 
46899 
46859 
46840 
46829 
46815 
46853 
46842 
46833 
46821 
46769 
46724 
46712 
46693 
46692 
46646 
46619 
46661 
46665 
46669 
46701 
46707 
46709 
46703 
46719 
46725 
46729 
46707 
46632 
46589 
46558 
46576 
46567 
46566 
46634 
46654 
46612 
46590 
46583 
46564 
46556 
46597 
46604 
46624 
46611 
46553 
46530 
46521 
46552 
46530 
46479 
46442 
46415 
46416 
46427 
46361 
46376 
46386 
46376 
46405 
46412 
46432 
46427 
46424 
46480 
46501 
46458 
46448 
46460 
46434 
46406 
46382 
46368 
46356 
46458 
46532 
46493 
46472 
46477 
46488 
46478 
46432 
46457 
46522 
46495 
46501 
46494 
46474 
46447 
46456 
46498 
46503 
46427 
46405 
46455 
46500 
46535 
46526 
46483 
46405 
46365 
46343 
46322 
46343 
46353 
46347 
46343 
46367 
46402 
46444 
46446 
46457 
46442 
46412 
46396 
46401 
46428 
46427 
46445 
46472 
46468 
46426 
46465 
46442 
46401 
46396 
46400 
46417 
46383 
46372 
46380 
46431 
46445 
46428 
46413 
46411 
46376 
46302 
46260 
46244 
46227 
46279 
46311 
46314 
46318 
46343 
46317 
46298 
46270 
46251 
46265 
46256 
46239 
46268 
46308 
46332 
46337 
46334 
46312 
46300 
46283 
46270 
46268 
46291 
46317 
46313 
46374 
46337 
46269 
46272 
46239 
46230 
46253 
46275 
46297 
46269 
46259 
46286 
46265 
46266 
46264 
46235 
46220 
46203 
46189 
46158 
46129 
46137 
46083 
46058 
46035 
46060 
46102 
46078 
46044 
46084 
46126 
46165 
46189 
46195 
46207 
46256 
46259 
46208 
46200 
46246 
46197 
46143 
46201 
46273 
46267 
46220 
46214 
46259 
46258 
46239 
46243 
46249 
46310 
46323 
46279 
46271 
46283 
46271 
46246 
46208 
46217 
46231 
46246 
46271 
46264 
46229 
46168 
46079 
46064 
46141 
46142 
46135 
46164 
46183 
46180 
46226 
46305 
46330 
46396 
46379 
46328 
46261 
46198 
46217 
46203 
46185 
46174 
46164 
46185 
46185 
46183 
46234 
46260 
46200 
46142 
46130 
46167 
46134 
46112 
46084 
46073 
46123 
46210 
46205 
46180 
46181 
46230 
46257 
46187 
46101 
46060 
46047 
46095 
46125 
46122 
46092 
46092 
46061 
46052 
46082 
46067 
46029 
46001 
45971 
46003 
46023 
46007 
46006 
46023 
46017 
46022 
46021 
45993 
45943 
45916 
45884 
45898 
45927 
45946 
45968 
45964 
45971 
45969 
45948 
45955 
45955 
45990 
46035 
46021 
45992 
45962 
45951 
45940 
45907 
45925 
45922 
45935 
45942 
45890 
45866 
45880 
45875 
45899 
45869 
45855 
45858 
45833 
45816 
45785 
45779 
45785 
45784 
45804 
45827 
45817 
45760 
45771 
45775 
45756 
45785 
45782 
45778 
45771 
45781 
45794 
45742 
45694 
45645 
45627 
45652 
45603 
45594 
45609 
45613 
45609 
45640 
45622 
45583 
45573 
45567 
45616 
45641 
45666 
45651 
45634 
45617 
45632 
45619 
45581 
45550 
45577 
45580 
45552 
45626 
45706 
45710 
45682 
45687 
45741 
45770 
45768 
45744 
45686 
45694 
45724 
45732 
45726 
45727 
45702 
45679 
45676 
45695 
45713 
45722 
45718 
45678 
45682 
45725 
45726 
45718 
45667 
45666 
45716 
45726 
45660 
45631 
45655 
45666 
45689 
45627 
45594 
45588 
45630 
45641 
45589 
45545 
45507 
45501 
45513 
45504 
45471 
45489 
45483 
45431 
45410 
45408 
45429 
45502 
45560 
45571 
45573 
45576 
45609 
45617 
45552 
45524 
45543 
45529 
45544 
45599 
45582 
45505 
45451 
45440 
45535 
45615 
45604 
45577 
45576 
45555 
45553 
45573 
45572 
45557 
45484 
45525 
45566 
45554 
45574 
45617 
45585 
45602 
45614 
45588 
45568 
45541 
45525 
45535 
45573 
45569 
45565 
45547 
45566 
45604 
45606 
45604 
45587 
45565 
45569 
45590 
45562 
45524 
45508 
45508 
45499 
45545 
45571 
45591 
45617 
45678 
45714 
45708 
45654 
45624 
45602 
45598 
45577 
45596 
45574 
45579 
45606 
45601 
45560 
45528 
45476 
45482 
45512 
45546 
45563 
45558 
45580 
45655 
45645 
45620 
45602 
45543 
45532 
45560 
45609 
45601 
45594 
45602 
45624 
45660 
45664 
45666 
45676 
45667 
45652 
45665 
45635 
45608 
45630 
45663 
45661 
45612 
45591 
45648 
45676 
45663 
45652 
45698 
45740 
45719 
45683 
45672 
45656 
45668 
45634 
45598 
45598 
45649 
45670 
45681 
45675 
45677 
45691 
45636 
45609 
45585 
45551 
45607 
45620 
45598 
45480 
45410 
45445 
45484 
45502 
45524 
45581 
45616 
45647 
45633 
45594 
45572 
45540 
45551 
45605 
45657 
45666 
45622 
45556 
45503 
45463 
45411 
45440 
45434 
45406 
45436 
45446 
45452 
45463 
45476 
45487 
45523 
45546 
45482 
45398 
45373 
45423 
45494 
45592 
45574 
45440 
45401 
45408 
45395 
45352 
45297 
45252 
45226 
45252 
45287 
45285 
45310 
45268 
45213 
45204 
45211 
45217 
45250 
45292 
45247 
45124 
45136 
45187 
45238 
45283 
45239 
45196 
45195 
45232 
45256 
45191 
45149 
45184 
45191 
45163 
45147 
45123 
45138 
45177 
45119 
45082 
45086 
45064 
45044 
45092 
45146 
45203 
45151 
45119 
45185 
45224 
45177 
45245 
45305 
45261 
45208 
45209 
45201 
45195 
45208 
45236 
45179 
45168 
45176 
45152 
45152 
45143 
45158 
45170 
45148 
45163 
45222 
45240 
45212 
45176 
45128 
45142 
45134 
45096 
45103 
45045 
45000 
44974 
44969 
44988 
44999 
44999 
45013 
44986 
44939 
44921 
44942 
44985 
45031 
45005 
44987 
45013 
45030 
44982 
44987 
44936 
44967 
45009 
44997 
45008 
45010 
44949 
44889 
44925 
44963 
44989 
45005 
45033 
45016 
45006 
44984 
44936 
44868 
44848 
44833 
44881 
44959 
44986 
44950 
44940 
44984 
45000 
45019 
45042 
44980 
44940 
44958 
44989 
44984 
44997 
45006 
44974 
44978 
44958 
44944 
44987 
44985 
44986 
45010 
45030 
45011 
45016 
44987 
44936 
44942 
44983 
44973 
44969 
45034 
45007 
44938 
44860 
44828 
44851 
44813 
44874 
44965 
44996 
44995 
45041 
45027 
44998 
45012 
45013 
44946 
44888 
44898 
44958 
44989 
44990 
44988 
44976 
44986 
44930 
44901 
44868 
44835 
44865 
44847 
44796 
44841 
44846 
44835 
44857 
44796 
44761 
44713 
44694 
44704 
44638 
44621 
44653 
44615 
44581 
44569 
44575 
44536 
44540 
44570 
44571 
44572 
44499 
44437 
44409 
44425 
44444 
44393 
44356 
44374 
44370 
44345 
44354 
44354 
44320 
44268 
44223 
44210 
44184 
44182 
44195 
44183 
44193 
44205 
44193 
44192 
44190 
44203 
44148 
44086 
44055 
44110 
44107 
44043 
43988 
43969 
43955 
43916 
43915 
43974 
43943 
43971 
43996 
43969 
43956 
43997 
44016 
44015 
43957 
43933 
43962 
43983 
43971 
43976 
43946 
43903 
43891 
43962 
43964 
43978 
44022 
43954 
43969 
43966 
43986 
44028 
44102 
44100 
44061 
44064 
44041 
44017 
44048 
44086 
44097 
44088 
44061 
44068 
44083 
44041 
44057 
44107 
44182 
44228 
44221 
44205 
44178 
44196 
44237 
44262 
44279 
44298 
44347 
44428 
44438 
44412 
44380 
44349 
44359 
44412 
44411 
44418 
44459 
44464 
44432 
44415 
44462 
44539 
44575 
44637 
44686 
44660 
44677 
44663 
44659 
44672 
44654 
44662 
44707 
44669 
44692 
44716 
44738 
44773 
44752 
44741 
44767 
44767 
44722 
44750 
44823 
44855 
44856 
44802 
44771 
44802 
44835 
44846 
44820 
44835 
44854 
44839 
44849 
44887 
44875 
44870 
44889 
44851 
44857 
44892 
44860 
44825 
44856 
44886 
44897 
44825 
44780 
44729 
44682 
44680 
44640 
44625 
44655 
44669 
44617 
44545 
44442 
44388 
44393 
44338 
44299 
44271 
44245 
44215 
44200 
44087 
43988 
43920 
43898 
43907 
43852 
43786 
43729 
43697 
43667 
43627 
43623 
43621 
43556 
43527 
43551 
43514 
43459 
43425 
43408 
43419 
43434 
43428 
43385 
43376 
43409 
43398 
43385 
43385 
43415 
43447 
43460 
43413 
43384 
43431 
43468 
43409 
43383 
43417 
43410 
43407 
43451 
43462 
43527 
43598 
43607 
43601 
43590 
43608 
43645 
43674 
43679 
43671 
43630 
43634 
43679 
43697 
43742 
43787 
43817 
43868 
43911 
43886 
43899 
43956 
43975 
43935 
43909 
43896 
43947 
44002 
44067 
44131 
44144 
44157 
44247 
44302 
44332 
44358 
44413 
44399 
44403 
44447 
44472 
44495 
44538 
44630 
44730 
44744 
44773 
44802 
44784 
44742 
44775 
44842 
44872 
44940 
44955 
44986 
45027 
45026 
45002 
44984 
45000 
45046 
45105 
45151 
45186 
45205 
45210 
45217 
45220 
45244 
45281 
45323 
45358 
45367 
45367 
45456 
45468 
45499 
45540 
45591 
45633 
45645 
45637 
45632 
45610 
45657 
45671 
45683 
45707 
45770 
45833 
45858 
45836 
45797 
45843 
45835 
45879 
45953 
46006 
46031 
46012 
45968 
45947 
45954 
45970 
45939 
45886 
45825 
45754 
45665 
45628 
45662 
45642 
45630 
45590 
45537 
45472 
45441 
45381 
45314 
45254 
45181 
45125 
45044 
44969 
44923 
44828 
44745 
44654 
44685 
44727 
44705 
44646 
44594 
44522 
44412 
44304 
44242 
44177 
44072 
43971 
43881 
43842 
43826 
43796 
43780 
43746 
43671 
43633 
43655 
43621 
43565 
43542 
43480 
43396 
43386 
43380 
43354 
43347 
43314 
43276 
43270 
43283 
43316 
43325 
43302 
43263 
43299 
43349 
43360 
43346 
43315 
43329 
43361 
43389 
43396 
43383 
43381 
43402 
43396 
43381 
43419 
43407 
43393 
43466 
43548 
43580 
43587 
43587 
43634 
43671 
43715 
43659 
43642 
43654 
43701 
43752 
43783 
43828 
43908 
43959 
43958 
43980 
43967 
44004 
44044 
44057 
44126 
44264 
44347 
44317 
44341 
44345 
44316 
44393 
44506 
44545 
44533 
44518 
44620 
44736 
44754 
44783 
44838 
44873 
44846 
44877 
44921 
44967 
45021 
45065 
45119 
45152 
45203 
45241 
45304 
45350 
45412 
45439 
45468 
45491 
45517 
45549 
45596 
45686 
45737 
45757 
45820 
45838 
45825 
45838 
45898 
45967 
46066 
46128 
46180 
46210 
46222 
46243 
46282 
46271 
46287 
46336 
46339 
46403 
46498 
46532 
46499 
46521 
46528 
46538 
46542 
46529 
46538 
46548 
46562 
46588 
46624 
46640 
46489 
46358 
46329 
46289 
46276 
46210 
46081 
46025 
46005 
45983 
45868 
45753 
45668 
45636 
45551 
45480 
45366 
45253 
45166 
45103 
45033 
44934 
44811 
44702 
44648 
44651 
44626 
44579 
44539 
44487 
44431 
44395 
44334 
44320 
44265 
44215 
44165 
44185 
44154 
44133 
44075 
43969 
43888 
43874 
43895 
43939 
43974 
43974 
43946 
43939 
43993 
44058 
44054 
44028 
44013 
44012 
44046 
44087 
44106 
44096 
44143 
44172 
44262 
44366 
44354 
44377 
44463 
44531 
44553 
44481 
44520 
44607 
44631 
44617 
44658 
44714 
44777 
44791 
44820 
44852 
44923 
44980 
44991 
45019 
45067 
45064 
45097 
45143 
45228 
45340 
45386 
45441 
45516 
45579 
45585 
45567 
45546 
45561 
45675 
45765 
45785 
45817 
45798 
45822 
45938 
46005 
46004 
46087 
46141 
46147 
46132 
46135 
46163 
46202 
46254 
46348 
46381 
46401 
46460 
46545 
46553 
46590 
46689 
46742 
46792 
46845 
46819 
46836 
46863 
46893 
46927 
46985 
47023 
47097 
47115 
47151 
47156 
47195 
47162 
47153 
47148 
47179 
47277 
47331 
47381 
47412 
47403 
47388 
47403 
47460 
47545 
47558 
47544 
47545 
47528 
47540 
47588 
47560 
47524 
47515 
47575 
47626 
47600 
47587 
47580 
47578 
47571 
47645 
47665 
47677 
47681 
47625 
47638 
47677 
47657 
47632 
47648 
47580 
47479 
47410 
47344 
47212 
47115 
46995 
46872 
46778 
46644 
46529 
46457 
46393 
46255 
46127 
46024 
45922 
45826 
45788 
45690 
45592 
45517 
45436 
45401 
45389 
45313 
45214 
45111 
45029 
44959 
44939 
44847 
44683 
44609 
44621 
44652 
44653 
44644 
44596 
44539 
44523 
44569 
44590 
44617 
44618 
44580 
44593 
44640 
44665 
44671 
44736 
44756 
44767 
44801 
44816 
44855 
44925 
44943 
44995 
45040 
45099 
45164 
45203 
45278 
45307 
45308 
45366 
45391 
45390 
45456 
45522 
45559 
45556 
45561 
45647 
45723 
45736 
45767 
45847 
45880 
45922 
46032 
46103 
46173 
46206 
46247 
46285 
46391 
46460 
46543 
46606 
46645 
46648 
46670 
46696 
46747 
46871 
46973 
46998 
46996 
47014 
47029 
47045 
47136 
47180 
47160 
47196 
47246 
47247 
47267 
47351 
47445 
47489 
47560 
47624 
47653 
47686 
47744 
47748 
47696 
47661 
47692 
47707 
47748 
47805 
47833 
47859 
47895 
47945 
47975 
48021 
48066 
48113 
48126 
48123 
48150 
48175 
48212 
48276 
48277 
48281 
48243 
48231 
48294 
48307 
48294 
48302 
48325 
48337 
48375 
48382 
48369 
48406 
48499 
48504 
48514 
48533 
48509 
48477 
48478 
48493 
48490 
48537 
48552 
48547 
48560 
48569 
48561 
48617 
48653 
48626 
48588 
48567 
48582 
48622 
48609 
48533 
48480 
48430 
48446 
48525 
48601 
48599 
48588 
48599 
48588 
48517 
48479 
48476 
48405 
48313 
48259 
48193 
48050 
47925 
47858 
47760 
47592 
47388 
47226 
47026 
46877 
46756 
46611 
46442 
46304 
46224 
46187 
46147 
46075 
46003 
45883 
45740 
45598 
45452 
45343 
45273 
45232 
45202 
45174 
45156 
45079 
45048 
45019 
44944 
44848 
44745 
44749 
44801 
44773 
44705 
44698 
44692 
44672 
44696 
44678 
44700 
44718 
44731 
44795 
44863 
44956 
44983 
45002 
45068 
45089 
45099 
45141 
45186 
45222 
45325 
45460 
45565 
45598 
45666 
45762 
45833 
45915 
45947 
46054 
46129 
46181 
46276 
46339 
46359 
46407 
46502 
46568 
46621 
46678 
46713 
46695 
46732 
46771 
46855 
46896 
46935 
46932 
46896 
46912 
46938 
46985 
47108 
47186 
47197 
47234 
47306 
47342 
47339 
47362 
47386 
47407 
47468 
47524 
47493 
47530 
47583 
47605 
47596 
47602 
47627 
47611 
47629 
47681 
47715 
47776 
47815 
47906 
47961 
47974 
47948 
47936 
48017 
48134 
48155 
48159 
48187 
48179 
48150 
48165 
48250 
48331 
48383 
48363 
48398 
48415 
48435 
48414 
48375 
48379 
48410 
48480 
48533 
48556 
48557 
48531 
48504 
48528 
48580 
48638 
48669 
48681 
48732 
48725 
48725 
48710 
48746 
48755 
48725 
48719 
48726 
48721 
48706 
48678 
48638 
48602 
48628 
48679 
48720 
48708 
48690 
48726 
48749 
48735 
48708 
48677 
48666 
48629 
48563 
48458 
48371 
48264 
48185 
48075 
47874 
47655 
47473 
47280 
47112 
46977 
46785 
46618 
46465 
46337 
46194 
46047 
45906 
45800 
45666 
45486 
45357 
45272 
45186 
45120 
45047 
44985 
44956 
44920 
44844 
44754 
44643 
44515 
44420 
44349 
44301 
44254 
44189 
44147 
44123 
44167 
44208 
44237 
44232 
44227 
44232 
44259 
44297 
44329 
44356 
44432 
44528 
44572 
44589 
44608 
44659 
44710 
44807 
44982 
45101 
45114 
45117 
45162 
45269 
45362 
45413 
45517 
45633 
45703 
45738 
45770 
45817 
45938 
46061 
46162 
46249 
46315 
46408 
46485 
46508 
46531 
46584 
46661 
46762 
46823 
46892 
46932 
46952 
47022 
47069 
47107 
47163 
47239 
47300 
47341 
47425 
47451 
47494 
47542 
47626 
47646 
47648 
47708 
47739 
47760 
47800 
47884 
47935 
47942 
47967 
47979 
48004 
48038 
48086 
48109 
48127 
48173 
48156 
48205 
48264 
48323 
48321 
48269 
48275 
48320 
48409 
48499 
48553 
48579 
48617 
48666 
48668 
48688 
48724 
48775 
48806 
48817 
48848 
48863 
48851 
48843 
48865 
48885 
48913 
48981 
49052 
49084 
49092 
49073 
49007 
49002 
49011 
49044 
49129 
49198 
49205 
49132 
49122 
49127 
49152 
49152 
49177 
49221 
49210 
49208 
49176 
49170 
49221 
49280 
49298 
49273 
49243 
49262 
49264 
49269 
49288 
49327 
49343 
49290 
49243 
49178 
49114 
49093 
49039 
48972 
48853 
48688 
48489 
48306 
48134 
47893 
47700 
47525 
47340 
47178 
46995 
46795 
46598 
46407 
46216 
46031 
45835 
45663 
45520 
45361 
45199 
45072 
44971 
44855 
44683 
44542 
44402 
44312 
44197 
44079 
43967 
43870 
43835 
43820 
43751 
43693 
43666 
43604 
43519 
43453 
43413 
43449 
43475 
43469 
43519 
43565 
43599 
43657 
43655 
43652 
43696 
43755 
43854 
43953 
43987 
44027 
44166 
44321 
44416 
44501 
44596 
44650 
44758 
44864 
44956 
45066 
45152 
45295 
45364 
45499 
45634 
45744 
45839 
45930 
46014 
46120 
46194 
46233 
46281 
46330 
46371 
46421 
46523 
46638 
46730 
46790 
46793 
46829 
46906 
46985 
46991 
46939 
46938 
47035 
47065 
47100 
47200 
47283 
47360 
47422 
47508 
47530 
47544 
47615 
47702 
47776 
47783 
47839 
47894 
47898 
47926 
48008 
48068 
48123 
48147 
48165 
48202 
48173 
48172 
48205 
48274 
48341 
48431 
48459 
48484 
48530 
48591 
48624 
48667 
48672 
48750 
48790 
48794 
48847 
48855 
48900 
48954 
49002 
49097 
49181 
49195 
49195 
49215 
49231 
49250 
49271 
49295 
49334 
49378 
49422 
49404 
49353 
49308 
49335 
49438 
49506 
49516 
49550 
49575 
49571 
49566 
49579 
49550 
49554 
49603 
49675 
49685 
49700 
49752 
49796 
49788 
49791 
49785 
49695 
49674 
49790 
49859 
49895 
49902 
49892 
49884 
49891 
49903 
49887 
49864 
49811 
49762 
49777 
49815 
49781 
49722 
49679 
49680 
49625 
49486 
49310 
49116 
48921 
48752 
48547 
48338 
48158 
47924 
47642 
47385 
47160 
46931 
46700 
46511 
46322 
46085 
45870 
45678 
45489 
45263 
45033 
44869 
44731 
44547 
44441 
44368 
44270 
44177 
44051 
43928 
43832 
43736 
43650 
43573 
43534 
43506 
43487 
43425 
43363 
43326 
43285 
43314 
43388 
43422 
43414 
43443 
43477 
43507 
43552 
43614 
43740 
43802 
43844 
43915 
44012 
44062 
44103 
44178 
44220 
44330 
44451 
44607 
44709 
44871 
45036 
45083 
45170 
45322 
45392 
45443 
45563 
45661 
45731 
45859 
46006 
46117 
46207 
46277 
46372 
46421 
46467 
46501 
46549 
46619 
46729 
46827 
46895 
47001 
47026 
47097 
47159 
47165 
47203 
47262 
47303 
47433 
47582 
47639 
47675 
47757 
47785 
47804 
47916 
47965 
47970 
47996 
48029 
48064 
48095 
48119 
48210 
48274 
48289 
48300 
48384 
48467 
48502 
48551 
48608 
48621 
48645 
48701 
48743 
48786 
48792 
48846 
48911 
48960 
49009 
49047 
49070 
49102 
49173 
49198 
49204 
49274 
49361 
49419 
49447 
49486 
49552 
49602 
49675 
49673 
49708 
49756 
49801 
49876 
49876 
49865 
49861 
49915 
49890 
49827 
49824 
49893 
49961 
49925 
49915 
49916 
49903 
50000 
50071 
50103 
50070 
50043 
50052 
50098 
50078 
50098 
50107 
50093 
50140 
50194 
50217 
50208 
50132 
50036 
49916 
49815 
49660 
49447 
49266 
49070 
48876 
48666 
48455 
48214 
47944 
47669 
47433 
47220 
46977 
46752 
46560 
46370 
46172 
46019 
45894 
45730 
45564 
45380 
45188 
45051 
44905 
44776 
44671 
44592 
44462 
44322 
44242 
44232 
44269 
44250 
44176 
44104 
44090 
44091 
44115 
44185 
44218 
44251 
44278 
44294 
44247 
44262 
44301 
44371 
44490 
44635 
44714 
44835 
44972 
45037 
45116 
45256 
45336 
45485 
45643 
45758 
45866 
45935 
46059 
46188 
46261 
46380 
46531 
46684 
46734 
46844 
46994 
47065 
47150 
47203 
47326 
47481 
47599 
47607 
47659 
47778 
47895 
47956 
47994 
48044 
48074 
48113 
48190 
48303 
48376 
48434 
48520 
48545 
48586 
48657 
48728 
48763 
48801 
48834 
48856 
48864 
48861 
48887 
48915 
48962 
49017 
49065 
49096 
49115 
49171 
49225 
49289 
49320 
49304 
49318 
49381 
49457 
49498 
49536 
49589 
49623 
49717 
49771 
49779 
49764 
49718 
49758 
49785 
49839 
49953 
50044 
50093 
50128 
50120 
50088 
50082 
50100 
50124 
50205 
50234 
50254 
50273 
50278 
50247 
50245 
50341 
50415 
50410 
50424 
50421 
50466 
50529 
50602 
50604 
50654 
50774 
50767 
50743 
50752 
50755 
50701 
50694 
50707 
50722 
50722 
50748 
50733 
50695 
50617 
50554 
50463 
50306 
50157 
49931 
49712 
49497 
49224 
48909 
48598 
48310 
48017 
47724 
47426 
47100 
46784 
46501 
46248 
45984 
45760 
45555 
45314 
45088 
44878 
44723 
44627 
44490 
44321 
44171 
44016 
43906 
43779 
43659 
43612 
43580 
43507 
43452 
43397 
43334 
43339 
43398 
43467 
43453 
43471 
43490 
43491 
43567 
43642 
43657 
43697 
43774 
43881 
43988 
44108 
44201 
44292 
44379 
44494 
44621 
44773 
44918 
45047 
45172 
45285 
45459 
45602 
45739 
45856 
45961 
46148 
46307 
46399 
46518 
46659 
46820 
46917 
47005 
47092 
47198 
47290 
47398 
47517 
47637 
47686 
47762 
47834 
47892 
47950 
48017 
48086 
48206 
48248 
48308 
48354 
48457 
48545 
48586 
48647 
48734 
48796 
48805 
48850 
48924 
48920 
48944 
49008 
49035 
49070 
49186 
49258 
49287 
49328 
49386 
49473 
49510 
49545 
49590 
49649 
49712 
49851 
49973 
50091 
50095 
50091 
50161 
50253 
50337 
50359 
50412 
50495 
50540 
50612 
50634 
50673 
50767 
50891 
50965 
50973 
51001 
51045 
51125 
51192 
51256 
51313 
51367 
51386 
51437 
51488 
51518 
51561 
51597 
51605 
51661 
51696 
51690 
51674 
51673 
51743 
51830 
51848 
51848 
51870 
51876 
51859 
51852 
51871 
51933 
51980 
52023 
52039 
52051 
52046 
52011 
51937 
51873 
51781 
51705 
51621 
51408 
51108 
50844 
50593 
50313 
50015 
49686 
49358 
49045 
48710 
48377 
48072 
47767 
47480 
47192 
46900 
46604 
46295 
46046 
45822 
45607 
45415 
45234 
45120 
44981 
44803 
44659 
44493 
44357 
44250 
44172 
44140 
44069 
44014 
43994 
43994 
43999 
43982 
43930 
43901 
43929 
43976 
44025 
44101 
44153 
44221 
44344 
44464 
44550 
44594 
44652 
44759 
44869 
44977 
45093 
45234 
45405 
45584 
45714 
45819 
45955 
46053 
46195 
46374 
46525 
46715 
46850 
46986 
47237 
47406 
47487 
47562 
47662 
47783 
47884 
47937 
48000 
48067 
48153 
48257 
48386 
48456 
48470 
48474 
48475 
48581 
48675 
48744 
48812 
48911 
48952 
48950 
48962 
49016 
49077 
49124 
49211 
49287 
49358 
49364 
49358 
49412 
49473 
49529 
49633 
49690 
49813 
49872 
49898 
49995 
50127 
50245 
50321 
50421 
50508 
50573 
50635 
50702 
50794 
50839 
50912 
50982 
51061 
51130 
51210 
51328 
51430 
51523 
51665 
51720 
51709 
51755 
51841 
51917 
51966 
52001 
52095 
52221 
52315 
52386 
52426 
52502 
52606 
52638 
52626 
52655 
52716 
52794 
52824 
52864 
52831 
52830 
52836 
52839 
52884 
52932 
52945 
52976 
52996 
53051 
53106 
53130 
53102 
53041 
52964 
52962 
52978 
53010 
53018 
52963 
52945 
52956 
52945 
52928 
52905 
52871 
52839 
52870 
52821 
52732 
52627 
52545 
52441 
52246 
52013 
51767 
51476 
51255 
51017 
50664 
50265 
49876 
49609 
49310 
48932 
48573 
48268 
47971 
47663 
47333 
47005 
46763 
46572 
46322 
46057 
45813 
45642 
45553 
45456 
45312 
45191 
45083 
45006 
44926 
44762 
44643 
44559 
44512 
44521 
44531 
44555 
44570 
44539 
44508 
44542 
44544 
44576 
44608 
44685 
44767 
44872 
44948 
45004 
45054 
45109 
45194 
45320 
45429 
45566 
45672 
45754 
45853 
45947 
46035 
46178 
46320 
46416 
46573 
46739 
46899 
47008 
47101 
47232 
47346 
47452 
47562 
47652 
47688 
47725 
47784 
47887 
47945 
48034 
48059 
48121 
48147 
48138 
48143 
48162 
48208 
48255 
48344 
48482 
48519 
48505 
48509 
48547 
48605 
48632 
48665 
48693 
48750 
48834 
48925 
49047 
49131 
49142 
49140 
49174 
49251 
49264 
49326 
49447 
49580 
49648 
49778 
49891 
49981 
50076 
50167 
50270 
50358 
50363 
50407 
50503 
50574 
50635 
50738 
50825 
50879 
50950 
51050 
51140 
51199 
51228 
51320 
51392 
51423 
51520 
51553 
51570 
51708 
51820 
51801 
51821 
51860 
51915 
51915 
51943 
52002 
52058 
52130 
52192 
52246 
52273 
52279 
52290 
52300 
52354 
52391 
52404 
52440 
52476 
52503 
52571 
52609 
52648 
52689 
52685 
52664 
52634 
52617 
52630 
52587 
52528 
52493 
52512 
52552 
52521 
52398 
52277 
52111 
51880 
51582 
51358 
51120 
50887 
50581 
50270 
49971 
49693 
49407 
49091 
48767 
48510 
47945 
47652 
47396 
47142 
46924 
46725 
46568 
46433 
46293 
46142 
45984 
45835 
45707 
45592 
45525 
45465 
45411 
45377 
45335 
45328 
45278 
45242 
45240 
45285 
45300 
45306 
45354 
45401 
45462 
45487 
45556 
45642 
45648 
45670 
45749 
45830 
45894 
46006 
46159 
46273 
46355 
46436 
46511 
46605 
46714 
46834 
46936 
47056 
47175 
47310 
47470 
47631 
47749 
47869 
47968 
48039 
48100 
48196 
48226 
48232 
48259 
48308 
48396 
48426 
48486 
48532 
48587 
48585 
48589 
48595 
48623 
48675 
48732 
48767 
48751 
48743 
48765 
48755 
48744 
48791 
48900 
48913 
48906 
48928 
48983 
49036 
49090 
49135 
49234 
49345 
49415 
49425 
49437 
49486 
49574 
49690 
49749 
49784 
49825 
49857 
49908 
50009 
50078 
50120 
50200 
50255 
50328 
50429 
50453 
50486 
50531 
50641 
50794 
50878 
50949 
50993 
51062 
51171 
51265 
51342 
51394 
51448 
51498 
51520 
51549 
51654 
51695 
51730 
51809 
51894 
51946 
51960 
51992 
52016 
52075 
52134 
52148 
52197 
52206 
52212 
52263 
52300 
52318 
52311 
52324 
52394 
52458 
52477 
52491 
52506 
52492 
52435 
52380 
52376 
52347 
52315 
52286 
52275 
52247 
52129 
51942 
51783 
51613 
51375 
51108 
50763 
50414 
50112 
49845 
49547 
49228 
48915 
48582 
48311 
48040 
47709 
47409 
47121 
46892 
46654 
46433 
46232 
45989 
45689 
45430 
45226 
45115 
45069 
45030 
44945 
44869 
44770 
44716 
44701 
44672 
44685 
44701 
44692 
44666 
44662 
44717 
44760 
44825 
44891 
44934 
44979 
45043 
45058 
45061 
45099 
45208 
45340 
45411 
45449 
45507 
45564 
45651 
45776 
45880 
45955 
46095 
46145 
46211 
46382 
46538 
46662 
46826 
46935 
47023 
47190 
47325 
47408 
47528 
47619 
47739 
47822 
47862 
47918 
47988 
48018 
48049 
48122 
48243 
48323 
48443 
48511 
48579 
48581 
48522 
48585 
48713 
48739 
48728 
48688 
48631 
48667 
48728 
48757 
48786 
48835 
48874 
48961 
49047 
49114 
49179 
49234 
49293 
49382 
49462 
49541 
49645 
49756 
49788 
49841 
49930 
50028 
50084 
50135 
50143 
50152 
50229 
50390 
50467 
50529 
50584 
50581 
50621 
50695 
50752 
50854 
50980 
51112 
51188 
51207 
51242 
51313 
51446 
51513 
51533 
51556 
51580 
51579 
51561 
51620 
51721 
51797 
51847 
51915 
52008 
52048 
52098 
52167 
52142 
52128 
52100 
52072 
52102 
52166 
52193 
52197 
52197 
52217 
52266 
52317 
52364 
52394 
52444 
52460 
52470 
52518 
52557 
52595 
52634 
52636 
52570 
52510 
52515 
52533 
52536 
52516 
52471 
52386 
52254 
52089 
51957 
51850 
51684 
51425 
51154 
50878 
50619 
50328 
49987 
49667 
49328 
49030 
48720 
48384 
48056 
47768 
47515 
47248 
46947 
46679 
46455 
46255 
46027 
45842 
45712 
45614 
45441 
45316 
45244 
45153 
45101 
45086 
45035 
44977 
44893 
44813 
44844 
44871 
44827 
44806 
44777 
44751 
44770 
44800 
44814 
44843 
44858 
44855 
44918 
44905 
44919 
44968 
45017 
45062 
45154 
45286 
45389 
45512 
45616 
45693 
45787 
45873 
46005 
46212 
46400 
46513 
46612 
46684 
46804 
46979 
47088 
47154 
47247 
47396 
47526 
47625 
47726 
47785 
47843 
47864 
47854 
47870 
47875 
47854 
47932 
48030 
48090 
48077 
48018 
48014 
48050 
48053 
48066 
48078 
48126 
48153 
48234 
48256 
48229 
48255 
48313 
48360 
48423 
48455 
48460 
48475 
48518 
48557 
48583 
48640 
48722 
48803 
48856 
48950 
49042 
49137 
49226 
49300 
49384 
49410 
49419 
49517 
49607 
49630 
49627 
49649 
49711 
49780 
49863 
49947 
50003 
50125 
50188 
50227 
50310 
50322 
50314 
50328 
50340 
50398 
50405 
50390 
50435 
50477 
50472 
50551 
50609 
50656 
50640 
50625 
50629 
50625 
50584 
50581 
50632 
50639 
50616 
50596 
50597 
50612 
50613 
50592 
50578 
50599 
50563 
50532 
50552 
50529 
50500 
50491 
50455 
50428 
50390 
50347 
50310 
50265 
50188 
50156 
50031 
49851 
49722 
49549 
49390 
49199 
48934 
48657 
48408 
48171 
47885 
47618 
47412 
47262 
47037 
46736 
46419 
46101 
45835 
45658 
45481 
45297 
45089 
44847 
44661 
44497 
44384 
44290 
44224 
44148 
44052 
43997 
43927 
43947 
43921 
43834 
43807 
43836 
43896 
43911 
43927 
43997 
44045 
44093 
44142 
44217 
44307 
44394 
44459 
44489 
44513 
44610 
44692 
44749 
44916 
45079 
45171 
45216 
45332 
45507 
45690 
45815 
45915 
46021 
46110 
46229 
46418 
46561 
46716 
46849 
46942 
47047 
47189 
47355 
47483 
47630 
47794 
47958 
48093 
48177 
48277 
48336 
48393 
48476 
48585 
48646 
48711 
48814 
48887 
48951 
48967 
49017 
49139 
49171 
49175 
49165 
49187 
49274 
49352 
49412 
49431 
49492 
49611 
49640 
49664 
49742 
49765 
49798 
49823 
49839 
49867 
49955 
50049 
50138 
50218 
50277 
50372 
50440 
50439 
50455 
50521 
50587 
50601 
50637 
50703 
50750 
50809 
50879 
50963 
51041 
51102 
51142 
51154 
51207 
51234 
51332 
51448 
51538 
51579 
51569 
51568 
51634 
51674 
51712 
51740 
51822 
51909 
51941 
51964 
52029 
52094 
52114 
52153 
52191 
52256 
52278 
52228 
52220 
52260 
52313 
52381 
52448 
52441 
52464 
52514 
52487 
52500 
52504 
52512 
52554 
52567 
52581 
52594 
52623 
52647 
52684 
52693 
52669 
52702 
52723 
52711 
52662 
52538 
52433 
52289 
52165 
51959 
51711 
51511 
51259 
51043 
50868 
50724 
50500 
50209 
50000 
49826 
49597 
49370 
49151 
48955 
48789 
48657 
48502 
48342 
48196 
48013 
47852 
47757 
47687 
47627 
47590 
47536 
47523 
47545 
47543 
47581 
47636 
47719 
47753 
47822 
47905 
47993 
48141 
48270 
48403 
48591 
48744 
48912 
49081 
49264 
49483 
49727 
49945 
50177 
50386 
50546 
50746 
50958 
51089 
51241 
51455 
51631 
51820 
51947 
52031 
52187 
52355 
52511 
52598 
52671 
52770 
52953 
53050 
53040 
53112 
53141 
53157 
53207 
53270 
53277 
53272 
53278 
53277 
53260 
53231 
53195 
53173 
53182 
53169 
53129 
53132 
53115 
53136 
53163 
53176 
53173 
53132 
53080 
53028 
53041 
53034 
53005 
53006 
53059 
53062 
53027 
52974 
52901 
52874 
52838 
52796 
52753 
52741 
52762 
52756 
52725 
52677 
52643 
52583 
52565 
52493 
52455 
52524 
52533 
52494 
52518 
52545 
52498 
52481 
52533 
52566 
52532 
52500 
52511 
52537 
52509 
52525 
52544 
52512 
52495 
52457 
52439 
52427 
52397 
52423 
52408 
52358 
52350 
52320 
52266 
52243 
52245 
52211 
52162 
52110 
52006 
51945 
51965 
51927 
51835 
51755 
51655 
51548 
51352 
51118 
50901 
50720 
50503 
50266 
50015 
49741 
49390 
49065 
48775 
48484 
48146 
47813 
47507 
47186 
46864 
46589 
46343 
46124 
45860 
45599 
45365 
45131 
44914 
44758 
44541 
44339 
44253 
44235 
44225 
44145 
44082 
43983 
43874 
43819 
43790 
43799 
43764 
43729 
43737 
43734 
43714 
43717 
43723 
43769 
43824 
43876 
43912 
43979 
44098 
44187 
44267 
44384 
44456 
44446 
44433 
44462 
44505 
44580 
44709 
44855 
45057 
45188 
45303 
45466 
45642 
45780 
45877 
45953 
45968 
46022 
46064 
46159 
46248 
46316 
46339 
46410 
46467 
46508 
46548 
46572 
46661 
46730 
46757 
46869 
46942 
46939 
46956 
47020 
47046 
47125 
47247 
47335 
47369 
47421 
47526 
47605 
47661 
47683 
47739 
47849 
47934 
47984 
48011 
48074 
48173 
48260 
48352 
48444 
48503 
48521 
48537 
48575 
48640 
48694 
48705 
48720 
48753 
48821 
48926 
48983 
49105 
49167 
49195 
49234 
49288 
49306 
49352 
49411 
49470 
49571 
49628 
49603 
49635 
49651 
49666 
49716 
49783 
49859 
49826 
49782 
49819 
49931 
50017 
50010 
49995 
50008 
50069 
50144 
50175 
50226 
50268 
50279 
50234 
50230 
50261 
50243 
50284 
50376 
50458 
50500 
50491 
50495 
50505 
50482 
50512 
50575 
50652 
50647 
50651 
50663 
50677 
50690 
50701 
50692 
50666 
50709 
50724 
50725 
50678 
50622 
50532 
50381 
50164 
49951 
49739 
49569 
49391 
49198 
48992 
48736 
48473 
48192 
47895 
47658 
47373 
47133 
46914 
46636 
46387 
46175 
45960 
45726 
45544 
45427 
45281 
45101 
44938 
44847 
44785 
44713 
44632 
44608 
44586 
44506 
44481 
44418 
44401 
44400 
44332 
44302 
44331 
44314 
44321 
44351 
44406 
44421 
44461 
44503 
44532 
44511 
44482 
44536 
44596 
44691 
44736 
44732 
44733 
44780 
44845 
44964 
45108 
45223 
45319 
45421 
45542 
45677 
45777 
45876 
45951 
46012 
46095 
46179 
46288 
46403 
46498 
46551 
46624 
46696 
46772 
46837 
46848 
46909 
46940 
46997 
47034 
47049 
47073 
47106 
47167 
47245 
47274 
47292 
47302 
47306 
47336 
47393 
47417 
47489 
47527 
47578 
47619 
47676 
47685 
47690 
47737 
47792 
47811 
47902 
47917 
47996 
48078 
48165 
48249 
48384 
48456 
48498 
48557 
48625 
48691 
48784 
48836 
48864 
48938 
48994 
49039 
49106 
49110 
49188 
49279 
49354 
49414 
49477 
49563 
49628 
49676 
49757 
49818 
49882 
49976 
50045 
50105 
50166 
50226 
50254 
50307 
50309 
50315 
50318 
50316 
50300 
50389 
50504 
50508 
50586 
50705 
50728 
50754 
50793 
50808 
50898 
50948 
50941 
50952 
50957 
50948 
50921 
50954 
50986 
50973 
50961 
50963 
50938 
50948 
50937 
50845 
50778 
50707 
50638 
50528 
50392 
50273 
50132 
49931 
49666 
49379 
49112 
48799 
48542 
48296 
48046 
47775 
47479 
47185 
46860 
46633 
46418 
46188 
45980 
45799 
45616 
45400 
45191 
45054 
44909 
44816 
44733 
44650 
44611 
44537 
44459 
44423 
44352 
44313 
44299 
44262 
44195 
44175 
44138 
44208 
44272 
44303 
44299 
44308 
44312 
44322 
44349 
44404 
44456 
44518 
44596 
44627 
44672 
44770 
44866 
44942 
45011 
45069 
45122 
45202 
45349 
45486 
45611 
45696 
45767 
45830 
45855 
45974 
46055 
46063 
46138 
46204 
46212 
46240 
46342 
46463 
46566 
46638 
46663 
46690 
46771 
46811 
46799 
46794 
46813 
46875 
46874 
46865 
46909 
46982 
46987 
47019 
47127 
47200 
47197 
47197 
47191 
47188 
47226 
47297 
47332 
47353 
47461 
47506 
47561 
47595 
47594 
47662 
47747 
47783 
47784 
47764 
47824 
47909 
47934 
47963 
48017 
48106 
48167 
48197 
48253 
48291 
48329 
48406 
48523 
48627 
48720 
48738 
48800 
48898 
48951 
48988 
49041 
49095 
49142 
49150 
49185 
49221 
49263 
49276 
49340 
49332 
49290 
49363 
49392 
49358 
49314 
49325 
49409 
49506 
49546 
49529 
49520 
49532 
49550 
49619 
49647 
49631 
49675 
49727 
49749 
49747 
49756 
49743 
49733 
49748 
49725 
49764 
49771 
49676 
49650 
49670 
49692 
49708 
49646 
49623 
49560 
49448 
49306 
49075 
48814 
48617 
48450 
48190 
47913 
47632 
47350 
47123 
46880 
46564 
46262 
46004 
45743 
45496 
45251 
45001 
44711 
44508 
44313 
44165 
44036 
43887 
43743 
43606 
43515 
43426 
43331 
43272 
43256 
43229 
43187 
43177 
43158 
43089 
43047 
43049 
43052 
43056 
43056 
43039 
43087 
43100 
43120 
43146 
43192 
43207 
43226 
43223 
43265 
43321 
43401 
43476 
43536 
43585 
43639 
43686 
43749 
43857 
43930 
43997 
44223 
44357 
44386 
44473 
44523 
44531 
44618 
44770 
44901 
45033 
45138 
45181 
45196 
45186 
45264 
45408 
45521 
45589 
45589 
45564 
45576 
45608 
45710 
45784 
45787 
45775 
45844 
45886 
45886 
45890 
45916 
45978 
46051 
46066 
46099 
46136 
46181 
46193 
46205 
46207 
46206 
46268 
46365 
46405 
46440 
46510 
46585 
46598 
46632 
46727 
46779 
46828 
46872 
46879 
46893 
46930 
46996 
47103 
47156 
47149 
47197 
47263 
47293 
47332 
47425 
47462 
47492 
47560 
47670 
47730 
47765 
47768 
47833 
47925 
47957 
48023 
48073 
48080 
48122 
48178 
48219 
48169 
48187 
48293 
48344 
48403 
48427 
48454 
48479 
48478 
48492 
48559 
48612 
48622 
48620 
48684 
48739 
48739 
48734 
48726 
48799 
48863 
48901 
48938 
48938 
48903 
48888 
48865 
48866 
48877 
48859 
48876 
48895 
48926 
48913 
48874 
48800 
48786 
48792 
48772 
48676 
48611 
48550 
48436 
48254 
48037 
47814 
47613 
47426 
47216 
46992 
46724 
46436 
46111 
45783 
45505 
45275 
45061 
44910 
44742 
44500 
44225 
43971 
43810 
43712 
43572 
43418 
43347 
43237 
43159 
43089 
43003 
42988 
42944 
42891 
42846 
42847 
42864 
42903 
42944 
42964 
42989 
42972 
42948 
42924 
42941 
42940 
42918 
42953 
42993 
43117 
43209 
43271 
43289 
43302 
43386 
43416 
43394 
43440 
43483 
43595 
43707 
43821 
43952 
44071 
44144 
44242 
44379 
44423 
44428 
44505 
44618 
44733 
44817 
44939 
44995 
44997 
45073 
45140 
45253 
45286 
45300 
45367 
45463 
45533 
45594 
45607 
45675 
45676 
45676 
45697 
45707 
45760 
45807 
45809 
45812 
45843 
45838 
45860 
45924 
45983 
46002 
45963 
45963 
45981 
46008 
46072 
46197 
46229 
46291 
46360 
46404 
46437 
46464 
46528 
46564 
46587 
46625 
46690 
46747 
46806 
46853 
46880 
46908 
46974 
47083 
47145 
47217 
47294 
47320 
47353 
47401 
47449 
47509 
47589 
47636 
47712 
47770 
47839 
47892 
47896 
47848 
47884 
48052 
48137 
48164 
48181 
48186 
48185 
48210 
48266 
48287 
48279 
48314 
48343 
48397 
48416 
48434 
48512 
48570 
48578 
48624 
48624 
48601 
48619 
48672 
48724 
48764 
48742 
48739 
48717 
48732 
48678 
48614 
48568 
48627 
48644 
48633 
48666 
48712 
48728 
48680 
48639 
48638 
48610 
48556 
48477 
48401 
48310 
48164 
48020 
47821 
47617 
47408 
47126 
46827 
46596 
46389 
46169 
45971 
45763 
45545 
45319 
45088 
44864 
44656 
44474 
44331 
44173 
44039 
43943 
43773 
43575 
43408 
43303 
43249 
43208 
43144 
43136 
43134 
43097 
43072 
43036 
43046 
42978 
42985 
43022 
43070 
43113 
43125 
43140 
43176 
43212 
43205 
43264 
43360 
43390 
43415 
43507 
43593 
43682 
43759 
43775 
43803 
43872 
43961 
44054 
44145 
44238 
44316 
44402 
44445 
44515 
44574 
44633 
44703 
44789 
44891 
44990 
45116 
45149 
45184 
45216 
45175 
45261 
45266 
45319 
45359 
45343 
45313 
45287 
45277 
45358 
45455 
45511 
45536 
45575 
45603 
45575 
45536 
45508 
45512 
45545 
45570 
45627 
45628 
45666 
45732 
45830 
45893 
45951 
45994 
45997 
46015 
46010 
46028 
46139 
46185 
46193 
46197 
46202 
46264 
46304 
46425 
46518 
46512 
46551 
46620 
46685 
46725 
46782 
46851 
46939 
47042 
47099 
47085 
47081 
47118 
47196 
47260 
47355 
47341 
47355 
47397 
47428 
47463 
47479 
47538 
47585 
47631 
47611 
47632 
47672 
47705 
47735 
47804 
47853 
47883 
47948 
47961 
47948 
47960 
47981 
48063 
48080 
48087 
48165 
48160 
48157 
48199 
48233 
48241 
48263 
48256 
48271 
48250 
48225 
48285 
48336 
48302 
48246 
48163 
48061 
48010 
47937 
47767 
47577 
47352 
47145 
46953 
46737 
46525 
46328 
46081 
45831 
45590 
45394 
45214 
45006 
44771 
44535 
44326 
44102 
43957 
43819 
43693 
43618 
43600 
43491 
43359 
43244 
43147 
43093 
43068 
43061 
43105 
43122 
43083 
43020 
42958 
42910 
42897 
42968 
43032 
43076 
43029 
43030 
43039 
43062 
43085 
43112 
43145 
43241 
43351 
43404 
43454 
43549 
43587 
43648 
43714 
43836 
43887 
43948 
44008 
44080 
44119 
44194 
44274 
44321 
44334 
44349 
44357 
44380 
44436 
44567 
44656 
44737 
44798 
44867 
44909 
44876 
44901 
44952 
44983 
45023 
45108 
45123 
45095 
45094 
45095 
45099 
45117 
45123 
45119 
45080 
45105 
45246 
45352 
45418 
45476 
45459 
45468 
45504 
45546 
45580 
45662 
45697 
45689 
45711 
45738 
45751 
45830 
45930 
45985 
46014 
46026 
46052 
46057 
46126 
46235 
46302 
46343 
46406 
46413 
46447 
46493 
46517 
46497 
46456 
46507 
46561 
46592 
46663 
46686 
46729 
46855 
46927 
46963 
47070 
47145 
47174 
47193 
47169 
47193 
47234 
47306 
47335 
47332 
47384 
47426 
47425 
47413 
47431 
47472 
47517 
47554 
47633 
47666 
47735 
47780 
47727 
47733 
47799 
47858 
47892 
47930 
47971 
47953 
47944 
47977 
47958 
47930 
47896 
47909 
47927 
47926 
47940 
47890 
47814 
47745 
47646 
47549 
47515 
47439 
47336 
47231 
47089 
46859 
46608 
46398 
46196 
45948 
45700 
45517 
45303 
45071 
44845 
44629 
44497 
44355 
44167 
43994 
43845 
43724 
43566 
43429 
43285 
43150 
43037 
42924 
42827 
42777 
42714 
42621 
42558 
42508 
42512 
42565 
42531 
42555 
42586 
42590 
42577 
42568 
42607 
42659 
42728 
42740 
42728 
42730 
42748 
42838 
42922 
42938 
42969 
43005 
43050 
43111 
43156 
43246 
43301 
43342 
43381 
43479 
43555 
43633 
43823 
43877 
43889 
44001 
44087 
44193 
44295 
44392 
44467 
44520 
44601 
44673 
44701 
44737 
44758 
44847 
44939 
45005 
45070 
45106 
45108 
45089 
45105 
45145 
45152 
45178 
45191 
45199 
45232 
45295 
45328 
45295 
45301 
45352 
45370 
45433 
45432 
45449 
45458 
45473 
45480 
45469 
45462 
45477 
45494 
45599 
45658 
45655 
45694 
45735 
45782 
45835 
45848 
45868 
45916 
45958 
45972 
45986 
46027 
46091 
46147 
46156 
46200 
46260 
46308 
46374 
46425 
46451 
46468 
46440 
46399 
46431 
46489 
46489 
46503 
46508 
46503 
46539 
46559 
46527 
46551 
46571 
46603 
46682 
46705 
46711 
46696 
46718 
46705 
46709 
46757 
46823 
46822 
46767 
46754 
46798 
46880 
46879 
46889 
46875 
46879 
46895 
46930 
46999 
47035 
47009 
46983 
46994 
47042 
47059 
47134 
47133 
47123 
47217 
47304 
47322 
47341 
47328 
47390 
47462 
47463 
47442 
47449 
47426 
47486 
47483 
47490 
47452 
47326 
47215 
47102 
46948 
46744 
46537 
46354 
46187 
45966 
45704 
45521 
45339 
45122 
44902 
44728 
44559 
44461 
44328 
44130 
43983 
43853 
43708 
43593 
43507 
43443 
43295 
43129 
43059 
43031 
42984 
42904 
42866 
42894 
42855 
42768 
42710 
42689 
42634 
42637 
42648 
42674 
42670 
42679 
42664 
42699 
42802 
42899 
42889 
42844 
42855 
42887 
42875 
42930 
43032 
43131 
43247 
43312 
43353 
43405 
43420 
43468 
43574 
43634 
43660 
43715 
43871 
43977 
44042 
44073 
44144 
44188 
44213 
44240 
44306 
44383 
44467 
44538 
44623 
44673 
44702 
44744 
44791 
44798 
44794 
44851 
44892 
44937 
44948 
44930 
44948 
44981 
45018 
45027 
45005 
45038 
45060 
45098 
45095 
45101 
45124 
45186 
45218 
45282 
45418 
45535 
45537 
45507 
45516 
45590 
45653 
45702 
45773 
45808 
45886 
45971 
45960 
45954 
46028 
46091 
46157 
46210 
46242 
46249 
46282 
46334 
46345 
46356 
46366 
46410 
46481 
46535 
46590 
46692 
46748 
46798 
46817 
46871 
46914 
46956 
47039 
47084 
47117 
47115 
47073 
47116 
47258 
47298 
47307 
47324 
47339 
47352 
47383 
47464 
47511 
47537 
47561 
47549 
47506 
47506 
47543 
47593 
47600 
47597 
47590 
47633 
47744 
47823 
47851 
47865 
47885 
47875 
47826 
47803 
47810 
47840 
47866 
47891 
47934 
47961 
47863 
47787 
47731 
47640 
47544 
47421 
47295 
47144 
46981 
46890 
46754 
46524 
46273 
46046 
45924 
45774 
45603 
45438 
45263 
45101 
44985 
44878 
44721 
44561 
44421 
44316 
44169 
43957 
43787 
43686 
43586 
43480 
43418 
43325 
43237 
43176 
43132 
43021 
42968 
42875 
42807 
42795 
42772 
42752 
42750 
42752 
42707 
42696 
42685 
42664 
42660 
42682 
42691 
42690 
42660 
42657 
42684 
42667 
42669 
42665 
42666 
42725 
42801 
42813 
42833 
42826 
42874 
42962 
43005 
43085 
43127 
43193 
43287 
43344 
43398 
43504 
43559 
43581 
43637 
43693 
43744 
43780 
43867 
43991 
44118 
44097 
44044 
44095 
44222 
44271 
44256 
44264 
44352 
44431 
44497 
44554 
44567 
44618 
44686 
44718 
44771 
44803 
44857 
44931 
45012 
45043 
45052 
45081 
45121 
45164 
45251 
45323 
45327 
45370 
45428 
45501 
45527 
45531 
45587 
45666 
45644 
45609 
45579 
45572 
45623 
45658 
45667 
45663 
45633 
45587 
45588 
45587 
45524 
45505 
45449 
45410 
45406 
45341 
45312 
45338 
45352 
45331 
45278 
45228 
45181 
45175 
45153 
45115 
45043 
45033 
45030 
45002 
45033 
45008 
44979 
44968 
44918 
44897 
44861 
44820 
44816 
44786 
44805 
44873 
44841 
44795 
44787 
44808 
44843 
44878 
44888 
44903 
44931 
44946 
44954 
45005 
45005 
45028 
45033 
45024 
45061 
45099 
45142 
45195 
45258 
45325 
45378 
45415 
45448 
45474 
45480 
45500 
45526 
45557 
45571 
45554 
45551 
45606 
45689 
45765 
45786 
45784 
45835 
45920 
45969 
45932 
45893 
45922 
45992 
46027 
46048 
46079 
46105 
46160 
46234 
46291 
46320 
46337 
46391 
46428 
46446 
46483 
46499 
46469 
46475 
46523 
46554 
46553 
46552 
46608 
46640 
46687 
46733 
46821 
46835 
46796 
46764 
46810 
46848 
46898 
46950 
46946 
46932 
46921 
46954 
46932 
46981 
47051 
47059 
47022 
47031 
47052 
47061 
47056 
47082 
47114 
47111 
47113 
47080 
47071 
47132 
47179 
47189 
47181 
47174 
47187 
47253 
47282 
47279 
47276 
47289 
47269 
47289 
47313 
47309 
47284 
47280 
47292 
47316 
47274 
47242 
47249 
47273 
47299 
47329 
47377 
47366 
47357 
47346 
47329 
47326 
47340 
47339 
47293 
47232 
47212 
47206 
47240 
47305 
47335 
47354 
47393 
47434 
47402 
47374 
47408 
47452 
47431 
47411 
47384 
47346 
47314 
47287 
47281 
47285 
47328 
47378 
47343 
47311 
47331 
47282 
47209 
47175 
47183 
47220 
47216 
47289 
47320 
47296 
47241 
47177 
47114 
47118 
47126 
47098 
47116 
47136 
47139 
47171 
47139 
47127 
47125 
47127 
47165 
47153 
47138 
47130 
47123 
47122 
47118 
47109 
47114 
47077 
47046 
47054 
47060 
46980 
46908 
46916 
46961 
46980 
46918 
46816 
46811 
46866 
46832 
46833 
46865 
46877 
46874 
46840 
46811 
46808 
46794 
46767 
46779 
46753 
46716 
46693 
46695 
46725 
46670 
46630 
46612 
46606 
46618 
46598 
46641 
46655 
46656 
46636 
46651 
46649 
46611 
46598 
46584 
46556 
46559 
46558 
46541 
46558 
46527 
46447 
46394 
46379 
46356 
46398 
46412 
46396 
46366 
46371 
46385 
46364 
46342 
46316 
46351 
46362 
46335 
46290 
46184 
46132 
46082 
46075 
46143 
46147 
46168 
46163 
46171 
46172 
46178 
46137 
46055 
46055 
46065 
46023 
45996 
45979 
45979 
46013 
45989 
45989 
46000 
45980 
45968 
45920 
45899 
45878 
45796 
45780 
45858 
45834 
45812 
45831 
45837 
45797 
45775 
45812 
45820 
45813 
45740 
45705 
45777 
45798 
45758 
45743 
45759 
45779 
45722 
45681 
45668 
45629 
45616 
45631 
45703 
45747 
45742 
45722 
45667 
45584 
45563 
45570 
45623 
45610 
45560 
45547 
45525 
45523 
45547 
45557 
45503 
45500 
45559 
45551 
45495 
45449 
45442 
45464 
45488 
45481 
45462 
45418 
45422 
45411 
45385 
45329 
45313 
45304 
45291 
45298 
45269 
45247 
45233 
45296 
45323 
45240 
45225 
45232 
45241 
45244 
45210 
45204 
45185 
45179 
45191 
45174 
45160 
45171 
45166 
45136 
45163 
45195 
45207 
45249 
45259 
45223 
45201 
45184 
45118 
45042 
45042 
45064 
45007 
45007 
45060 
45012 
44952 
44980 
45015 
45069 
45043 
44963 
44922 
44951 
44961 
44929 
44943 
44948 
44922 
44942 
44959 
44995 
44982 
44973 
44960 
44930 
44931 
44974 
45044 
45058 
45002 
44959 
44978 
44993 
44984 
44916 
44856 
44816 
44824 
44888 
44894 
44914 
44920 
44855 
44868 
44870 
44884 
44936 
44972 
45003 
44985 
44939 
44884 
44831 
44832 
44879 
44907 
44905 
44930 
44935 
44924 
44954 
44982 
44908 
44870 
44878 
44876 
44870 
44847 
44809 
44769 
44763 
44784 
44788 
44781 
44818 
44855 
44913 
44955 
44942 
44915 
44871 
44821 
44819 
44806 
44795 
44818 
44789 
44748 
44693 
44650 
44699 
44764 
44803 
44794 
44766 
44780 
44772 
44752 
44812 
44803 
44787 
44790 
44785 
44782 
44747 
44717 
44737 
44772 
44750 
44734 
44728 
44684 
44639 
44664 
44633 
44594 
44562 
44574 
44595 
44578 
44596 
44578 
44602 
44571 
44513 
44508 
44500 
44509 
44540 
44552 
44541 
44498 
44509 
44474 
44498 
44542 
44530 
44461 
44441 
44489 
44456 
44433 
44470 
44491 
44541 
44542 
44530 
44534 
44554 
44548 
44476 
44429 
44389 
44383 
44359 
44347 
44314 
44344 
44388 
44422 
44497 
44599 
44606 
44550 
44499 
44427 
44384 
44378 
44341 
44360 
44388 
44386 
44412 
44481 
44463 
44421 
44447 
44452 
44450 
44455 
44451 
44453 
44424 
44325 
44248 
44252 
44326 
44331 
44364 
44434 
44510 
44551 
44512 
44514 
44520 
44514 
44473 
44437 
44405 
44409 
44428 
44430 
44409 
44350 
44351 
44365 
44436 
44510 
44501 
44474 
44431 
44413 
44361 
44310 
44314 
44291 
44282 
44265 
44231 
44231 
44284 
44316 
44326 
44281 
44202 
44153 
44188 
44188 
44202 
44264 
44285 
44362 
44419 
44392 
44363 
44292 
44232 
44242 
44264 
44253 
44306 
44296 
44248 
44236 
44238 
44201 
44166 
44182 
44153 
44190 
44260 
44268 
44266 
44279 
44282 
44266 
44283 
44277 
44266 
44245 
44196 
44186 
44212 
44174 
44181 
44214 
44209 
44217 
44241 
44258 
44206 
44177 
44182 
44148 
44117 
44093 
44107 
44140 
44186 
44190 
44164 
44120 
44047 
44045 
44074 
44067 
44080 
44112 
44112 
44085 
44077 
44084 
44078 
44064 
44035 
43969 
43934 
43937 
43957 
43933 
43960 
44018 
44053 
44028 
43994 
44014 
44031 
43989 
43928 
43960 
44008 
44027 
44048 
44079 
44103 
44059 
44055 
44092 
44124 
44127 
44151 
44134 
44126 
44160 
44176 
44148 
44117 
44171 
44189 
44205 
44178 
44156 
44187 
44187 
44241 
44262 
44189 
44175 
44193 
44155 
44202 
44218 
44237 
44183 
44118 
44074 
44105 
44147 
44171 
44205 
44211 
44183 
44187 
44196 
44238 
44225 
44184 
44172 
44210 
44223 
44221 
44219 
44258 
44274 
44267 
44193 
44210 
44206 
44221 
44247 
44206 
44244 
44245 
44188 
44158 
44101 
44048 
44084 
44164 
44135 
44099 
44058 
44050 
44026 
44002 
44010 
44008 
43986 
44009 
44045 
44057 
44046 
44050 
44075 
44123 
44143 
44103 
44069 
44085 
44131 
44120 
44102 
44089 
44080 
44065 
44070 
44078 
44068 
44028 
44050 
44032 
44032 
44044 
44102 
44121 
44127 
44107 
44100 
44123 
44143 
44090 
44022 
43979 
43974 
43978 
43953 
43921 
43904 
43924 
43930 
43924 
43907 
43897 
43943 
43919 
43887 
43889 
43928 
43973 
43974 
43935 
43883 
43796 
43795 
43841 
43843 
43781 
43726 
43820 
43838 
43799 
43793 
43823 
43878 
43901 
43907 
43864 
43809 
43764 
43756 
43805 
43859 
43852 
43905 
43950 
43949 
43953 
43954 
43949 
43904 
43876 
43830 
43795 
43824 
43827 
43804 
43821 
43837 
43861 
43888 
43870 
43819 
43806 
43840 
43805 
43874 
43921 
43893 
43841 
43851 
43835 
43823 
43884 
43927 
43915 
43894 
43918 
43940 
43964 
43978 
43958 
43959 
43954 
43917 
43871 
43920 
44028 
44069 
44067 
44004 
44000 
44015 
43984 
43963 
43966 
43931 
43909 
43925 
43968 
43979 
43954 
43969 
43995 
43996 
44035 
44057 
44000 
43955 
43906 
43916 
43976 
43981 
43973 
43981 
43955 
43984 
44070 
44086 
44138 
44168 
44211 
44189 
44115 
44081 
44081 
44082 
44115 
44177 
44206 
44170 
44157 
44110 
44111 
44124 
44148 
44135 
44135 
44087 
44037 
43984 
44003 
44023 
43983 
43947 
43895 
43883 
43935 
43990 
44050 
44044 
44052 
43991 
43973 
44017 
44003 
43948 
43947 
43935 
43974 
44050 
44056 
44014 
44006 
44026 
44022 
44023 
44043 
44065 
44113 
44140 
44109 
44053 
44065 
44115 
44108 
44088 
44132 
44137 
44122 
44116 
44130 
44186 
44202 
44193 
44194 
44264 
44240 
44182 
44156 
44117 
44057 
44043 
43993 
43993 
43982 
43936 
43910 
43949 
44029 
44015 
43991 
43916 
43903 
43905 
43841 
43882 
43911 
43889 
43855 
43898 
43929 
43946 
43936 
43926 
43914 
43910 
43877 
43875 
43918 
43914 
43925 
43936 
43911 
43892 
43937 
43966 
43995 
43964 
43959 
43943 
43887 
43896 
43939 
43935 
43953 
44001 
43999 
44018 
43978 
43958 
43914 
43891 
43896 
43903 
43978 
44026 
44095 
44118 
44082 
44055 
44100 
44141 
44157 
44157 
44171 
44138 
44109 
44106 
44093 
44126 
44167 
44155 
44105 
44071 
44069 
44086 
44172 
44249 
44256 
44212 
44197 
44201 
44153 
44103 
44082 
44065 
44103 
44158 
44222 
44146 
44093 
44124 
44098 
44103 
44122 
44154 
44173 
44180 
44190 
44211 
44252 
44231 
44280 
44339 
44363 
44357 
44377 
44377 
44356 
44353 
44329 
44298 
44308 
44333 
44338 
44304 
44278 
44299 
44307 
44348 
44380 
44347 
44345 
44354 
44359 
44367 
44321 
44275 
44313 
44300 
44186 
44157 
44187 
44179 
44141 
44117 
44118 
44119 
44141 
44120 
44114 
44131 
44092 
44118 
44101 
44068 
44060 
44158 
44197 
44172 
44193 
44169 
44125 
44110 
44169 
44202 
44219 
44194 
44151 
44166 
44140 
44079 
44033 
44012 
44034 
44067 
44077 
44083 
44060 
44028 
44080 
44107 
44130 
44113 
44142 
44174 
44139 
44086 
44054 
44019 
44044 
44069 
44107 
44085 
44075 
44065 
44107 
44135 
44160 
44163 
44142 
44099 
44058 
44057 
44107 
44131 
44104 
44085 
44079 
44136 
44153 
44121 
44119 
44144 
44150 
44107 
44062 
44085 
44101 
44101 
44124 
44133 
44021 
44033 
44029 
44023 
44016 
44013 
44016 
44013 
44031 
44077 
44133 
44169 
44175 
44134 
44128 
44133 
44105 
44082 
44157 
44237 
44180 
44111 
44115 
44117 
44077 
44058 
44053 
44040 
44086 
44130 
44131 
44129 
44057 
44022 
44045 
44028 
44023 
43966 
43983 
44032 
44060 
44011 
44018 
43993 
43944 
43938 
43955 
43987 
43993 
43958 
43913 
43895 
43858 
43838 
43898 
43997 
44008 
44009 
44035 
44014 
43991 
43946 
43915 
43942 
43981 
43992 
43971 
43933 
43920 
43931 
44003 
44038 
43982 
43958 
43976 
43986 
43996 
43990 
43951 
43930 
43858 
43949 
43993 
43964 
43880 
43827 
43790 
43792 
43852 
43829 
43782 
43757 
43725 
43759 
43817 
43863 
43881 
43881 
43904 
43950 
43939 
43965 
43964 
43987 
44008 
43956 
43935 
43863 
43872 
43911 
43895 
43837 
43809 
43795 
43809 
43766 
43733 
43785 
43763 
43728 
43690 
43667 
43692 
43738 
43747 
43748 
43742 
43723 
43763 
43810 
43825 
43816 
43764 
43750 
43777 
43731 
43675 
43704 
43724 
43699 
43722 
43768 
43767 
43783 
43754 
43688 
43655 
43640 
43588 
43569 
43580 
43640 
43706 
43744 
43772 
43772 
43780 
43790 
43753 
43707 
43699 
43745 
43759 
43750 
43766 
43774 
43789 
43799 
43799 
43782 
43763 
43724 
43661 
43721 
43763 
43765 
43828 
43841 
43799 
43775 
43791 
43785 
43788 
43815 
43810 
43786 
43782 
43783 
43808 
43821 
43800 
43826 
43831 
43850 
43819 
43720 
43660 
43646 
43666 
43716 
43737 
43758 
43775 
43815 
43835 
43809 
43736 
43670 
43624 
43589 
43609 
43657 
43688 
43698 
43685 
43692 
43695 
43684 
43626 
43589 
43600 
43630 
43641 
43631 
43651 
43651 
43644 
43610 
43580 
43582 
43587 
43583 
43629 
43592 
43553 
43584 
43634 
43661 
43675 
43652 
43623 
43677 
43758 
43782 
43742 
43687 
43684 
43691 
43579 
43529 
43527 
43546 
43566 
43666 
43721 
43724 
43783 
43816 
43791 
43742 
43722 
43721 
43722 
43742 
43786 
43799 
43754 
43738 
43748 
43763 
43765 
43781 
43752 
43733 
43739 
43699 
43695 
43735 
43805 
43814 
43795 
43774 
43765 
43729 
43699 
43655 
43631 
43686 
43717 
43679 
43647 
43656 
43647 
43608 
43579 
43552 
43577 
43652 
43657 
43717 
43715 
43690 
43639 
43596 
43579 
43544 
43515 
43533 
43563 
43577 
43579 
43600 
43609 
43577 
43538 
43505 
43499 
43496 
43479 
43434 
43418 
43460 
43518 
43461 
43426 
43439 
43445 
43474 
43517 
43474 
43426 
43435 
43431 
43354 
43302 
43331 
43365 
43439 
43447 
43456 
43439 
43431 
43415 
43434 
43438 
43432 
43452 
43491 
43506 
43501 
43496 
43495 
43488 
43457 
43501 
43525 
43536 
43532 
43568 
43600 
43622 
43634 
43623 
43612 
43618 
43638 
43662 
43595 
43565 
43563 
43531 
43520 
43490 
43469 
43443 
43449 
43418 
43390 
43371 
43365 
43357 
43404 
43455 
43431 
43433 
43441 
43415 
43420 
43408 
43427 
43482 
43529 
43548 
43491 
43442 
43449 
43473 
43478 
43444 
43419 
43381 
43373 
43390 
43385 
43389 
43383 
43376 
43335 
43308 
43398 
43447 
43443 
43427 
43372 
43373 
43417 
43435 
43439 
43469 
43457 
43408 
43470 
43483 
43462 
43453 
43418 
43417 
43399 
43449 
43509 
43496 
43443 
43446 
43471 
43404 
43387 
43398 
43386 
43400 
43384 
43385 
43364 
43314 
43326 
43365 
43433 
43475 
43490 
43488 
43458 
43419 
43421 
43387 
43345 
43314 
43360 
43441 
43477 
43486 
43435 
43382 
43341 
43365 
43345 
43386 
43413 
43390 
43411 
43444 
43414 
43389 
43398 
43371 
43391 
43382 
43351 
43369 
43384 
43387 
43449 
43465 
43421 
43393 
43370 
43334 
43285 
43325 
43380 
43421 
43452 
43405 
43388 
43406 
43415 
43388 
43421 
43443 
43467 
43469 
43477 
43494 
43529 
43523 
43514 
43482 
43422 
43409 
43416 
43430 
43424 
43434 
43446 
43453 
43439 
43448 
43437 
43467 
43523 
43502 
43412 
43414 
43393 
43386 
43396 
43431 
43439 
43439 
43445 
43432 
43442 
43442 
43422 
43454 
43473 
43483 
43494 
43461 
43464 
43470 
43454 
43430 
43371 
43347 
43365 
43382 
43366 
43379 
43415 
43411 
43429 
43469 
43472 
43433 
43410 
43378 
43422 
43468 
43494 
43505 
43506 
43464 
43461 
43406 
43344 
43320 
43332 
43370 
43379 
43364 
43346 
43356 
43395 
43373 
43375 
43420 
43385 
43372 
43407 
43431 
43442 
43439 
43456 
43406 
43446 
43464 
43406 
43377 
43394 
43414 
43367 
43330 
43300 
43276 
43302 
43283 
43206 
43165 
43141 
43130 
43161 
43174 
43120 
43124 
43128 
43153 
43127 
43057 
43036 
43089 
43180 
43195 
43213 
43200 
43206 
43230 
43228 
43220 
43224 
43192 
43168 
43214 
43212 
43142 
43093 
43091 
43138 
43188 
43226 
43179 
43122 
43078 
43066 
43040 
43057 
43090 
43092 
43065 
43033 
43035 
43041 
42998 
42982 
43004 
42964 
42942 
42976 
43064 
43034 
42968 
42983 
42990 
42975 
42956 
42994 
43008 
43042 
43032 
43028 
43042 
43016 
42999 
43001 
43022 
43030 
43019 
42990 
42948 
42937 
42913 
42874 
42885 
42906 
42915 
42933 
42964 
42919 
42879 
42881 
42932 
43041 
43069 
43071 
43040 
43017 
42967 
42906 
42886 
42887 
42935 
42877 
42816 
42903 
42941 
42949 
42937 
42907 
42875 
42888 
42891 
42852 
42844 
42856 
42903 
42929 
42902 
42855 
42846 
42845 
42852 
42845 
42834 
42850 
42891 
42891 
42867 
42927 
42945 
42944 
42965 
42945 
42931 
42965 
42973 
43006 
42978 
42949 
42946 
42878 
42873 
42899 
42942 
42964 
42943 
42922 
42952 
42894 
42824 
42833 
42790 
42756 
42806 
42842 
42871 
42911 
42890 
42858 
42851 
42868 
42884 
42907 
42913 
42961 
42972 
42971 
42970 
42996 
42999 
43039 
43061 
43087 
43034 
42977 
42942 
42961 
42968 
42985 
43007 
42995 
42987 
42935 
42880 
42858 
42888 
42876 
42910 
42910 
42837 
42772 
42759 
42775 
42811 
42835 
42846 
42830 
42864 
42913 
42912 
42879 
42837 
42836 
42889 
42938 
42953 
42896 
42845 
42842 
42813 
42767 
42789 
42822 
42860 
42877 
42867 
42881 
42869 
42833 
42772 
42791 
42768 
42690 
42709 
42777 
42803 
42778 
42686 
42709 
42751 
42771 
42810 
42789 
42770 
42789 
42796 
42768 
42745 
42765 
42755 
42741 
42689 
42674 
42701 
42770 
42825 
42833 
42823 
42841 
42794 
42755 
42712 
42677 
42639 
42651 
42648 
42668 
42673 
42669 
42624 
42553 
42554 
42601 
42607 
42574 
42539 
42523 
42530 
42566 
42580 
42608 
42646 
42626 
42577 
42478 
42408 
42415 
42455 
42513 
42557 
42634 
42664 
42657 
42699 
42667 
42607 
42507 
42481 
42563 
42653 
42671 
42632 
42573 
42526 
42498 
42500 
42521 
42557 
42603 
42688 
42716 
42711 
42646 
42584 
42592 
42592 
42568 
42546 
42581 
42623 
42661 
42656 
42616 
42609 
42638 
42629 
42611 
42628 
42636 
42649 
42682 
42653 
42634 
42657 
42677 
42651 
42633 
42631 
42652 
42690 
42671 
42693 
42740 
42770 
42702 
42679 
42702 
42717 
42733 
42780 
42774 
42721 
42693 
42619 
42601 
42666 
42680 
42657 
42670 
42698 
42676 
42687 
42668 
42632 
42604 
42587 
42608 
42582 
42561 
42536 
42546 
42568 
42558 
42578 
42597 
42606 
42684 
42740 
42711 
42682 
42656 
42621 
42638 
42663 
42679 
42708 
42711 
42711 
42684 
42634 
42636 
42653 
42654 
42623 
42623 
42607 
42592 
42547 
42502 
42482 
42515 
42489 
42479 
42476 
42522 
42540 
42501 
42502 
42490 
42484 
42485 
42507 
42580 
42586 
42566 
42494 
42465 
42504 
42500 
42531 
42566 
42530 
42467 
42463 
42470 
42520 
42556 
42550 
42510 
42509 
42532 
42539 
42535 
42525 
42494 
42504 
42484 
42480 
42479 
42398 
42358 
42308 
42237 
42274 
42365 
42331 
42270 
42269 
42309 
42324 
42362 
42356 
42334 
42294 
42261 
42247 
42258 
42291 
42337 
42317 
42325 
42281 
42304 
42274 
42225 
42221 
42268 
42289 
42319 
42346 
42367 
42389 
42436 
42419 
42371 
42408 
42376 
42338 
42412 
42483 
42470 
42414 
42438 
42456 
42428 
42462 
42499 
42471 
42483 
42498 
42534 
42558 
42587 
42555 
42497 
42499 
42510 
42506 
42490 
42458 
42441 
42431 
42423 
42418 
42417 
42410 
42394 
42393 
42456 
42498 
42491 
42545 
42624 
42623 
42573 
42557 
42575 
42598 
42586 
42601 
42621 
42649 
42652 
42675 
42696 
42681 
42661 
42634 
42609 
42611 
42631 
42702 
42757 
42724 
42713 
42700 
42694 
42692 
42739 
42811 
42827 
42834 
42819 
42794 
42736 
42706 
42685 
42697 
42705 
42687 
42694 
42752 
42777 
42801 
42743 
42725 
42710 
42725 
42716 
42685 
42672 
42707 
42764 
42757 
42705 
42700 
42717 
42716 
42743 
42754 
42735 
42701 
42676 
42654 
42623 
42629 
42652 
42691 
42703 
42664 
42639 
42573 
42560 
42587 
42582 
42562 
42536 
42530 
42530 
42512 
42542 
42524 
42500 
42488 
42452 
42428 
42416 
42485 
42554 
42549 
42452 
42428 
42446 
42443 
42416 
42411 
42388 
42359 
42360 
42340 
42358 
42424 
42445 
42450 
42482 
42517 
42562 
42574 
42581 
42590 
42561 
42551 
42565 
42533 
42506 
42476 
42461 
42453 
42422 
42460 
42445 
42430 
42420 
42414 
42449 
42459 
42410 
42370 
42345 
42334 
42299 
42346 
42434 
42465 
42460 
42465 
42449 
42458 
42445 
42408 
42378 
42369 
42407 
42435 
42470 
42465 
42491 
42527 
42497 
42437 
42366 
42374 
42415 
42469 
42504 
42516 
42526 
42495 
42491 
42506 
42516 
42506 
42534 
42508 
42523 
42522 
42504 
42455 
42440 
42446 
42502 
42572 
42568 
42589 
42572 
42560 
42601 
42619 
42621 
42640 
42616 
42527 
42502 
42554 
42519 
42488 
42478 
42460 
42477 
42514 
42558 
42580 
42631 
42667 
42654 
42650 
42694 
42664 
42636 
42654 
42695 
42689 
42667 
42647 
42639 
42653 
42636 
42654 
42682 
42748 
42759 
42731 
42705 
42694 
42722 
42751 
42691 
42675 
42689 
42693 
42707 
42696 
42686 
42681 
42661 
42586 
42528 
42569 
42598 
42601 
42609 
42618 
42599 
42561 
42546 
42531 
42493 
42454 
42377 
42373 
42449 
42491 
42505 
42484 
42476 
42477 
42447 
42402 
42361 
42311 
42281 
42296 
42287 
42316 
42375 
42392 
42384 
42332 
42341 
42357 
42336 
42310 
42291 
42334 
42363 
42359 
42343 
42349 
42344 
42291 
42253 
42247 
42183 
42131 
42133 
42157 
42200 
42235 
42193 
42192 
42162 
42116 
42157 
42169 
42168 
42234 
42272 
42267 
42250 
42183 
42143 
42178 
42219 
42259 
42260 
42200 
42214 
42304 
42361 
42343 
42287 
42260 
42276 
42280 
42269 
42252 
42315 
42331 
42305 
42341 
42374 
42390 
42403 
42360 
42337 
42370 
42372 
42361 
42342 
42391 
42388 
42357 
42396 
42450 
42475 
42488 
42514 
42525 
42523 
42503 
42508 
42475 
42513 
42554 
42593 
42575 
42573 
42615 
42665 
42675 
42610 
42580 
42590 
42603 
42648 
42646 
42678 
42714 
42748 
42797 
42810 
42864 
42873 
42845 
42849 
42818 
42771 
42784 
42821 
42868 
42902 
42916 
42927 
42916 
42889 
42909 
42916 
42928 
42911 
42910 
42933 
42909 
42916 
42935 
42903 
42860 
42822 
42836 
42840 
42877 
42892 
42931 
42981 
43032 
43001 
42961 
42942 
42958 
42980 
42989 
42979 
42928 
42928 
42978 
42969 
42916 
42920 
42934 
42957 
42966 
42931 
42898 
42812 
42766 
42787 
42827 
42839 
42795 
42792 
42755 
42621 
42537 
42521 
42501 
42494 
42495 
42560 
42537 
42437 
42410 
42383 
42359 
42331 
42319 
42302 
42298 
42322 
42272 
42255 
42235 
42168 
42149 
42168 
42170 
42176 
42204 
42179 
42191 
42165 
42128 
42108 
42112 
42115 
42110 
42108 
42101 
42087 
42090 
42083 
42083 
42076 
42066 
42045 
42007 
41979 
41992 
42021 
42021 
42046 
42112 
42128 
42151 
42173 
42191 
42250 
42298 
42320 
42303 
42284 
42256 
42248 
42218 
42219 
42212 
42224 
42244 
42232 
42249 
42266 
42298 
42301 
42290 
42294 
42313 
42305 
42329 
42375 
42346 
42326 
42343 
42392 
42493 
42531 
42496 
42498 
42501 
42448 
42419 
42421 
42366 
42370 
42430 
42500 
42499 
42487 
42497 
42531 
42591 
42602 
42596 
42591 
42611 
42630 
42648 
42701 
42713 
42725 
42742 
42756 
42775 
42815 
42829 
42800 
42776 
42777 
42813 
42889 
42941 
42985 
43012 
43005 
43006 
43011 
43083 
43121 
43135 
43135 
43146 
43148 
43158 
43176 
43196 
43162 
43180 
43269 
43292 
43337 
43404 
43427 
43376 
43314 
43303 
43334 
43314 
43334 
43329 
43344 
43435 
43456 
43458 
43480 
43522 
43565 
43579 
43572 
43505 
43440 
43429 
43404 
43353 
43327 
43355 
43371 
43360 
43294 
43246 
43241 
43247 
43239 
43235 
43202 
43180 
43179 
43194 
43193 
43152 
43074 
43056 
43038 
42969 
42898 
42859 
42840 
42825 
42792 
42778 
42749 
42739 
42703 
42647 
42614 
42596 
42544 
42508 
42474 
42399 
42378 
42417 
42393 
42382 
42419 
42477 
42486 
42457 
42414 
42403 
42382 
42339 
42360 
42357 
42294 
42232 
42222 
42264 
42287 
42294 
42317 
42298 
42310 
42286 
42269 
42294 
42268 
42260 
42247 
42250 
42213 
42160 
42145 
42201 
42264 
42309 
42340 
42340 
42327 
42321 
42305 
42283 
42278 
42297 
42344 
42371 
42362 
42376 
42366 
42435 
42466 
42453 
42457 
42546 
42595 
42586 
42613 
42641 
42688 
42691 
42730 
42737 
42809 
42884 
42918 
42917 
42939 
42931 
42918 
42962 
42955 
42960 
43017 
43069 
43038 
43009 
42988 
42931 
42965 
43016 
43050 
43077 
43121 
43200 
43220 
43234 
43287 
43323 
43336 
43297 
43319 
43334 
43338 
43379 
43417 
43456 
43485 
43541 
43531 
43507 
43556 
43651 
43783 
43855 
43829 
43748 
43730 
43757 
43735 
43732 
43704 
43659 
43660 
43711 
43824 
43848 
43881 
43956 
43975 
43951 
43948 
43945 
43985 
44003 
44035 
44115 
44152 
44166 
44126 
44129 
44147 
44180 
44183 
44175 
44237 
44280 
44266 
44252 
44295 
44358 
44383 
44397 
44326 
44279 
44265 
44252 
44209 
44196 
44157 
44099 
44054 
43968 
43866 
43821 
43830 
43778 
43717 
43689 
43669 
43643 
43619 
43643 
43674 
43606 
43505 
43401 
43361 
43375 
43333 
43319 
43282 
43172 
43138 
43115 
43142 
43193 
43239 
43176 
43129 
43101 
43078 
43041 
43046 
43080 
43089 
43083 
43130 
43151 
43099 
43054 
43037 
42991 
42915 
42871 
42931 
42937 
42883 
42883 
42882 
42880 
42875 
42923 
42954 
42943 
42937 
42979 
43035 
43063 
43065 
43084 
43081 
43078 
43069 
43124 
43178 
43229 
43251 
43242 
43193 
43155 
43166 
43197 
43247 
43247 
43197 
43169 
43157 
43130 
43170 
43192 
43187 
43227 
43204 
43150 
43168 
43219 
43246 
43264 
43269 
43294 
43309 
43340 
43382 
43402 
43350 
43352 
43419 
43415 
43413 
43453 
43520 
43611 
43675 
43719 
43765 
43785 
43798 
43817 
43863 
43881 
43915 
43915 
43887 
43868 
43920 
43977 
43981 
44029 
44069 
44119 
44090 
44069 
44080 
44098 
44184 
44261 
44282 
44215 
44205 
44261 
44315 
44389 
44526 
44597 
44627 
44604 
44632 
44670 
44664 
44619 
44597 
44676 
44729 
44750 
44793 
44788 
44843 
44913 
44899 
44878 
44937 
44964 
44976 
44968 
44987 
44990 
44954 
44935 
44887 
44804 
44772 
44697 
44640 
44637 
44653 
44594 
44467 
44394 
44368 
44288 
44175 
44138 
44107 
44050 
43975 
43861 
43771 
43709 
43636 
43593 
43529 
43475 
43376 
43276 
43231 
43202 
43137 
43074 
43026 
42959 
42877 
42794 
42736 
42695 
42593 
42487 
42374 
42262 
42212 
42244 
42270 
42244 
42192 
42102 
42019 
41924 
41868 
41867 
41892 
41890 
41890 
41851 
41775 
41719 
41671 
41612 
41605 
41619 
41601 
41605 
41600 
41606 
41632 
41630 
41596 
41559 
41554 
41588 
41622 
41658 
41664 
41687 
41736 
41732 
41763 
41825 
41858 
41906 
41889 
41880 
41926 
42023 
42122 
42189 
42216 
42250 
42302 
42348 
42380 
42418 
42478 
42506 
42587 
42647 
42673 
42696 
42767 
42834 
42875 
42964 
43041 
43137 
43300 
43388 
43475 
43537 
43533 
43531 
43548 
43620 
43660 
43722 
43752 
43793 
43833 
43926 
44104 
44228 
44255 
44301 
44334 
44351 
44411 
44514 
44608 
44710 
44784 
44790 
44801 
44851 
44880 
44933 
45005 
45072 
45080 
45150 
45253 
45369 
45466 
45461 
45503 
45605 
45626 
45680 
45719 
45786 
45795 
45843 
45921 
45931 
45913 
45961 
45977 
45968 
45955 
45993 
46116 
46202 
46256 
46323 
46325 
46264 
46304 
46373 
46431 
46522 
46516 
46475 
46476 
46421 
46385 
46351 
46296 
46185 
46080 
46011 
45958 
45890 
45809 
45671 
45554 
45455 
45309 
45201 
45022 
44871 
44772 
44609 
44422 
44314 
44261 
44153 
44054 
43983 
43880 
43752 
43642 
43559 
43451 
43314 
43163 
43064 
43023 
42953 
42862 
42769 
42666 
42581 
42553 
42468 
42416 
42375 
42279 
42232 
42139 
42144 
42127 
42071 
42023 
42021 
42107 
42152 
42110 
42091 
42109 
42141 
42154 
42121 
42149 
42230 
42326 
42365 
42374 
42387 
42391 
42403 
42455 
42496 
42466 
42514 
42594 
42641 
42654 
42719 
42787 
42846 
42886 
42882 
42904 
42958 
43072 
43156 
43199 
43278 
43347 
43427 
43458 
43517 
43560 
43570 
43579 
43639 
43697 
43729 
43787 
43868 
43971 
44094 
44173 
44226 
44260 
44358 
44423 
44447 
44510 
44596 
44648 
44710 
44783 
44899 
44974 
45030 
45104 
45187 
45245 
45280 
45271 
45320 
45375 
45485 
45539 
45644 
45785 
45939 
46045 
46143 
46230 
46320 
46362 
46397 
46454 
46499 
46566 
46660 
46688 
46683 
46793 
46939 
47018 
47088 
47165 
47199 
47304 
47423 
47498 
47523 
47537 
47553 
47605 
47725 
47858 
47949 
47978 
47958 
47984 
48058 
48129 
48137 
48123 
48170 
48221 
48263 
48349 
48438 
48466 
48530 
48588 
48616 
48669 
48715 
48790 
48856 
48864 
48855 
48871 
48867 
48849 
48857 
48839 
48751 
48644 
48582 
48520 
48405 
48287 
48158 
48044 
47872 
47662 
47500 
47359 
47255 
47145 
47002 
46878 
46775 
46650 
46502 
46388 
46247 
46117 
46061 
45979 
45904 
45840 
45728 
45621 
45543 
45484 
45426 
45340 
45238 
45170 
45121 
45095 
45102 
45066 
45014 
44931 
44899 
44842 
44775 
44803 
44807 
44819 
44882 
44942 
44936 
44942 
44983 
45032 
45116 
45242 
45320 
45385 
45467 
45554 
45664 
45742 
45813 
45890 
45960 
46031 
46059 
46123 
46226 
46357 
46458 
46492 
46533 
46670 
46739 
46754 
46814 
46905 
47023 
47104 
47141 
47185 
47252 
47301 
47342 
47350 
47385 
47526 
47649 
47740 
47813 
47860 
47940 
48023 
48129 
48204 
48222 
48230 
48270 
48309 
48339 
48341 
48474 
48642 
48687 
48710 
48761 
48837 
48880 
48943 
48967 
49041 
49117 
49119 
49113 
49149 
49217 
49281 
49371 
49504 
49594 
49655 
49683 
49676 
49677 
49717 
49780 
49846 
49886 
49949 
50046 
50127 
50196 
50296 
50330 
50308 
50316 
50327 
50354 
50350 
50408 
50436 
50479 
50557 
50627 
50714 
50762 
50775 
50790 
50811 
50822 
50853 
50928 
50947 
50932 
50947 
51000 
51073 
51119 
51215 
51229 
51212 
51213 
51235 
51269 
51265 
51236 
51289 
51352 
51360 
51370 
51403 
51403 
51305 
51226 
51170 
51085 
50987 
50816 
50591 
50375 
50178 
49987 
49815 
49644 
49462 
49267 
49066 
48909 
48747 
48558 
48396 
48235 
48065 
47901 
47712 
47586 
47521 
47378 
47268 
47129 
46923 
46775 
46662 
46550 
46456 
46364 
46309 
46278 
46201 
46155 
46093 
46012 
45898 
45803 
45796 
45836 
45841 
45813 
45815 
45797 
45819 
45877 
45933 
45994 
46036 
46043 
46110 
46177 
46239 
46293 
46287 
46270 
46308 
46409 
46528 
46618 
46695 
46729 
46777 
46824 
46860 
46970 
47092 
47147 
47204 
47292 
47425 
47500 
47553 
47678 
47842 
47924 
47983 
48029 
48039 
48041 
48117 
48237 
48375 
48420 
48432 
48408 
48422 
48457 
48539 
48644 
48704 
48743 
48772 
48823 
48903 
49013 
49069 
49122 
49205 
49252 
49262 
49313 
49396 
49449 
49552 
49607 
49646 
49712 
49771 
49798 
49824 
49856 
49951 
49987 
50015 
50058 
50076 
50106 
50098 
50136 
50165 
50182 
50217 
50252 
50243 
50317 
50379 
50443 
50505 
50508 
50469 
50469 
50501 
50587 
50661 
50735 
50725 
50734 
50765 
50827 
50835 
50850 
50881 
50874 
50884 
50936 
50926 
50906 
50927 
50941 
50889 
50915 
50945 
50931 
50920 
50970 
51016 
51051 
51050 
51044 
51090 
51141 
51166 
51162 
51139 
51152 
51134 
51045 
51009 
50972 
50903 
50860 
50736 
50558 
50378 
50146 
49957 
49708 
49480 
49273 
49097 
48885 
48701 
48481 
48267 
48042 
47864 
47685 
47453 
47221 
47029 
46874 
46719 
46502 
46267 
46125 
46029 
45927 
45818 
45685 
45531 
45435 
45397 
45347 
45233 
45122 
45046 
44992 
44936 
44886 
44856 
44837 
44796 
44791 
44829 
44833 
44777 
44751 
44792 
44898 
44976 
45039 
45139 
45171 
45207 
45290 
45356 
45403 
45517 
45657 
45728 
45836 
45923 
46063 
46219 
46354 
46450 
46514 
46539 
46624 
46769 
46936 
47089 
47199 
47256 
47319 
47399 
47480 
47528 
47614 
47762 
47880 
47991 
48085 
48118 
48115 
48182 
48266 
48299 
48310 
48401 
48522 
48644 
48744 
48814 
48853 
48887 
48923 
49009 
49121 
49197 
49240 
49305 
49381 
49491 
49579 
49620 
49676 
49719 
49715 
49717 
49767 
49799 
49821 
49916 
50007 
50017 
50005 
50071 
50099 
50115 
50158 
50174 
50194 
50204 
50270 
50361 
50396 
50475 
50545 
50538 
50514 
50488 
50553 
50601 
50671 
50759 
50817 
50867 
50926 
50961 
50962 
50996 
51016 
51037 
51024 
51047 
51147 
51227 
51252 
51217 
51258 
51351 
51396 
51404 
51399 
51352 
51366 
51444 
51513 
51565 
51556 
51572 
51604 
51609 
51576 
51563 
51604 
51656 
51695 
51664 
51712 
51767 
51787 
51781 
51794 
51817 
51769 
51718 
51721 
51674 
51526 
51359 
51189 
50969 
50770 
50596 
50409 
50272 
50080 
49850 
49589 
49316 
49056 
48851 
48664 
48404 
48181 
48009 
47810 
47571 
47386 
47233 
47081 
46976 
46756 
46535 
46425 
46362 
46256 
46172 
46101 
46003 
45869 
45744 
45636 
45504 
45381 
45275 
45209 
45193 
45127 
45058 
45061 
45107 
45102 
45063 
45062 
45076 
45110 
45168 
45183 
45227 
45310 
45348 
45391 
45460 
45539 
45644 
45764 
45846 
45950 
46022 
46109 
46220 
46336 
46428 
46520 
46593 
46707 
46835 
46943 
47020 
47090 
47176 
47239 
47333 
47442 
47527 
47636 
47704 
47755 
47803 
47821 
47915 
48003 
48062 
48136 
48190 
48258 
48350 
48414 
48474 
48576 
48677 
48710 
48730 
48758 
48809 
48911 
49013 
49051 
49069 
49116 
49150 
49202 
49238 
49299 
49413 
49500 
49557 
49549 
49561 
49593 
49655 
49696 
49703 
49718 
49745 
49730 
49733 
49780 
49817 
49886 
49941 
50010 
50095 
50164 
50220 
50285 
50324 
50349 
50315 
50247 
50214 
50256 
50320 
50399 
50496 
50538 
50543 
50570 
50569 
50607 
50643 
50685 
50718 
50699 
50710 
50707 
50737 
50746 
50757 
50825 
50925 
50967 
51005 
51052 
51059 
51047 
51111 
51160 
51219 
51235 
51216 
51211 
51248 
51246 
51264 
51276 
51259 
51220 
51234 
51274 
51298 
51353 
51345 
51347 
51340 
51374 
51371 
51309 
51290 
51274 
51251 
51252 
51289 
51297 
51247 
51198 
51091 
51004 
50875 
50754 
50633 
50412 
50160 
49924 
49692 
49510 
49281 
49014 
48811 
48628 
48449 
48259 
48054 
47813 
47612 
47416 
47213 
47047 
46874 
46730 
46611 
46414 
46294 
46179 
46017 
45858 
45744 
45633 
45504 
45417 
45393 
45343 
45226 
45138 
45094 
45085 
45037 
44964 
44929 
44895 
44872 
44898 
44975 
45033 
45123 
45143 
45150 
45176 
45206 
45238 
45339 
45431 
45502 
45562 
45626 
45752 
45864 
45966 
46035 
46099 
46159 
46256 
46364 
46469 
46607 
46754 
46839 
46924 
46967 
46992 
47103 
47204 
47278 
47416 
47479 
47532 
47589 
47650 
47710 
47808 
47899 
47965 
48056 
48116 
48115 
48125 
48149 
48158 
48170 
48240 
48313 
48382 
48448 
48472 
48547 
48636 
48695 
48742 
48812 
48875 
48902 
48935 
48970 
49006 
49125 
49228 
49216 
49228 
49263 
49288 
49331 
49415 
49484 
49497 
49482 
49497 
49527 
49551 
49633 
49678 
49774 
49896 
49916 
49919 
49947 
49991 
49979 
50025 
50068 
50043 
50075 
50167 
50230 
50262 
50335 
50367 
50395 
50429 
50459 
50492 
50555 
50608 
50581 
50573 
50610 
50622 
50635 
50638 
50662 
50635 
50591 
50629 
50681 
50658 
50677 
50694 
50641 
50661 
50739 
50802 
50800 
50826 
50843 
50858 
50858 
50845 
50856 
50828 
50763 
50724 
50688 
50613 
50477 
50311 
50202 
50042 
49856 
49699 
49486 
49233 
48993 
48759 
48543 
48419 
48263 
48067 
47841 
47631 
47460 
47316 
47113 
46912 
46755 
46570 
46437 
46309 
46197 
46085 
45963 
45820 
45710 
45591 
45482 
45391 
45301 
45200 
45200 
45189 
45155 
45142 
45129 
45084 
44991 
44970 
44951 
44978 
45027 
45055 
45097 
45148 
45192 
45232 
45258 
45313 
45407 
45479 
45584 
45729 
45832 
45897 
46009 
46117 
46218 
46386 
46559 
46661 
46693 
46795 
46962 
47108 
47211 
47301 
47368 
47460 
47540 
47613 
47704 
47781 
47866 
47943 
48039 
48078 
48092 
48135 
48190 
48229 
48256 
48305 
48367 
48382 
48395 
48468 
48548 
48615 
48641 
48719 
48781 
48790 
48805 
48789 
48783 
48828 
48899 
48963 
48999 
49069 
49151 
49143 
49153 
49174 
49260 
49317 
49315 
49311 
49358 
49380 
49398 
49441 
49488 
49510 
49534 
49601 
49703 
49747 
49726 
49689 
49684 
49751 
49864 
49900 
49907 
49915 
49936 
49944 
49931 
49938 
49989 
50024 
50079 
50187 
50287 
50335 
50316 
50303 
50344 
50388 
50446 
50474 
50445 
50435 
50442 
50440 
50420 
50420 
50470 
50516 
50515 
50509 
50506 
50560 
50619 
50673 
50704 
50707 
50709 
50755 
50759 
50759 
50731 
50739 
50739 
50758 
50776 
50677 
50564 
50517 
50472 
50370 
50207 
50052 
49834 
49588 
49388 
49167 
48926 
48720 
48506 
48305 
48051 
47780 
47538 
47346 
47138 
46938 
46715 
46521 
46342 
46175 
46012 
45842 
45669 
45526 
45371 
45242 
45061 
44947 
44892 
44859 
44789 
44731 
44707 
44689 
44623 
44573 
44573 
44571 
44530 
44507 
44529 
44467 
44476 
44498 
44532 
44550 
44594 
44618 
44679 
44756 
44771 
44761 
44834 
44961 
45129 
45290 
45426 
45513 
45619 
45710 
45823 
45935 
46036 
46163 
46259 
46338 
46430 
46591 
46666 
46797 
46950 
47044 
47086 
47162 
47281 
47395 
47472 
47580 
47683 
47759 
47826 
47898 
47998 
48070 
48154 
48229 
48252 
48294 
48312 
48381 
48484 
48544 
48628 
48658 
48706 
48753 
48812 
48824 
48833 
48849 
48925 
48997 
49071 
49123 
49132 
49160 
49133 
49116 
49113 
49076 
49136 
49275 
49370 
49430 
49508 
49561 
49619 
49622 
49655 
49720 
49802 
49833 
49790 
49820 
49872 
49911 
49941 
50007 
50040 
50097 
50179 
50239 
50306 
50313 
50301 
50309 
50341 
50364 
50431 
50517 
50593 
50642 
50705 
50760 
50779 
50792 
50834 
50856 
50832 
50824 
50813 
50816 
50845 
50841 
50870 
50886 
50922 
51011 
51054 
51012 
51000 
50984 
50989 
51020 
50997 
51002 
50960 
50966 
51010 
51015 
51029 
50974 
50933 
50871 
50787 
50669 
50534 
50407 
50208 
50024 
49820 
49527 
49295 
49072 
48862 
48624 
48315 
48021 
47773 
47567 
47379 
47185 
46976 
46770 
46578 
46426 
46273 
46123 
46010 
45811 
45659 
45532 
45394 
45335 
45310 
45290 
45225 
45165 
45099 
44983 
44869 
44830 
44791 
44776 
44750 
44789 
44806 
44796 
44841 
44829 
44849 
44884 
44934 
44953 
45014 
45073 
45105 
45184 
45329 
45453 
45511 
45618 
45686 
45724 
45812 
45932 
46093 
46229 
46319 
46432 
46575 
46686 
46750 
46830 
46894 
46968 
47155 
47282 
47318 
47387 
47469 
47516 
47552 
47610 
47744 
47842 
47956 
48053 
48149 
48170 
48236 
48328 
48397 
48401 
48441 
48489 
48518 
48533 
48568 
48626 
48721 
48767 
48802 
48846 
48874 
48918 
48964 
49010 
49057 
49097 
49129 
49154 
49193 
49238 
49308 
49349 
49427 
49439 
49421 
49473 
49529 
49580 
49623 
49627 
49657 
49711 
49701 
49768 
49814 
49873 
49985 
50054 
50105 
50179 
50202 
50216 
50261 
50280 
50276 
50325 
50416 
50482 
50542 
50535 
50537 
50564 
50559 
50605 
50625 
50640 
50649 
50688 
50744 
50789 
50846 
50893 
50965 
51005 
51036 
51034 
51007 
51005 
51005 
51012 
51042 
51116 
51160 
51195 
51198 
51224 
51266 
51272 
51230 
51197 
51137 
51058 
50919 
50822 
50700 
50549 
50364 
50110 
49834 
49575 
49357 
49166 
48960 
48757 
48576 
48334 
48090 
47892 
47676 
47453 
47231 
47052 
46889 
46729 
46594 
46443 
46278 
46174 
46047 
45876 
45768 
45712 
45705 
45628 
45533 
45481 
45409 
45362 
45336 
45326 
45287 
45271 
45251 
45239 
45270 
45281 
45335 
45392 
45488 
45624 
45680 
45716 
45873 
45993 
46074 
46167 
46314 
46421 
46538 
46656 
46749 
46872 
46997 
47122 
47265 
47393 
47493 
47631 
47685 
47741 
47807 
47925 
48025 
48105 
48175 
48285 
48396 
48481 
48594 
48669 
48720 
48763 
48810 
48956 
49065 
49083 
49104 
49164 
49227 
49279 
49338 
49379 
49451 
49533 
49586 
49620 
49673 
49698 
49704 
49761 
49753 
49746 
49774 
49830 
49857 
49859 
49870 
49914 
50015 
50056 
50097 
50094 
50110 
50135 
50158 
50177 
50230 
50312 
50342 
50317 
50310 
50366 
50454 
50501 
50531 
50553 
50591 
50671 
50691 
50677 
50696 
50729 
50767 
50773 
50766 
50757 
50793 
50872 
50923 
50959 
51000 
50987 
50952 
50948 
50962 
50989 
51003 
51038 
51002 
50983 
50976 
50996 
51057 
51120 
51163 
51176 
51178 
51219 
51191 
51140 
51078 
50996 
50883 
50856 
50785 
50646 
50498 
50286 
50054 
49802 
49506 
49153 
48835 
48588 
48357 
48144 
47934 
47705 
47486 
47249 
47008 
46800 
46669 
46514 
46394 
46326 
46183 
46053 
45923 
45806 
45710 
45612 
45508 
45420 
45356 
45248 
45215 
45223 
45174 
45153 
45169 
45216 
45241 
45281 
45330 
45370 
45457 
45472 
45470 
45419 
45451 
45580 
45664 
45758 
45827 
45901 
46052 
46160 
46215 
46286 
46391 
46461 
46550 
46697 
46886 
47115 
47250 
47310 
47432 
47511 
47652 
47870 
47965 
48020 
48078 
48178 
48266 
48333 
48417 
48492 
48529 
48649 
48724 
48774 
48838 
48918 
48980 
49069 
49121 
49142 
49130 
49180 
49243 
49271 
49286 
49349 
49398 
49471 
49482 
49516 
49548 
49609 
49664 
49672 
49713 
49779 
49819 
49847 
49831 
49829 
49848 
49889 
49963 
50015 
50034 
50036 
50122 
50188 
50237 
50293 
50288 
50311 
50346 
50389 
50403 
50447 
50546 
50598 
50630 
50644 
50667 
50708 
50728 
50733 
50763 
50766 
50804 
50894 
50892 
50864 
50880 
50965 
51022 
51075 
51119 
51090 
51054 
51064 
51093 
51158 
51260 
51300 
51311 
51355 
51413 
51435 
51491 
51556 
51570 
51540 
51538 
51599 
51627 
51604 
51572 
51577 
51534 
51452 
51355 
51222 
51100 
50926 
50735 
50497 
50242 
49955 
49739 
49471 
49208 
48982 
48760 
48484 
48252 
48034 
47806 
47587 
47381 
47180 
46966 
46791 
46653 
46488 
46303 
46142 
46030 
45978 
45924 
45882 
45822 
45754 
45728 
45751 
45714 
45688 
45693 
45701 
45677 
45650 
45632 
45634 
45625 
45592 
45653 
45761 
45808 
45812 
45841 
45896 
45978 
46085 
46188 
46271 
46350 
46410 
46513 
46676 
46845 
47014 
47146 
47218 
47288 
47445 
47585 
47707 
47813 
47889 
47975 
47993 
48128 
48251 
48349 
48442 
48501 
48534 
48607 
48728 
48806 
48855 
48890 
48925 
49021 
49175 
49253 
49226 
49217 
49293 
49353 
49386 
49400 
49433 
49481 
49528 
49519 
49451 
49510 
49611 
49610 
49625 
49703 
49763 
49806 
49885 
49957 
49974 
50055 
50154 
50168 
50170 
50186 
50216 
50273 
50379 
50400 
50380 
50421 
50545 
50640 
50686 
50675 
50717 
50825 
50881 
50924 
50945 
50973 
51013 
51018 
51062 
51067 
51109 
51225 
51303 
51381 
51455 
51508 
51552 
51550 
51597 
51656 
51696 
51771 
51803 
51835 
51806 
51786 
51838 
51966 
52084 
52124 
52088 
52048 
52064 
52120 
52127 
52158 
52222 
52247 
52229 
52253 
52222 
52163 
52154 
52166 
52179 
52167 
52135 
52124 
52112 
52088 
52046 
51987 
51869 
51733 
51656 
51549 
51335 
51118 
50911 
50679 
50413 
50162 
49886 
49612 
49327 
49076 
48858 
48657 
48428 
48172 
47928 
47726 
47501 
47272 
47117 
46953 
46789 
46647 
46541 
46467 
46370 
46262 
46157 
46081 
46013 
45968 
45934 
45911 
45876 
45860 
45836 
45857 
45842 
45833 
45835 
45835 
45822 
45809 
45810 
45793 
45802 
45826 
45925 
46007 
46030 
46140 
46262 
46331 
46415 
46463 
46569 
46738 
46840 
46971 
47069 
47195 
47377 
47507 
47639 
47788 
47895 
47954 
48002 
48065 
48112 
48199 
48432 
48515 
48569 
48656 
48782 
48914 
48971 
48972 
49022 
49064 
49079 
49133 
49162 
49241 
49282 
49324 
49374 
49408 
49413 
49461 
49571 
49653 
49682 
49689 
49685 
49706 
49746 
49736 
49737 
49785 
49886 
49959 
50059 
50133 
50182 
50220 
50251 
50297 
50342 
50437 
50505 
50447 
50434 
50436 
50475 
50582 
50627 
50706 
50771 
50735 
50784 
50794 
50805 
50821 
50838 
50908 
50950 
50919 
50919 
50980 
51015 
51052 
51131 
51164 
51209 
51279 
51338 
51365 
51376 
51419 
51480 
51534 
51533 
51531 
51546 
51558 
51607 
51620 
51641 
51689 
51707 
51718 
51768 
51801 
51797 
51776 
51797 
51807 
51794 
51831 
51853 
51899 
51939 
51936 
51937 
51952 
51976 
51993 
52054 
52080 
52059 
52001 
51969 
51987 
51994 
51992 
51927 
51867 
51855 
51795 
51699 
51569 
51384 
51156 
50946 
50746 
50566 
50326 
50059 
49843 
49665 
49412 
49130 
48909 
48672 
48391 
48108 
47852 
47626 
47413 
47223 
47045 
46913 
46772 
46601 
46448 
46301 
46180 
46094 
46036 
45960 
45918 
45861 
45787 
45731 
45687 
45689 
45709 
45689 
45660 
45671 
45679 
45647 
45619 
45597 
45581 
45583 
45618 
45643 
45685 
45761 
45831 
45920 
46023 
46105 
46160 
46246 
46376 
46453 
46516 
46602 
46691 
46739 
46857 
46981 
47110 
47207 
47272 
47361 
47516 
47620 
47702 
47849 
47960 
47989 
47982 
47998 
48068 
48132 
48185 
48231 
48246 
48262 
48297 
48340 
48352 
48387 
48428 
48437 
48441 
48482 
48495 
48492 
48524 
48555 
48532 
48532 
48601 
48662 
48695 
48716 
48734 
48790 
48793 
48778 
48796 
48824 
48848 
48917 
49017 
49116 
49144 
49129 
49179 
49209 
49261 
49361 
49435 
49490 
49567 
49654 
49719 
49804 
49903 
49973 
50024 
50091 
50161 
50214 
50302 
50324 
50356 
50410 
50476 
50561 
50646 
50669 
50742 
50827 
50900 
50948 
50960 
51042 
51103 
51168 
51226 
51291 
51336 
51383 
51389 
51424 
51486 
51543 
51562 
51628 
51700 
51763 
51776 
51797 
51786 
51828 
51906 
51924 
51912 
51892 
51895 
51928 
51956 
51960 
51885 
51856 
51887 
51973 
52057 
52042 
52010 
52000 
51942 
51819 
51681 
51535 
51390 
51156 
50900 
50678 
50418 
50165 
49958 
49709 
49432 
49203 
48936 
48666 
48407 
48143 
47903 
47666 
47409 
47190 
46946 
46718 
46570 
46398 
46201 
46038 
45911 
45839 
45726 
45549 
45407 
45350 
45314 
45301 
45304 
45261 
45205 
45178 
45144 
45070 
45006 
45002 
45025 
45070 
45085 
45073 
45146 
45255 
45287 
45325 
45369 
45399 
45458 
45500 
45464 
45487 
45559 
45665 
45763 
45836 
45869 
45925 
46026 
46128 
46226 
46341 
46478 
46520 
46567 
46719 
46880 
46964 
47061 
47130 
47162 
47143 
47130 
47219 
47327 
47379 
47427 
47450 
47480 
47495 
47462 
47467 
47502 
47546 
47560 
47554 
47605 
47660 
47662 
47685 
47676 
47655 
47687 
47755 
47801 
47852 
47877 
47904 
47962 
48008 
48058 
48106 
48171 
48219 
48280 
48327 
48384 
48453 
48482 
48543 
48609 
48596 
48614 
48642 
48666 
48692 
48742 
48823 
48969 
49056 
49093 
49156 
49169 
49205 
49297 
49351 
49408 
49480 
49557 
49627 
49677 
49693 
49653 
49703 
49797 
49855 
49876 
49935 
50001 
49999 
49941 
49930 
49951 
50055 
50144 
50181 
50192 
50258 
50332 
50379 
50433 
50481 
50489 
50514 
50535 
50495 
50469 
50452 
50499 
50563 
50586 
50628 
50654 
50687 
50715 
50734 
50767 
50778 
50832 
50859 
50818 
50823 
50797 
50738 
50681 
50653 
50650 
50598 
50503 
50354 
50217 
50054 
49811 
49544 
49195 
48884 
48624 
48333 
48074 
47849 
47592 
47326 
47058 
46814 
46591 
46340 
46086 
45877 
45738 
45587 
45431 
45260 
45079 
44987 
44905 
44810 
44728 
44664 
44548 
44482 
44419 
44355 
44354 
44411 
44401 
44353 
44340 
44309 
44312 
44321 
44339 
44366 
44384 
44360 
44404 
44424 
44454 
44548 
44571 
44613 
44686 
44824 
44903 
44933 
44992 
45045 
45098 
45170 
45273 
45394 
45483 
45600 
45716 
45804 
45867 
45936 
46080 
46256 
46381 
46443 
46507 
46635 
46704 
46725 
46766 
46873 
46951 
46976 
47015 
47045 
47112 
47195 
47203 
47139 
47106 
47144 
47229 
47248 
47259 
47281 
47264 
47266 
47306 
47315 
47370 
47380 
47431 
47498 
47599 
47669 
47689 
47665 
47727 
47784 
47808 
47817 
47839 
47849 
47937 
48018 
48023 
48019 
48041 
48076 
48139 
48180 
48192 
48305 
48457 
48560 
48626 
48697 
48801 
48869 
48926 
49010 
49064 
49097 
49148 
49211 
49267 
49345 
49412 
49445 
49529 
49601 
49608 
49662 
49774 
49812 
49850 
49851 
49825 
49823 
49899 
49941 
50007 
50054 
50097 
50101 
50108 
50139 
50171 
50172 
50217 
50258 
50266 
50244 
50217 
50269 
50338 
50352 
50337 
50282 
50273 
50332 
50454 
50522 
50555 
50572 
50552 
50536 
50557 
50560 
50555 
50517 
50442 
50376 
50379 
50330 
50204 
50140 
50022 
49812 
49516 
49266 
49041 
48789 
48489 
48144 
47809 
47546 
47278 
47003 
46710 
46433 
46189 
45974 
45764 
45530 
45276 
45079 
44934 
44720 
44500 
44350 
44214 
44110 
44006 
43953 
43867 
43770 
43717 
43663 
43592 
43559 
43543 
43515 
43522 
43582 
43626 
43559 
43493 
43474 
43474 
43524 
43596 
43646 
43684 
43738 
43775 
43800 
43862 
43936 
44001 
44067 
44055 
44034 
44051 
44153 
44296 
44473 
44635 
44745 
44843 
44944 
45024 
45114 
45228 
45323 
45394 
45462 
45572 
45733 
45888 
45948 
45970 
46018 
46062 
46129 
46173 
46237 
46355 
46434 
46467 
46510 
46528 
46538 
46540 
46585 
46587 
46584 
46646 
46644 
46627 
46658 
46625 
46667 
46697 
46748 
46824 
46936 
47018 
47059 
47046 
47089 
47158 
47219 
47246 
47232 
47230 
47246 
47255 
47298 
47374 
47396 
47463 
47569 
47637 
47680 
47766 
47855 
47922 
47940 
48001 
48086 
48085 
48128 
48187 
48288 
48397 
48495 
48542 
48587 
48600 
48638 
48682 
48739 
48768 
48820 
48944 
49002 
49066 
49106 
49128 
49139 
49205 
49290 
49419 
49489 
49499 
49503 
49489 
49493 
49493 
49513 
49583 
49676 
49698 
49722 
49771 
49822 
49825 
49842 
49889 
49912 
49889 
49894 
49838 
49797 
49790 
49769 
49780 
49813 
49828 
49843 
49817 
49799 
49768 
49656 
49544 
49425 
49286 
49079 
48907 
48765 
48512 
48250 
48046 
47792 
47562 
47346 
47041 
46773 
46512 
46273 
46034 
45797 
45538 
45325 
45091 
44890 
44742 
44612 
44519 
44377 
44265 
44158 
44049 
43958 
43917 
43826 
43694 
43641 
43654 
43626 
43625 
43675 
43698 
43720 
43721 
43683 
43708 
43735 
43779 
43851 
43875 
43914 
43956 
44017 
44065 
44148 
44194 
44206 
44283 
44406 
44509 
44586 
44648 
44789 
44954 
45043 
45080 
45141 
45220 
45283 
45359 
45444 
45531 
45638 
45749 
45833 
45920 
46005 
46127 
46203 
46238 
46290 
46279 
46239 
46242 
46266 
46332 
46397 
46391 
46337 
46336 
46358 
46383 
46409 
46391 
46393 
46433 
46454 
46458 
46500 
46559 
46598 
46576 
46589 
46649 
46685 
46767 
46843 
46926 
46997 
47024 
47076 
47141 
47199 
47324 
47400 
47449 
47457 
47490 
47535 
47557 
47622 
47656 
47691 
47778 
47859 
47936 
47973 
47987 
48072 
48131 
48188 
48253 
48284 
48327 
48396 
48462 
48549 
48582 
48573 
48639 
48726 
48782 
48795 
48818 
48848 
48857 
48923 
48979 
49014 
49072 
49113 
49188 
49244 
49306 
49347 
49373 
49389 
49464 
49544 
49574 
49559 
49581 
49610 
49617 
49686 
49720 
49728 
49737 
49783 
49868 
49894 
49836 
49782 
49703 
49653 
49564 
49431 
49281 
49153 
48994 
48802 
48554 
48338 
48086 
47798 
47508 
47215 
46874 
46545 
46239 
45977 
45735 
45454 
45241 
45083 
44925 
44770 
44609 
44442 
44281 
44105 
43995 
43834 
43773 
43716 
43652 
43594 
43539 
43480 
43427 
43378 
43403 
43397 
43300 
43277 
43341 
43373 
43370 
43410 
43469 
43533 
43602 
43659 
43690 
43692 
43692 
43760 
43870 
43952 
44018 
44098 
44237 
44341 
44428 
44486 
44559 
44667 
44843 
45040 
45126 
45219 
45307 
45419 
45495 
45613 
45738 
45818 
45912 
45953 
46007 
46089 
46182 
46329 
46372 
46375 
46401 
46422 
46453 
46427 
46441 
46525 
46614 
46661 
46658 
46652 
46696 
46760 
46749 
46729 
46736 
46784 
46880 
46894 
46905 
46965 
47009 
47021 
47003 
47047 
47090 
47104 
47165 
47235 
47251 
47289 
47335 
47417 
47455 
47412 
47420 
47492 
47537 
47612 
47663 
47676 
47717 
47731 
47788 
47871 
47902 
47965 
48080 
48156 
48235 
48312 
48424 
48509 
48542 
48587 
48659 
48785 
48856 
48889 
48922 
49007 
49088 
49168 
49274 
49352 
49367 
49340 
49314 
49272 
49277 
49401 
49583 
49736 
49784 
49816 
49832 
49896 
49985 
50031 
50057 
50128 
50190 
50217 
50230 
50245 
50256 
50273 
50225 
50230 
50211 
50135 
50037 
49959 
49831 
49715 
49601 
49380 
49160 
48940 
48650 
48350 
48087 
47840 
47553 
47216 
46869 
46548 
46228 
45915 
45667 
45413 
45154 
44899 
44661 
44444 
44288 
44115 
43953 
43850 
43759 
43639 
43550 
43429 
43324 
43288 
43248 
43237 
43255 
43242 
43251 
43235 
43214 
43237 
43215 
43176 
43196 
43259 
43277 
43263 
43326 
43354 
43392 
43514 
43610 
43690 
43728 
43782 
43877 
43997 
44088 
44209 
44412 
44559 
44643 
44724 
44782 
44901 
45088 
45206 
45337 
45485 
45620 
45787 
45950 
46021 
46024 
46085 
46112 
46110 
46128 
46145 
46223 
46385 
46483 
46535 
46541 
46491 
46429 
46421 
46424 
46475 
46521 
46539 
46522 
46521 
46519 
46509 
46516 
46575 
46628 
46651 
46624 
46610 
46600 
46636 
46741 
46772 
46790 
46817 
46798 
46872 
46944 
46984 
47028 
47025 
47062 
47124 
47223 
47273 
47301 
47343 
47392 
47497 
47569 
47665 
47734 
47765 
47876 
47897 
47921 
48017 
48118 
48199 
48212 
48282 
48404 
48472 
48471 
48554 
48694 
48780 
48835 
48940 
49028 
49107 
49198 
49290 
49387 
49382 
49430 
49509 
49607 
49690 
49754 
49744 
49779 
49869 
49909 
49930 
49973 
50024 
50085 
50070 
50093 
50131 
50156 
50152 
50141 
50180 
50207 
50217 
50246 
50230 
50202 
50187 
50225 
50224 
50186 
50114 
50033 
49922 
49771 
49573 
49122 
48907 
48660 
48408 
48154 
47837 
47540 
47268 
46978 
46712 
46449 
46219 
45991 
45773 
45544 
45292 
45042 
44833 
44670 
44525 
44318 
44159 
44105 
44025 
43933 
43864 
43771 
43655 
43558 
43543 
43535 
43523 
43520 
43493 
43514 
43585 
43624 
43684 
43711 
43710 
43797 
43831 
43874 
43901 
43948 
44013 
44064 
44113 
44177 
44255 
44327 
44379 
44391 
44477 
44570 
44649 
44684 
44703 
44840 
44972 
45021 
45115 
45199 
45244 
45396 
45518 
45583 
45675 
45734 
45730 
45735 
45817 
45889 
45935 
45967 
46035 
46127 
46201 
46208 
46193 
46254 
46373 
46471 
46506 
46515 
46488 
46457 
46456 
46499 
46521 
46523 
46594 
46636 
46730 
46824 
46855 
46935 
47037 
47068 
47088 
47126 
47176 
47206 
47345 
47445 
47504 
47543 
47594 
47695 
47760 
47818 
47917 
48003 
48039 
48078 
48131 
48218 
48267 
48274 
48341 
48380 
48402 
48458 
48500 
48536 
48573 
48647 
48749 
48768 
48838 
48910 
48904 
48913 
49009 
49086 
49131 
49205 
49300 
49372 
49402 
49423 
49465 
49490 
49531 
49561 
49644 
49734 
49794 
49828 
49874 
49885 
49898 
49945 
50030 
50125 
50206 
50225 
50327 
50389 
50358 
50415 
50472 
50460 
50417 
50381 
50437 
50455 
50426 
50419 
50389 
50324 
50224 
50145 
50015 
49836 
49674 
49470 
49230 
48988 
48769 
48530 
48294 
48037 
47719 
47411 
47132 
46839 
46480 
46191 
45980 
45748 
45535 
45375 
45238 
45092 
44917 
44750 
44621 
44458 
44308 
44224 
44129 
44057 
43991 
43924 
43872 
43817 
43837 
43841 
43785 
43739 
43690 
43671 
43719 
43752 
43797 
43861 
43847 
43880 
43940 
44040 
44134 
44181 
44251 
44279 
44301 
44332 
44391 
44483 
44619 
44701 
44802 
44880 
44972 
45100 
45196 
45264 
45409 
45585 
45713 
45816 
45921 
46080 
46201 
46281 
46417 
46544 
46646 
46703 
46783 
46853 
46891 
46998 
47157 
47249 
47337 
47395 
47499 
47636 
47660 
47712 
47838 
47953 
48035 
48060 
48096 
48185 
48234 
48214 
48214 
48251 
48374 
48480 
48526 
48502 
48493 
48517 
48551 
48603 
48685 
48780 
48824 
48856 
48865 
48839 
48796 
48804 
48850 
48934 
49023 
49062 
49059 
49078 
49154 
49209 
49194 
49149 
49141 
49208 
49288 
49356 
49407 
49422 
49413 
49458 
49496 
49544 
49582 
49561 
49579 
49614 
49643 
49624 
49629 
49672 
49668 
49687 
49695 
49678 
49717 
49768 
49834 
49856 
49807 
49726 
49711 
49780 
49864 
49863 
49807 
49786 
49813 
49799 
49769 
49774 
49786 
49748 
49686 
49593 
49522 
49433 
49351 
49354 
49365 
49370 
49378 
49342 
49227 
49108 
49000 
48889 
48758 
48674 
48550 
48410 
48196 
47977 
47794 
47549 
47336 
47155 
46932 
46721 
46522 
46321 
46100 
45883 
45630 
45471 
45326 
45151 
45015 
44853 
44694 
44524 
44394 
44291 
44155 
44049 
43991 
43921 
43816 
43725 
43672 
43650 
43654 
43696 
43706 
43669 
43571 
43489 
43497 
43459 
43373 
43342 
43370 
43465 
43547 
43582 
43576 
43593 
43588 
43607 
43598 
43614 
43687 
43841 
43980 
44028 
44027 
44078 
44126 
44144 
44196 
44300 
44389 
44490 
44557 
44606 
44724 
44845 
44921 
45010 
45069 
45105 
45118 
45236 
45342 
45406 
45519 
45615 
45727 
45835 
45952 
46072 
46239 
46330 
46386 
46470 
46500 
46549 
46638 
46732 
46861 
46958 
47028 
47062 
47107 
47213 
47287 
47364 
47427 
47459 
47488 
47547 
47590 
47665 
47733 
47687 
47683 
47738 
47799 
47870 
47955 
48005 
48075 
48128 
48183 
48198 
48240 
48249 
48278 
48344 
48342 
48373 
48416 
48396 
48385 
48380 
48315 
48289 
48265 
48197 
48147 
48064 
48051 
48087 
48106 
48035 
47984 
47923 
47884 
47874 
47853 
47787 
47738 
47689 
47627 
47537 
47432 
47385 
47377 
47354 
47253 
47186 
47145 
47067 
47049 
47011 
46912 
46819 
46721 
46652 
46617 
46551 
46466 
46403 
46347 
46276 
46240 
46191 
46166 
46216 
46213 
46147 
46107 
46083 
46045 
46023 
46059 
46113 
46087 
46054 
46076 
46136 
46159 
46214 
46197 
46169 
46189 
46262 
46301 
46233 
46195 
46241 
46294 
46334 
46355 
46392 
46419 
46426 
46405 
46408 
46403 
46366 
46328 
46331 
46331 
46352 
46422 
46407 
46379 
46400 
46398 
46424 
46455 
46452 
46426 
46459 
46491 
46487 
46467 
46457 
46445 
46416 
46397 
46384 
46471 
46541 
46557 
46542 
46532 
46558 
46611 
46619 
46609 
46633 
46723 
46747 
46745 
46787 
46822 
46889 
46960 
46982 
47063 
47120 
47124 
47119 
47149 
47129 
47138 
47216 
47283 
47354 
47392 
47430 
47489 
47504 
47540 
47603 
47653 
47723 
47797 
47852 
47865 
47943 
48026 
48026 
47995 
48050 
48088 
48078 
48092 
48076 
48041 
48061 
48089 
48092 
48095 
48094 
48082 
48104 
48088 
48075 
48093 
48108 
48149 
48181 
48216 
48230 
48241 
48295 
48348 
48335 
48318 
48352 
48355 
48298 
48310 
48331 
48303 
48263 
48238 
48240 
48221 
48192 
48237 
48244 
48268 
48300 
48299 
48288 
48278 
48290 
48296 
48337 
48337 
48321 
48359 
48366 
48341 
48368 
48417 
48414 
48456 
48516 
48540 
48554 
48521 
48478 
48461 
48411 
48448 
48469 
48482 
48485 
48510 
48541 
48580 
48599 
48583 
48596 
48645 
48651 
48684 
48710 
48691 
48616 
48577 
48609 
48583 
48649 
48734 
48744 
48790 
48833 
48844 
48828 
48820 
48852 
48904 
48997 
49054 
49096 
49078 
49096 
49174 
49192 
49168 
49175 
49233 
49202 
49242 
49227 
49223 
49238 
49254 
49219 
49168 
49152 
49154 
49179 
49217 
49201 
49184 
49238 
49292 
49319 
49359 
49337 
49320 
49322 
49338 
49314 
49313 
49264 
49228 
49235 
49240 
49279 
49344 
49322 
49292 
49288 
49271 
49234 
49242 
49244 
49207 
49222 
49227 
49196 
49170 
49163 
49101 
49031 
48972 
48955 
48949 
48958 
48946 
48896 
48861 
48845 
48880 
48889 
48874 
48827 
48758 
48747 
48717 
48699 
48727 
48769 
48794 
48773 
48720 
48640 
48567 
48525 
48486 
48450 
48456 
48444 
48421 
48452 
48461 
48424 
48388 
48408 
48417 
48391 
48381 
48361 
48323 
48286 
48237 
48243 
48295 
48253 
48209 
48212 
48242 
48232 
48242 
48198 
48139 
48177 
48193 
48159 
48136 
48142 
48123 
48042 
48038 
48032 
48030 
48042 
48015 
47952 
47932 
47948 
48012 
48047 
47997 
47953 
47885 
47812 
47808 
47795 
47804 
47800 
47745 
47712 
47739 
47768 
47780 
47690 
47647 
47654 
47638 
47611 
47559 
47527 
47513 
47472 
47447 
47415 
47399 
47358 
47347 
47317 
47267 
47296 
47243 
47195 
47174 
47152 
47161 
47146 
47122 
47089 
47019 
46949 
46966 
47027 
47046 
46994 
46960 
46944 
46899 
46918 
46898 
46831 
46814 
46838 
46840 
46763 
46680 
46609 
46633 
46681 
46679 
46721 
46695 
46684 
46661 
46580 
46521 
46526 
46523 
46510 
46523 
46534 
46491 
46432 
46432 
46463 
46450 
46424 
46446 
46401 
46313 
46274 
46279 
46278 
46259 
46278 
46261 
46270 
46280 
46272 
46224 
46189 
46189 
46189 
46205 
46202 
46152 
46139 
46160 
46128 
46133 
46097 
46092 
46113 
46055 
46028 
46035 
46075 
46068 
46026 
46039 
46061 
46089 
46009 
45929 
45956 
45975 
45957 
45930 
45910 
45924 
45923 
45909 
45884 
45906 
45887 
45856 
45803 
45777 
45788 
45771 
45791 
45866 
45808 
45750 
45719 
45695 
45696 
45712 
45705 
45701 
45693 
45676 
45668 
45677 
45649 
45633 
45612 
45615 
45588 
45561 
45555 
45608 
45636 
45586 
45544 
45593 
45669 
45683 
45688 
45705 
45691 
45690 
45717 
45705 
45718 
45704 
45689 
45697 
45651 
45593 
45578 
45657 
45683 
45662 
45644 
45659 
45663 
45621 
45583 
45573 
45576 
45601 
45575 
45541 
45536 
45538 
45536 
45535 
45517 
45462 
45444 
45507 
45589 
45627 
45617 
45617 
45614 
45639 
45652 
45643 
45658 
45678 
45649 
45643 
45660 
45657 
45627 
45626 
45662 
45695 
45650 
45602 
45609 
45633 
45646 
45648 
45684 
45698 
45680 
45661 
45638 
45601 
45573 
45582 
45560 
45534 
45602 
45646 
45645 
45638 
45670 
45662 
45641 
45649 
45633 
45604 
45605 
45630 
45661 
45660 
45679 
45697 
45709 
45678 
45662 
45658 
45690 
45719 
45714 
45675 
45628 
45604 
45618 
45659 
45643 
45620 
45651 
45697 
45695 
45686 
45673 
45625 
45621 
45609 
45615 
45680 
45719 
45664 
45602 
45543 
45498 
45449 
45470 
45453 
45418 
45412 
45399 
45419 
45392 
45392 
45417 
45407 
45412 
45382 
45362 
45371 
45390 
45365 
45377 
45387 
45406 
45446 
45460 
45474 
