-12757 
-12878 
-12827 
-12789 
-12706 
-12816 
-12826 
-12747 
-12696 
-12817 
-12848 
-12723 
-12679 
-12804 
-12848 
-12719 
-12690 
-12746 
-12800 
-12724 
-12654 
-12718 
-12799 
-12729 
-12619 
-12624 
-12720 
-12681 
-12579 
-12603 
-12680 
-12695 
-12662 
-12632 
-12668 
-12658 
-12577 
-12507 
-12596 
-12625 
-12564 
-12526 
-12570 
-12665 
-12546 
-12425 
-12463 
-12613 
-12591 
-12525 
-12527 
-12680 
-12706 
-12675 
-12713 
-12834 
-12794 
-12715 
-12707 
-12834 
-12895 
-12797 
-12746 
-12828 
-12929 
-12868 
-12764 
-12797 
-12873 
-12784 
-12695 
-12744 
-12885 
-12876 
-12810 
-12785 
-12853 
-12859 
-12765 
-12756 
-12879 
-12848 
-12727 
-12689 
-12821 
-12861 
-12759 
-12661 
-12756 
-12813 
-12751 
-12704 
-12731 
-12809 
-12769 
-12699 
-12722 
-12796 
-12798 
-12720 
-12732 
-12853 
-12797 
-12640 
-12682 
-12799 
-12776 
-12689 
-12682 
-12790 
-12854 
-12755 
-12665 
-12726 
-12799 
-12716 
-12667 
-12729 
-12830 
-12781 
-12703 
-12776 
-12883 
-12829 
-12756 
-12828 
-12957 
-12942 
-12833 
-12782 
-12852 
-12905 
-12802 
-12729 
-12867 
-12957 
-12829 
-12763 
-12794 
-12866 
-12820 
-12774 
-12791 
-12886 
-12829 
-12746 
-12807 
-12818 
-12737 
-12536 
-12430 
-12593 
-12740 
-12817 
-12843 
-13111 
-13174 
-13047 
-13020 
-13028 
-13024 
-12903 
-12804 
-12796 
-12837 
-12788 
-12686 
-12713 
-12824 
-12791 
-12716 
-12752 
-12817 
-12753 
-12619 
-12634 
-12730 
-12792 
-12703 
-12637 
-12737 
-12781 
-12725 
-12718 
-12804 
-12910 
-12793 
-12693 
-12755 
-12798 
-12700 
-12618 
-12650 
-12750 
-12698 
-12595 
-12611 
-12692 
-12695 
-12578 
-12518 
-12642 
-12662 
-12542 
-12564 
-12622 
-12639 
-12517 
-12481 
-12575 
-12578 
-12479 
-12404 
-12419 
-12459 
-12434 
-12429 
-12528 
-12603 
-12538 
-12477 
-12539 
-12624 
-12607 
-12552 
-12582 
-12645 
-12661 
-12569 
-12517 
-12623 
-12658 
-12573 
-12594 
-12703 
-12716 
-12637 
-12614 
-12671 
-12737 
-12671 
-12600 
-12620 
-12734 
-12637 
-12518 
-12623 
-12698 
-12654 
-12557 
-12568 
-12668 
-12703 
-12578 
-12534 
-12639 
-12647 
-12613 
-12570 
-12712 
-12751 
-12636 
-12584 
-12600 
-12653 
-12601 
-12541 
-12651 
-12725 
-12633 
-12530 
-12604 
-12695 
-12653 
-12526 
-12618 
-12713 
-12687 
-12590 
-12551 
-12651 
-12704 
-12598 
-12543 
-12608 
-12627 
-12516 
-12470 
-12512 
-12585 
-12546 
-12508 
-12590 
-12721 
-12644 
-12521 
-12552 
-12687 
-12716 
-12639 
-12618 
-12697 
-12657 
-12578 
-12539 
-12647 
-12649 
-12535 
-12526 
-12583 
-12579 
-12541 
-12511 
-12554 
-12630 
-12596 
-12498 
-12505 
-12602 
-12502 
-12300 
-12253 
-12289 
-12300 
-12356 
-12480 
-12658 
-12797 
-12825 
-12795 
-12789 
-12713 
-12588 
-12546 
-12573 
-12608 
-12474 
-12401 
-12489 
-12570 
-12470 
-12334 
-12418 
-12502 
-12407 
-12329 
-12387 
-12541 
-12421 
-12301 
-12305 
-12452 
-12454 
-12360 
-12339 
-12488 
-12509 
-12389 
-12330 
-12430 
-12465 
-12330 
-12283 
-12351 
-12376 
-12229 
-12179 
-12230 
-12275 
-12234 
-12142 
-12160 
-12275 
-12257 
-12196 
-12188 
-12201 
-12261 
-12174 
-12131 
-12163 
-12146 
-12102 
-12097 
-12127 
-12154 
-12065 
-11950 
-12043 
-12126 
-12075 
-12061 
-12103 
-12168 
-12158 
-12111 
-12135 
-12273 
-12304 
-12193 
-12205 
-12317 
-12300 
-12249 
-12230 
-12389 
-12403 
-12275 
-12193 
-12302 
-12299 
-12207 
-12174 
-12272 
-12314 
-12287 
-12174 
-12200 
-12276 
-12248 
-12179 
-12213 
-12313 
-12252 
-12168 
-12168 
-12262 
-12252 
-12162 
-12118 
-12307 
-12321 
-12184 
-12155 
-12237 
-12248 
-12179 
-12142 
-12200 
-12269 
-12220 
-12122 
-12174 
-12301 
-12229 
-12117 
-12155 
-12203 
-12180 
-12123 
-12152 
-12272 
-12222 
-12099 
-12096 
-12235 
-12243 
-12147 
-12123 
-12222 
-12247 
-12161 
-12081 
-12123 
-12189 
-12166 
-12080 
-12082 
-12147 
-12124 
-12064 
-12097 
-12214 
-12148 
-12017 
-12041 
-12179 
-12182 
-12106 
-12083 
-12157 
-12158 
-12071 
-12036 
-12139 
-12164 
-12058 
-11991 
-12083 
-12149 
-12087 
-12019 
-12071 
-12202 
-12107 
-11966 
-11995 
-12047 
-12053 
-11982 
-11995 
-12034 
-11954 
-11906 
-11879 
-12020 
-12098 
-12019 
-11928 
-12032 
-12125 
-12032 
-11970 
-11986 
-12118 
-12117 
-12034 
-12015 
-12091 
-12051 
-11962 
-11978 
-12093 
-12066 
-11978 
-11936 
-12035 
-12114 
-12008 
-11929 
-12028 
-12048 
-11994 
-11922 
-11966 
-11894 
-11624 
-11515 
-11732 
-12054 
-12101 
-12125 
-12276 
-12433 
-12263 
-12089 
-12057 
-12074 
-12046 
-11894 
-11852 
-11924 
-11897 
-11824 
-11779 
-11868 
-11913 
-11803 
-11729 
-11837 
-11909 
-11810 
-11793 
-11890 
-11951 
-11881 
-11742 
-11779 
-11871 
-11809 
-11705 
-11692 
-11781 
-11749 
-11632 
-11604 
-11705 
-11714 
-11620 
-11583 
-11766 
-11837 
-11744 
-11720 
-11793 
-11751 
-11645 
-11584 
-11693 
-11753 
-11628 
-11516 
-11533 
-11642 
-11573 
-11441 
-11424 
-11499 
-11481 
-11441 
-11479 
-11619 
-11616 
-11473 
-11457 
-11586 
-11604 
-11517 
-11483 
-11628 
-11688 
-11569 
-11529 
-11624 
-11701 
-11640 
-11555 
-11669 
-11739 
-11715 
-11613 
-11680 
-11842 
-11788 
-11671 
-11659 
-11778 
-11829 
-11676 
-11600 
-11718 
-11705 
-11605 
-11610 
-11665 
-11676 
-11552 
-11509 
-11568 
-11649 
-11547 
-11524 
-11628 
-11741 
-11614 
-11519 
-11565 
-11698 
-11665 
-11565 
-11578 
-11665 
-11675 
-11564 
-11532 
-11578 
-11615 
-11553 
-11434 
-11547 
-11607 
-11566 
-11502 
-11548 
-11615 
-11563 
-11509 
-11583 
-11653 
-11587 
-11483 
-11474 
-11584 
-11584 
-11492 
-11444 
-11578 
-11602 
-11481 
-11407 
-11508 
-11538 
-11411 
-11381 
-11524 
-11573 
-11462 
-11350 
-11414 
-11503 
-11405 
-11297 
-11364 
-11490 
-11448 
-11355 
-11371 
-11482 
-11453 
-11379 
-11394 
-11464 
-11513 
-11461 
-11411 
-11449 
-11497 
-11432 
-11357 
-11394 
-11485 
-11440 
-11360 
-11373 
-11468 
-11444 
-11329 
-11320 
-11413 
-11370 
-11305 
-11362 
-11413 
-11296 
-11107 
-10974 
-11096 
-11190 
-11279 
-11395 
-11576 
-11718 
-11705 
-11662 
-11645 
-11600 
-11456 
-11347 
-11416 
-11464 
-11317 
-11209 
-11273 
-11372 
-11345 
-11257 
-11253 
-11382 
-11352 
-11215 
-11161 
-11303 
-11345 
-11273 
-11173 
-11195 
-11172 
-11135 
-11096 
-11146 
-11261 
-11192 
-11090 
-11199 
-11291 
-11204 
-11113 
-11177 
-11246 
-11240 
-11132 
-11116 
-11202 
-11170 
-11060 
-11053 
-11196 
-11215 
-11094 
-11028 
-11107 
-11139 
-10967 
-10898 
-10985 
-10993 
-10890 
-10800 
-10811 
-10868 
-10859 
-10789 
-10755 
-10845 
-10891 
-10870 
-10891 
-10991 
-11007 
-10897 
-10968 
-11135 
-11143 
-10962 
-10966 
-11098 
-11157 
-11046 
-10966 
-11010 
-11080 
-11079 
-11035 
-11090 
-11192 
-11160 
-11071 
-11039 
-11140 
-11134 
-11004 
-10938 
-11084 
-11116 
-10957 
-10950 
-11038 
-11029 
-10933 
-10929 
-11092 
-11118 
-11097 
-11101 
-11147 
-11146 
-11096 
-11075 
-11063 
-11135 
-11089 
-10961 
-10961 
-11040 
-11042 
-10954 
-10970 
-11023 
-10984 
-10938 
-10969 
-11095 
-11106 
-11002 
-10928 
-10986 
-11027 
-10943 
-10896 
-10980 
-11020 
-10942 
-10851 
-10884 
-10910 
-10832 
-10750 
-10822 
-10967 
-10879 
-10795 
-10853 
-10968 
-10993 
-10922 
-10874 
-10959 
-10974 
-10920 
-10892 
-10939 
-10950 
-10908 
-10866 
-10917 
-10986 
-10905 
-10796 
-10870 
-10967 
-10892 
-10793 
-10790 
-10941 
-10939 
-10823 
-10806 
-10914 
-10866 
-10705 
-10665 
-10614 
-10500 
-10527 
-10713 
-10902 
-11078 
-11166 
-11185 
-11259 
-11159 
-11024 
-10957 
-10968 
-10990 
-10916 
-10774 
-10782 
-10873 
-10836 
-10722 
-10780 
-10869 
-10835 
-10743 
-10692 
-10797 
-10839 
-10715 
-10682 
-10739 
-10828 
-10800 
-10690 
-10719 
-10750 
-10698 
-10646 
-10693 
-10752 
-10666 
-10561 
-10619 
-10720 
-10703 
-10594 
-10581 
-10638 
-10585 
-10541 
-10550 
-10727 
-10708 
-10583 
-10480 
-10568 
-10598 
-10494 
-10447 
-10486 
-10574 
-10455 
-10375 
-10465 
-10561 
-10515 
-10429 
-10458 
-10541 
-10452 
-10340 
-10412 
-10563 
-10601 
-10485 
-10488 
-10582 
-10664 
-10578 
-10622 
-10713 
-10727 
-10648 
-10607 
-10657 
-10726 
-10617 
-10597 
-10665 
-10726 
-10664 
-10562 
-10618 
-10723 
-10681 
-10601 
-10631 
-10699 
-10735 
-10669 
-10601 
-10682 
-10696 
-10615 
-10597 
-10656 
-10669 
-10580 
-10510 
-10614 
-10685 
-10623 
-10556 
-10605 
-10681 
-10611 
-10543 
-10573 
-10675 
-10634 
-10558 
-10567 
-10595 
-10588 
-10549 
-10507 
-10600 
-10682 
-10624 
-10589 
-10606 
-10683 
-10559 
-10485 
-10564 
-10694 
-10585 
-10489 
-10499 
-10630 
-10522 
-10444 
-10464 
-10537 
-10477 
-10396 
-10412 
-10552 
-10601 
-10523 
-10505 
-10662 
-10699 
-10601 
-10603 
-10695 
-10712 
-10629 
-10587 
-10664 
-10691 
-10620 
-10522 
-10611 
-10697 
-10558 
-10498 
-10558 
-10692 
-10677 
-10548 
-10578 
-10733 
-10773 
-10653 
-10601 
-10743 
-10669 
-10455 
-10361 
-10326 
-10350 
-10427 
-10533 
-10685 
-10905 
-10958 
-10824 
-10788 
-10825 
-10757 
-10669 
-10635 
-10733 
-10639 
-10524 
-10575 
-10652 
-10655 
-10558 
-10559 
-10629 
-10633 
-10523 
-10486 
-10587 
-10639 
-10558 
-10548 
-10596 
-10651 
-10588 
-10522 
-10549 
-10651 
-10626 
-10527 
-10562 
-10668 
-10615 
-10490 
-10496 
-10556 
-10503 
-10432 
-10469 
-10528 
-10515 
-10417 
-10421 
-10528 
-10561 
-10466 
-10396 
-10458 
-10515 
-10445 
-10330 
-10360 
-10492 
-10459 
-10330 
-10385 
-10475 
-10392 
-10284 
-10323 
-10390 
-10354 
-10291 
-10330 
-10461 
-10498 
-10444 
-10411 
-10548 
-10596 
-10567 
-10536 
-10564 
-10661 
-10640 
-10583 
-10629 
-10694 
-10609 
-10500 
-10542 
-10657 
-10635 
-10530 
-10509 
-10580 
-10581 
-10517 
-10504 
-10615 
-10692 
-10636 
-10531 
-10620 
-10670 
-10583 
-10545 
-10613 
-10678 
-10611 
-10554 
-10556 
-10633 
-10602 
-10529 
-10522 
-10613 
-10618 
-10550 
-10563 
-10661 
-10639 
-10539 
-10563 
-10663 
-10701 
-10583 
-10509 
-10615 
-10645 
-10519 
-10487 
-10594 
-10678 
-10618 
-10519 
-10575 
-10669 
-10614 
-10507 
-10608 
-10640 
-10631 
-10562 
-10586 
-10672 
-10653 
-10528 
-10543 
-10600 
-10613 
-10515 
-10496 
-10564 
-10542 
-10463 
-10388 
-10438 
-10531 
-10510 
-10488 
-10520 
-10642 
-10621 
-10546 
-10602 
-10630 
-10596 
-10531 
-10562 
-10660 
-10621 
-10540 
-10504 
-10541 
-10658 
-10609 
-10513 
-10543 
-10566 
-10507 
-10552 
-10599 
-10644 
-10569 
-10503 
-10541 
-10611 
-10541 
-10405 
-10364 
-10302 
-10196 
-10234 
-10369 
-10608 
-10736 
-10820 
-10919 
-10954 
-10928 
-10727 
-10629 
-10632 
-10696 
-10581 
-10481 
-10527 
-10595 
-10574 
-10470 
-10469 
-10516 
-10473 
-10430 
-10423 
-10500 
-10483 
-10407 
-10410 
-10470 
-10523 
-10462 
-10433 
-10496 
-10529 
-10457 
-10398 
-10502 
-10576 
-10387 
-10349 
-10399 
-10431 
-10384 
-10307 
-10280 
-10356 
-10327 
-10257 
-10334 
-10381 
-10375 
-10332 
-10344 
-10373 
-10350 
-10291 
-10298 
-10301 
-10237 
-10231 
-10196 
-10237 
-10274 
-10224 
-10202 
-10242 
-10231 
-10134 
-10145 
-10188 
-10309 
-10327 
-10237 
-10243 
-10399 
-10374 
-10282 
-10289 
-10412 
-10466 
-10402 
-10348 
-10388 
-10406 
-10398 
-10345 
-10415 
-10444 
-10374 
-10319 
-10429 
-10456 
-10366 
-10300 
-10405 
-10493 
-10409 
-10387 
-10347 
-10444 
-10425 
-10387 
-10365 
-10409 
-10416 
-10307 
-10334 
-10383 
-10421 
-10343 
-10284 
-10391 
-10426 
-10408 
-10303 
-10355 
-10438 
-10407 
-10376 
-10382 
-10390 
-10383 
-10320 
-10341 
-10387 
-10438 
-10336 
-10275 
-10351 
-10346 
-10303 
-10338 
-10395 
-10322 
-10301 
-10296 
-10382 
-10353 
-10264 
-10264 
-10301 
-10360 
-10341 
-10274 
-10213 
-10319 
-10369 
-10255 
-10213 
-10274 
-10277 
-10227 
-10167 
-10168 
-10235 
-10211 
-10131 
-10175 
-10223 
-10210 
-10193 
-10244 
-10294 
-10215 
-10207 
-10261 
-10301 
-10276 
-10227 
-10226 
-10314 
-10299 
-10218 
-10235 
-10352 
-10317 
-10199 
-10186 
-10285 
-10304 
-10236 
-10167 
-10276 
-10290 
-10253 
-10171 
-10219 
-10256 
-10167 
-9945 
-9892 
-9921 
-10057 
-10174 
-10326 
-10562 
-10609 
-10488 
-10444 
-10482 
-10456 
-10305 
-10234 
-10338 
-10314 
-10162 
-10110 
-10206 
-10277 
-10173 
-10099 
-10176 
-10221 
-10136 
-10071 
-10150 
-10217 
-10132 
-10033 
-10110 
-10230 
-10182 
-10073 
-10102 
-10188 
-10163 
-10064 
-10036 
-10132 
-10170 
-10071 
-9981 
-10031 
-10140 
-10018 
-9939 
-10021 
-10085 
-9992 
-9916 
-9939 
-10048 
-9981 
-9931 
-9967 
-9958 
-9917 
-9916 
-9874 
-10000 
-9998 
-9844 
-9818 
-9951 
-9975 
-9834 
-9747 
-9938 
-9985 
-9895 
-9781 
-9852 
-10002 
-9972 
-9863 
-9935 
-10051 
-10014 
-9895 
-9970 
-10107 
-10121 
-9902 
-9914 
-10072 
-10143 
-10031 
-9967 
-10069 
-10147 
-10042 
-9948 
-10062 
-10142 
-10038 
-9931 
-10010 
-10127 
-10030 
-9868 
-9942 
-10146 
-10016 
-9853 
-9927 
-10104 
-10064 
-9912 
-9939 
-10072 
-10102 
-9952 
-9895 
-9989 
-10075 
-9929 
-9886 
-10043 
-10101 
-9922 
-9842 
-9984 
-10084 
-9959 
-9862 
-9968 
-10121 
-10030 
-9871 
-9906 
-10058 
-10003 
-9843 
-9866 
-10051 
-10047 
-9856 
-9793 
-9969 
-10040 
-9827 
-9709 
-9928 
-10071 
-9901 
-9794 
-9888 
-9951 
-9800 
-9682 
-9796 
-9936 
-9902 
-9839 
-9823 
-9987 
-9934 
-9745 
-9793 
-10031 
-10007 
-9750 
-9675 
-9937 
-10040 
-9827 
-9649 
-9920 
-10153 
-9911 
-9625 
-9824 
-10123 
-9863 
-9585 
-9786 
-10092 
-9933 
-9632 
-9705 
-10061 
-9999 
-9559 
-9461 
-9664 
-9650 
-9514 
-9643 
-10031 
-10296 
-10165 
-10038 
-10281 
-10363 
-10011 
-9761 
-9925 
-10129 
-9915 
-9631 
-9751 
-9995 
-9872 
-9597 
-9657 
-9948 
-9890 
-9647 
-9646 
-9976 
-9941 
-9656 
-9576 
-9867 
-9995 
-9690 
-9496 
-9767 
-9953 
-9713 
-9495 
-9764 
-9942 
-9751 
-9483 
-9643 
-9884 
-9760 
-9469 
-9512 
-9804 
-9782 
-9460 
-9410 
-9735 
-9765 
-9554 
-9464 
-9696 
-9785 
-9526 
-9344 
-9540 
-9746 
-9529 
-9272 
-9469 
-9753 
-9528 
-9210 
-9358 
-9728 
-9612 
-9338 
-9374 
-9701 
-9666 
-9428 
-9413 
-9771 
-9910 
-9570 
-9450 
-9730 
-9879 
-9663 
-9477 
-9802 
-9992 
-9677 
-9404 
-9632 
-9919 
-9781 
-9510 
-9613 
-9868 
-9747 
-9512 
-9522 
-9754 
-9773 
-9605 
-9579 
-9712 
-9672 
-9532 
-9490 
-9631 
-9716 
-9586 
-9520 
-9679 
-9780 
-9657 
-9496 
-9640 
-9774 
-9667 
-9516 
-9608 
-9764 
-9704 
-9526 
-9549 
-9767 
-9738 
-9529 
-9535 
-9740 
-9758 
-9588 
-9516 
-9645 
-9733 
-9574 
-9518 
-9670 
-9757 
-9611 
-9480 
-9644 
-9780 
-9655 
-9496 
-9543 
-9710 
-9683 
-9554 
-9612 
-9741 
-9696 
-9534 
-9488 
-9653 
-9641 
-9477 
-9432 
-9595 
-9648 
-9541 
-9456 
-9488 
-9613 
-9479 
-9352 
-9480 
-9642 
-9536 
-9440 
-9536 
-9686 
-9619 
-9497 
-9437 
-9643 
-9678 
-9549 
-9502 
-9635 
-9667 
-9558 
-9516 
-9618 
-9662 
-9516 
-9450 
-9643 
-9768 
-9593 
-9464 
-9527 
-9676 
-9616 
-9496 
-9524 
-9571 
-9405 
-9166 
-9107 
-9420 
-9606 
-9567 
-9680 
-10001 
-10074 
-9888 
-9753 
-9785 
-9812 
-9634 
-9474 
-9566 
-9652 
-9523 
-9421 
-9461 
-9592 
-9534 
-9422 
-9458 
-9575 
-9518 
-9472 
-9477 
-9584 
-9569 
-9401 
-9402 
-9652 
-9643 
-9440 
-9359 
-9541 
-9575 
-9407 
-9334 
-9458 
-9519 
-9392 
-9301 
-9402 
-9552 
-9416 
-9275 
-9350 
-9531 
-9446 
-9261 
-9245 
-9407 
-9398 
-9277 
-9260 
-9358 
-9424 
-9307 
-9201 
-9315 
-9403 
-9263 
-9093 
-9219 
-9425 
-9320 
-9169 
-9195 
-9363 
-9276 
-9195 
-9310 
-9485 
-9400 
-9215 
-9287 
-9470 
-9447 
-9308 
-9298 
-9481 
-9548 
-9404 
-9343 
-9490 
-9555 
-9378 
-9319 
-9512 
-9633 
-9472 
-9305 
-9413 
-9575 
-9461 
-9290 
-9311 
-9477 
-9490 
-9292 
-9301 
-9433 
-9414 
-9248 
-9278 
-9395 
-9409 
-9290 
-9269 
-9456 
-9482 
-9322 
-9226 
-9335 
-9403 
-9300 
-9222 
-9285 
-9460 
-9341 
-9198 
-9353 
-9505 
-9422 
-9251 
-9260 
-9431 
-9401 
-9253 
-9218 
-9399 
-9446 
-9314 
-9247 
-9380 
-9406 
-9306 
-9202 
-9318 
-9426 
-9322 
-9223 
-9333 
-9444 
-9325 
-9156 
-9199 
-9364 
-9291 
-9127 
-9188 
-9341 
-9336 
-9225 
-9209 
-9348 
-9324 
-9201 
-9233 
-9372 
-9425 
-9261 
-9195 
-9310 
-9420 
-9272 
-9132 
-9237 
-9408 
-9347 
-9250 
-9246 
-9326 
-9271 
-9166 
-9186 
-9367 
-9345 
-9229 
-9139 
-9255 
-9152 
-8892 
-8779 
-9098 
-9400 
-9363 
-9419 
-9656 
-9765 
-9518 
-9301 
-9346 
-9448 
-9326 
-9197 
-9212 
-9349 
-9264 
-9150 
-9197 
-9365 
-9338 
-9215 
-9158 
-9322 
-9358 
-9158 
-9043 
-9196 
-9339 
-9193 
-9085 
-9184 
-9306 
-9211 
-9047 
-9143 
-9334 
-9268 
-9120 
-9150 
-9276 
-9208 
-9029 
-9049 
-9247 
-9254 
-8997 
-8960 
-9154 
-9214 
-9037 
-8939 
-9098 
-9219 
-9043 
-8860 
-9010 
-9192 
-9017 
-8819 
-8915 
-9083 
-9035 
-8841 
-8887 
-9110 
-9049 
-8860 
-8882 
-9125 
-9084 
-8942 
-8970 
-9182 
-9194 
-9107 
-9024 
-9211 
-9351 
-9190 
-9002 
-9169 
-9319 
-9158 
-9000 
-9131 
-9324 
-9231 
-9011 
-9054 
-9331 
-9251 
-9084 
-9129 
-9309 
-9346 
-9136 
-9078 
-9293 
-9319 
-9132 
-9032 
-9192 
-9272 
-9107 
-8947 
-9137 
-9336 
-9207 
-9046 
-9163 
-9362 
-9236 
-8999 
-9067 
-9282 
-9246 
-9003 
-9003 
-9238 
-9243 
-9032 
-9058 
-9260 
-9295 
-9137 
-8982 
-9227 
-9392 
-9133 
-8983 
-9180 
-9389 
-9198 
-8967 
-9120 
-9290 
-9170 
-8998 
-9084 
-9257 
-9153 
-8974 
-9032 
-9176 
-9157 
-8984 
-8998 
-9235 
-9273 
-9094 
-9007 
-9201 
-9336 
-9176 
-8987 
-9180 
-9395 
-9228 
-9000 
-9156 
-9427 
-9275 
-9031 
-9076 
-9344 
-9284 
-9063 
-9059 
-9325 
-9321 
-9033 
-9017 
-9265 
-9336 
-9052 
-8883 
-9067 
-9058 
-8840 
-8815 
-9201 
-9514 
-9404 
-9331 
-9534 
-9671 
-9457 
-9073 
-9128 
-9339 
-9254 
-9015 
-9024 
-9272 
-9255 
-9047 
-9004 
-9227 
-9247 
-9003 
-8901 
-9120 
-9250 
-9072 
-8857 
-9025 
-9211 
-9092 
-8895 
-9028 
-9233 
-9152 
-8928 
-9015 
-9265 
-9197 
-8974 
-8927 
-9120 
-9113 
-8919 
-8843 
-9044 
-9129 
-8878 
-8787 
-8988 
-9112 
-8915 
-8792 
-8962 
-9124 
-8957 
-8783 
-8880 
-9055 
-8939 
-8757 
-8844 
-9081 
-9004 
-8812 
-8770 
-8976 
-8935 
-8737 
-8741 
-9022 
-9040 
-8866 
-8808 
-8979 
-9123 
-9004 
-8945 
-9055 
-9230 
-9121 
-8918 
-9062 
-9192 
-9071 
-8952 
-8996 
-9135 
-9102 
-8959 
-9014 
-9191 
-9214 
-9005 
-8979 
-9157 
-9183 
-8958 
-8911 
-9074 
-9156 
-9008 
-8921 
-9041 
-9128 
-9053 
-8931 
-9010 
-9183 
-9119 
-8947 
-8963 
-9156 
-9127 
-8974 
-8938 
-9141 
-9123 
-8957 
-8950 
-9053 
-9142 
-8985 
-8891 
-9061 
-9191 
-9098 
-8980 
-9093 
-9172 
-9070 
-9009 
-9053 
-9169 
-9099 
-8952 
-9018 
-9145 
-9065 
-8923 
-8987 
-9127 
-9098 
-8966 
-8910 
-9023 
-9117 
-8981 
-8912 
-9066 
-9233 
-9079 
-9005 
-9112 
-9181 
-9098 
-9035 
-9132 
-9256 
-9191 
-9042 
-9081 
-9243 
-9212 
-9048 
-9114 
-9269 
-9243 
-9088 
-9029 
-9166 
-9301 
-9146 
-9025 
-9156 
-9256 
-9107 
-8984 
-9008 
-9024 
-8874 
-8864 
-9095 
-9374 
-9443 
-9450 
-9502 
-9613 
-9515 
-9292 
-9277 
-9406 
-9326 
-9128 
-9126 
-9303 
-9300 
-9154 
-9117 
-9213 
-9265 
-9140 
-9089 
-9194 
-9330 
-9243 
-9091 
-9138 
-9266 
-9251 
-9188 
-9208 
-9345 
-9246 
-9077 
-9124 
-9319 
-9329 
-9136 
-9050 
-9170 
-9313 
-9158 
-9094 
-9221 
-9290 
-9115 
-9020 
-9195 
-9292 
-9209 
-9080 
-9127 
-9270 
-9169 
-9005 
-9029 
-9220 
-9212 
-9070 
-9056 
-9179 
-9164 
-9008 
-8969 
-9159 
-9262 
-9125 
-9000 
-9149 
-9258 
-9159 
-9065 
-9204 
-9371 
-9293 
-9195 
-9284 
-9443 
-9373 
-9199 
-9230 
-9461 
-9411 
-9309 
-9269 
-9409 
-9478 
-9345 
-9267 
-9379 
-9444 
-9321 
-9248 
-9342 
-9419 
-9360 
-9266 
-9324 
-9458 
-9384 
-9253 
-9329 
-9511 
-9425 
-9301 
-9341 
-9468 
-9429 
-9268 
-9221 
-9412 
-9466 
-9326 
-9211 
-9375 
-9469 
-9313 
-9235 
-9410 
-9486 
-9330 
-9258 
-9383 
-9475 
-9409 
-9267 
-9388 
-9522 
-9429 
-9244 
-9282 
-9523 
-9482 
-9322 
-9339 
-9447 
-9424 
-9315 
-9301 
-9374 
-9421 
-9289 
-9174 
-9338 
-9464 
-9348 
-9217 
-9325 
-9431 
-9329 
-9225 
-9315 
-9458 
-9434 
-9346 
-9321 
-9488 
-9481 
-9277 
-9249 
-9480 
-9521 
-9385 
-9309 
-9433 
-9491 
-9387 
-9364 
-9516 
-9570 
-9420 
-9253 
-9397 
-9566 
-9487 
-9342 
-9388 
-9520 
-9480 
-9346 
-9282 
-9390 
-9292 
-9079 
-9004 
-9212 
-9438 
-9479 
-9552 
-9784 
-9861 
-9727 
-9558 
-9559 
-9617 
-9508 
-9402 
-9454 
-9502 
-9439 
-9361 
-9366 
-9473 
-9420 
-9335 
-9367 
-9433 
-9389 
-9297 
-9275 
-9393 
-9431 
-9348 
-9297 
-9384 
-9425 
-9392 
-9367 
-9380 
-9402 
-9352 
-9296 
-9300 
-9318 
-9300 
-9194 
-9250 
-9334 
-9343 
-9278 
-9271 
-9315 
-9274 
-9214 
-9278 
-9321 
-9274 
-9212 
-9129 
-9214 
-9263 
-9240 
-9160 
-9147 
-9193 
-9176 
-9156 
-9145 
-9142 
-9166 
-9147 
-9125 
-9237 
-9210 
-9197 
-9239 
-9312 
-9350 
-9312 
-9330 
-9373 
-9379 
-9325 
-9378 
-9442 
-9472 
-9405 
-9403 
-9471 
-9479 
-9348 
-9358 
-9421 
-9461 
-9462 
-9392 
-9370 
-9451 
-9449 
-9401 
-9441 
-9491 
-9425 
-9374 
-9392 
-9414 
-9432 
-9404 
-9376 
-9461 
-9488 
-9440 
-9399 
-9419 
-9444 
-9400 
-9357 
-9426 
-9446 
-9445 
-9408 
-9380 
-9406 
-9455 
-9481 
-9536 
-9540 
-9466 
-9442 
-9440 
-9478 
-9480 
-9420 
-9418 
-9397 
-9413 
-9402 
-9390 
-9393 
-9376 
-9373 
-9385 
-9412 
-9427 
-9367 
-9348 
-9406 
-9417 
-9392 
-9407 
-9482 
-9552 
-9500 
-9448 
-9447 
-9474 
-9487 
-9468 
-9468 
-9521 
-9544 
-9495 
-9422 
-9454 
-9481 
-9462 
-9496 
-9542 
-9548 
-9485 
-9493 
-9541 
-9589 
-9545 
-9470 
-9483 
-9544 
-9518 
-9471 
-9390 
-9245 
-9182 
-9273 
-9439 
-9573 
-9714 
-9873 
-9867 
-9800 
-9759 
-9663 
-9607 
-9612 
-9641 
-9601 
-9524 
-9496 
-9555 
-9503 
-9478 
-9510 
-9568 
-9530 
-9468 
-9437 
-9457 
-9456 
-9425 
-9366 
-9464 
-9496 
-9454 
-9445 
-9497 
-9525 
-9439 
-9413 
-9442 
-9468 
-9449 
-9424 
-9433 
-9465 
-9423 
-9372 
-9327 
-9391 
-9326 
-9285 
-9273 
-9346 
-9436 
-9409 
-9322 
-9441 
-9424 
-9380 
-9367 
-9413 
-9444 
-9373 
-9387 
-9361 
-9369 
-9338 
-9310 
-9381 
-9427 
-9415 
-9407 
-9401 
-9424 
-9368 
-9358 
-9410 
-9435 
-9422 
-9349 
-9340 
-9376 
-9344 
-9321 
-9356 
-9382 
-9342 
-9305 
-9261 
-9357 
-9433 
-9398 
-9375 
-9387 
-9428 
-9372 
-9310 
-9353 
-9404 
-9363 
-9288 
-9241 
-9291 
-9337 
-9334 
-9279 
-9272 
-9260 
-9241 
-9293 
-9340 
-9343 
-9249 
-9218 
-9294 
-9309 
-9235 
-9205 
-9301 
-9332 
-9295 
-9287 
-9302 
-9326 
-9236 
-9216 
-9296 
-9323 
-9322 
-9303 
-9308 
-9394 
-9330 
-9222 
-9266 
-9368 
-9399 
-9329 
-9220 
-9286 
-9317 
-9282 
-9245 
-9295 
-9313 
-9241 
-9150 
-9052 
-8999 
-8972 
-9068 
-9241 
-9437 
-9539 
-9662 
-9666 
-9634 
-9555 
-9432 
-9364 
-9399 
-9358 
-9260 
-9210 
-9251 
-9289 
-9230 
-9199 
-9259 
-9320 
-9258 
-9194 
-9168 
-9205 
-9177 
-9100 
-9101 
-9146 
-9140 
-9106 
-9062 
-9061 
-9108 
-9067 
-9077 
-9150 
-9151 
-9105 
-9119 
-9167 
-9170 
-9093 
-9057 
-9055 
-9168 
-9166 
-9062 
-9078 
-9128 
-9092 
-9078 
-9081 
-9146 
-9183 
-9080 
-9052 
-9168 
-9194 
-9141 
-9107 
-9150 
-9169 
-9136 
-9100 
-9105 
-9144 
-9115 
-9104 
-9138 
-9157 
-9180 
-9126 
-9108 
-9173 
-9167 
-9096 
-9079 
-9175 
-9164 
-9106 
-9112 
-9136 
-9151 
-9106 
-9079 
-9087 
-9103 
-9097 
-9058 
-9115 
-9153 
-9085 
-8960 
-8997 
-9050 
-9052 
-9023 
-9062 
-9123 
-9111 
-9108 
-9107 
-9180 
-9170 
-9145 
-9125 
-9157 
-9180 
-9149 
-9089 
-9139 
-9166 
-9124 
-9094 
-9106 
-9233 
-9207 
-9126 
-9152 
-9179 
-9199 
-9161 
-9175 
-9231 
-9205 
-9170 
-9138 
-9137 
-9078 
-8896 
-8796 
-8930 
-9135 
-9203 
-9251 
-9467 
-9607 
-9511 
-9405 
-9402 
-9388 
-9333 
-9270 
-9244 
-9278 
-9220 
-9179 
-9193 
-9274 
-9247 
-9189 
-9212 
-9278 
-9240 
-9164 
-9113 
-9187 
-9242 
-9172 
-9149 
-9169 
-9144 
-9215 
-9219 
-9205 
-9211 
-9179 
-9132 
-9147 
-9179 
-9173 
-9142 
-9176 
-9177 
-9192 
-9151 
-9094 
-9120 
-9169 
-9138 
-9098 
-9175 
-9150 
-9070 
-9023 
-9027 
-9011 
-9000 
-8965 
-9024 
-9071 
-9017 
-8997 
-8966 
-9009 
-9040 
-8955 
-8937 
-9003 
-9055 
-9021 
-9035 
-9115 
-9164 
-9070 
-9078 
-9185 
-9245 
-9189 
-9188 
-9184 
-9228 
-9231 
-9197 
-9183 
-9276 
-9277 
-9232 
-9202 
-9276 
-9267 
-9175 
-9161 
-9203 
-9259 
-9229 
-9187 
-9251 
-9236 
-9151 
-9157 
-9203 
-9263 
-9248 
-9228 
-9245 
-9291 
-9232 
-9154 
-9231 
-9307 
-9295 
-9207 
-9201 
-9275 
-9300 
-9216 
-9176 
-9247 
-9235 
-9256 
-9240 
-9296 
-9321 
-9273 
-9291 
-9312 
-9318 
-9330 
-9296 
-9310 
-9360 
-9276 
-9192 
-9474 
-9415 
-9458 
-9500 
-9511 
-9423 
-9420 
-9554 
-9624 
-9523 
-9489 
-9556 
-9578 
-9434 
-9438 
-9496 
-9559 
-9468 
-9403 
-9454 
-9591 
-9551 
-9426 
-9458 
-9613 
-9570 
-9480 
-9512 
-9621 
-9600 
-9414 
-9408 
-9553 
-9673 
-9513 
-9427 
-9519 
-9614 
-9479 
-9434 
-9540 
-9632 
-9478 
-9418 
-9506 
-9601 
-9513 
-9420 
-9528 
-9629 
-9583 
-9468 
-9462 
-9535 
-9562 
-9395 
-9380 
-9528 
-9552 
-9389 
-9393 
-9509 
-9569 
-9410 
-9334 
-9385 
-9527 
-9390 
-9317 
-9410 
-9569 
-9455 
-9389 
-9457 
-9599 
-9569 
-9430 
-9469 
-9591 
-9585 
-9507 
-9478 
-9603 
-9594 
-9419 
-9414 
-9509 
-9595 
-9478 
-9408 
-9495 
-9647 
-9495 
-9410 
-9487 
-9566 
-9489 
-9408 
-9494 
-9504 
-9246 
-9050 
-9135 
-9431 
-9587 
-9543 
-9719 
-9910 
-9859 
-9696 
-9593 
-9679 
-9721 
-9564 
-9476 
-9506 
-9560 
-9438 
-9363 
-9277 
-9249 
-9238 
-9230 
-9237 
-9277 
-9294 
-9306 
-9303 
-9315 
-9311 
-9377 
-9379 
-9400 
-9377 
-9451 
-9466 
-9410 
-9489 
-9484 
-9462 
-9413 
-9490 
-9506 
-9475 
-9475 
-9471 
-9461 
-9507 
-9512 
-9522 
-9493 
-9471 
-9459 
-9453 
-9447 
-9502 
-9479 
-9429 
-9486 
-9527 
-9516 
-9469 
-9458 
-9478 
-9494 
-9459 
-9489 
-9470 
-9462 
-9463 
-9451 
-9421 
-9466 
-9459 
-9462 
-9457 
-9511 
-9485 
-9433 
-9458 
-9515 
-9517 
-9486 
-9454 
-9471 
-9498 
-9436 
-9471 
-9490 
-9467 
-9386 
-9417 
-9442 
-9469 
-9420 
-9428 
-9442 
-9486 
-9471 
-9460 
-9481 
-9525 
-9510 
-9438 
-9421 
-9455 
-9457 
-9426 
-9381 
-9432 
-9480 
-9407 
-9427 
-9448 
-9474 
-9446 
-9435 
-9419 
-9460 
-9474 
-9430 
-9397 
-9457 
-9450 
-9413 
-9386 
-9394 
-9360 
-9388 
-9376 
-9354 
-9352 
-9336 
-9334 
-9357 
-9360 
-9368 
-9384 
-9349 
-9432 
-9450 
-9408 
-9380 
-9463 
-9443 
-9403 
-9422 
-9490 
-9437 
-9419 
-9415 
-9437 
-9442 
-9429 
-9387 
-9449 
-9478 
-9433 
-9428 
-9402 
-9451 
-9437 
-9448 
-9435 
-9437 
-9490 
-9438 
-9369 
-9296 
-9175 
-9037 
-9073 
-9312 
-9464 
-9556 
-9710 
-9796 
-9726 
-9634 
-9551 
-9552 
-9562 
-9514 
-9495 
-9480 
-9436 
-9415 
-9420 
-9427 
-9394 
-9338 
-9338 
-9323 
-9330 
-9356 
-9364 
-9265 
-9321 
-9355 
-9386 
-9363 
-9353 
-9378 
-9351 
-9348 
-9382 
-9340 
-9343 
-9351 
-9327 
-9303 
-9288 
-9314 
-9260 
-9231 
-9251 
-9307 
-9265 
-9221 
-9280 
-9365 
-9263 
-9173 
-9171 
-9268 
-9188 
-9132 
-9175 
-9233 
-9194 
-9120 
-9145 
-9222 
-9189 
-9084 
-9054 
-9162 
-9145 
-9069 
-9073 
-9139 
-9222 
-9130 
-9106 
-9287 
-9370 
-9247 
-9176 
-9304 
-9409 
-9317 
-9282 
-9304 
-9419 
-9361 
-9278 
-9272 
-9368 
-9356 
-9319 
-9333 
-9340 
-9353 
-9282 
-9260 
-9405 
-9401 
-9306 
-9282 
-9330 
-9344 
-9241 
-9242 
-9351 
-9373 
-9276 
-9198 
-9240 
-9343 
-9317 
-9196 
-9248 
-9334 
-9262 
-9266 
-9256 
-9350 
-9364 
-9274 
-9221 
-9278 
-9327 
-9259 
-9213 
-9260 
-9297 
-9259 
-9211 
-9150 
-9277 
-9268 
-9217 
-9214 
-9315 
-9245 
-9195 
-9251 
-9339 
-9306 
-9245 
-9190 
-9282 
-9281 
-9240 
-9249 
-9299 
-9308 
-9220 
-9163 
-9264 
-9283 
-9189 
-9166 
-9206 
-9242 
-9207 
-9198 
-9211 
-9225 
-9236 
-9181 
-9190 
-9197 
-9202 
-9120 
-9099 
-9225 
-9222 
-9157 
-9167 
-9237 
-9216 
-9168 
-9164 
-9261 
-9294 
-9236 
-9184 
-9204 
-9295 
-9285 
-9193 
-9193 
-9310 
-9280 
-9224 
-9265 
-9340 
-9323 
-9252 
-9279 
-9331 
-9306 
-9237 
-9215 
-9271 
-9273 
-9242 
-9236 
-9261 
-9159 
-9000 
-8880 
-8959 
-9180 
-9295 
-9371 
-9594 
-9753 
-9645 
-9472 
-9366 
-9361 
-9382 
-9272 
-9205 
-9293 
-9319 
-9269 
-9216 
-9261 
-9269 
-9203 
-9141 
-9199 
-9285 
-9207 
-9118 
-9116 
-9178 
-9180 
-9137 
-9194 
-9256 
-9232 
-9207 
-9179 
-9193 
-9157 
-9102 
-9148 
-9236 
-9209 
-9082 
-9021 
-9090 
-9148 
-9056 
-9043 
-9094 
-9173 
-9127 
-9060 
-9091 
-9092 
-9030 
-9003 
-9018 
-9029 
-8980 
-8952 
-8937 
-9016 
-8987 
-8908 
-8936 
-8980 
-9021 
-8947 
-8941 
-8977 
-9055 
-8993 
-8965 
-9039 
-9144 
-9069 
-9031 
-9125 
-9199 
-9149 
-9135 
-9189 
-9235 
-9212 
-9114 
-9113 
-9208 
-9216 
-9150 
-9139 
-9239 
-9281 
-9156 
-9108 
-9202 
-9212 
-9191 
-9138 
-9164 
-9181 
-9160 
-9137 
-9164 
-9227 
-9187 
-9064 
-9123 
-9229 
-9203 
-9126 
-9116 
-9220 
-9151 
-9084 
-9097 
-9185 
-9173 
-9089 
-9088 
-9169 
-9217 
-9159 
-9047 
-9186 
-9253 
-9153 
-9100 
-9189 
-9228 
-9214 
-9119 
-9102 
-9174 
-9179 
-9072 
-9088 
-9185 
-9166 
-9091 
-9128 
-9218 
-9210 
-9124 
-9070 
-9138 
-9200 
-9161 
-9094 
-9139 
-9232 
-9212 
-9150 
-9135 
-9199 
-9144 
-9097 
-9074 
-9172 
-9127 
-9102 
-9042 
-9082 
-9166 
-9161 
-9128 
-9148 
-9153 
-9115 
-9147 
-9126 
-9152 
-9078 
-9013 
-9097 
-9097 
-9051 
-9016 
-9062 
-9122 
-9068 
-9004 
-8989 
-9035 
-9039 
-8963 
-9008 
-9116 
-9133 
-9064 
-9076 
-9153 
-9143 
-9092 
-9013 
-9087 
-9168 
-9086 
-9053 
-9125 
-9186 
-9120 
-9092 
-9135 
-9182 
-9182 
-9111 
-9078 
-9129 
-9122 
-9072 
-9081 
-9131 
-9092 
-9004 
-8910 
-8863 
-8779 
-8763 
-8912 
-9140 
-9251 
-9390 
-9416 
-9413 
-9455 
-9314 
-9153 
-9169 
-9185 
-9130 
-9026 
-9025 
-9115 
-9094 
-8996 
-8998 
-9122 
-9110 
-9018 
-8938 
-9018 
-9021 
-8935 
-8930 
-9078 
-9131 
-9044 
-9012 
-9040 
-9064 
-9027 
-8964 
-8988 
-9010 
-8936 
-8932 
-8961 
-8960 
-8928 
-8862 
-8885 
-8973 
-8934 
-8913 
-8933 
-8997 
-9018 
-8919 
-8846 
-8870 
-8895 
-8879 
-8823 
-8812 
-8841 
-8793 
-8741 
-8783 
-8846 
-8799 
-8744 
-8728 
-8790 
-8819 
-8726 
-8737 
-8897 
-8959 
-8859 
-8856 
-8904 
-8918 
-8885 
-8887 
-8981 
-9002 
-8922 
-8900 
-8960 
-9065 
-9001 
-8915 
-8987 
-9090 
-9058 
-8958 
-8952 
-9001 
-9069 
-8989 
-8948 
-9021 
-9004 
-8963 
-8923 
-8964 
-9013 
-8946 
-8891 
-8990 
-9010 
-8913 
-8921 
-8978 
-9056 
-9017 
-8935 
-8973 
-8994 
-8925 
-8855 
-8922 
-9026 
-8979 
-8913 
-8920 
-8966 
-8996 
-8849 
-8879 
-8997 
-8964 
-8938 
-8961 
-8979 
-9075 
-9010 
-8963 
-8993 
-8980 
-8925 
-8871 
-8908 
-8979 
-8911 
-8859 
-8912 
-9029 
-9036 
-8919 
-8878 
-8968 
-8997 
-8961 
-8948 
-9014 
-9045 
-8959 
-8902 
-8926 
-8964 
-8862 
-8834 
-8959 
-9011 
-8917 
-8897 
-8908 
-9002 
-8962 
-8893 
-8835 
-8869 
-8881 
-8860 
-8874 
-8894 
-8950 
-8840 
-8820 
-8904 
-8894 
-8815 
-8831 
-8841 
-8846 
-8810 
-8740 
-8855 
-8964 
-8940 
-8872 
-8843 
-8887 
-8902 
-8861 
-8852 
-8956 
-8934 
-8853 
-8880 
-8981 
-9012 
-8888 
-8827 
-8891 
-8893 
-8891 
-8847 
-8882 
-8921 
-8882 
-8853 
-8878 
-8912 
-8830 
-8671 
-8626 
-8579 
-8589 
-8684 
-8885 
-9037 
-9142 
-9213 
-9201 
-9210 
-9113 
-8965 
-8908 
-8925 
-8955 
-8854 
-8795 
-8840 
-8873 
-8785 
-8747 
-8802 
-8866 
-8820 
-8768 
-8795 
-8822 
-8827 
-8777 
-8767 
-8824 
-8823 
-8745 
-8771 
-8847 
-8858 
-8727 
-8709 
-8851 
-8763 
-8630 
-8638 
-8706 
-8726 
-8725 
-8691 
-8676 
-8733 
-8712 
-8686 
-8674 
-8730 
-8699 
-8637 
-8648 
-8707 
-8647 
-8548 
-8512 
-8621 
-8605 
-8519 
-8501 
-8564 
-8613 
-8569 
-8544 
-8545 
-8579 
-8544 
-8524 
-8562 
-8591 
-8626 
-8559 
-8585 
-8676 
-8729 
-8706 
-8679 
-8760 
-8737 
-8635 
-8703 
-8775 
-8769 
-8705 
-8704 
-8750 
-8827 
-8779 
-8755 
-8785 
-8811 
-8790 
-8679 
-8664 
-8715 
-8718 
-8681 
-8701 
-8747 
-8725 
-8663 
-8638 
-8701 
-8702 
-8608 
-8662 
-8789 
-8794 
-8704 
-8627 
-8657 
-8759 
-8695 
-8665 
-8718 
-8797 
-8685 
-8643 
-8674 
-8707 
-8717 
-8660 
-8698 
-8815 
-8772 
-8719 
-8644 
-8667 
-8696 
-8713 
-8653 
-8695 
-8740 
-8671 
-8630 
-8703 
-8754 
-8714 
-8653 
-8695 
-8710 
-8681 
-8637 
-8661 
-8700 
-8706 
-8619 
-8667 
-8744 
-8687 
-8611 
-8615 
-8633 
-8649 
-8592 
-8585 
-8685 
-8648 
-8541 
-8525 
-8562 
-8605 
-8552 
-8558 
-8621 
-8655 
-8646 
-8602 
-8632 
-8666 
-8625 
-8582 
-8649 
-8696 
-8644 
-8621 
-8648 
-8663 
-8655 
-8585 
-8569 
-8685 
-8665 
-8526 
-8561 
-8657 
-8696 
-8643 
-8584 
-8592 
-8614 
-8569 
-8457 
-8378 
-8332 
-8320 
-8431 
-8669 
-8770 
-8895 
-9008 
-9026 
-8985 
-8905 
-8743 
-8647 
-8665 
-8712 
-8642 
-8517 
-8546 
-8658 
-8642 
-8564 
-8589 
-8612 
-8533 
-8597 
-8677 
-8674 
-8577 
-8563 
-8596 
-8625 
-8599 
-8529 
-8556 
-8650 
-8573 
-8507 
-8570 
-8613 
-8592 
-8552 
-8498 
-8546 
-8584 
-8486 
-8462 
-8537 
-8543 
-8436 
-8398 
-8478 
-8557 
-8520 
-8458 
-8440 
-8484 
-8473 
-8449 
-8430 
-8461 
-8440 
-8347 
-8258 
-8367 
-8470 
-8418 
-8308 
-8386 
-8466 
-8378 
-8318 
-8355 
-8496 
-8509 
-8502 
-8517 
-8576 
-8588 
-8570 
-8576 
-8714 
-8721 
-8573 
-8607 
-8686 
-8684 
-8612 
-8631 
-8726 
-8726 
-8667 
-8611 
-8685 
-8721 
-8673 
-8669 
-8669 
-8738 
-8682 
-8653 
-8753 
-8753 
-8695 
-8640 
-8652 
-8713 
-8728 
-8660 
-8668 
-8769 
-8774 
-8656 
-8658 
-8709 
-8750 
-8707 
-8696 
-8740 
-8757 
-8678 
-8604 
-8737 
-8773 
-8672 
-8609 
-8685 
-8753 
-8773 
-8801 
-8758 
-8815 
-8767 
-8718 
-8750 
-8802 
-8741 
-8706 
-8670 
-8766 
-8824 
-8745 
-8748 
-8808 
-8803 
-8760 
-8710 
-8738 
-8763 
-8750 
-8724 
-8776 
-8791 
-8724 
-8765 
-8797 
-8835 
-8790 
-8764 
-8727 
-8781 
-8778 
-8706 
-8658 
-8666 
-8712 
-8670 
-8633 
-8774 
-8861 
-8853 
-8783 
-8832 
-8901 
-8823 
-8799 
-8813 
-8883 
-8854 
-8817 
-8825 
-8838 
-8830 
-8796 
-8817 
-8827 
-8853 
-8836 
-8834 
-8868 
-8908 
-8838 
-8797 
-8820 
-8884 
-8807 
-8655 
-8562 
-8559 
-8532 
-8640 
-8850 
-8992 
-9150 
-9245 
-9193 
-9179 
-9090 
-8976 
-8941 
-8967 
-8907 
-8810 
-8793 
-8804 
-8885 
-8797 
-8749 
-8805 
-8879 
-8805 
-8775 
-8808 
-8852 
-8803 
-8739 
-8708 
-8762 
-8787 
-8862 
-8853 
-8892 
-8821 
-8744 
-8756 
-8789 
-8773 
-8743 
-8633 
-8703 
-8773 
-8764 
-8697 
-8712 
-8692 
-8653 
-8684 
-8767 
-8809 
-8723 
-8664 
-8646 
-8677 
-8651 
-8603 
-8571 
-8655 
-8645 
-8566 
-8509 
-8610 
-8652 
-8584 
-8563 
-8593 
-8611 
-8576 
-8532 
-8566 
-8671 
-8685 
-8600 
-8649 
-8749 
-8744 
-8728 
-8737 
-8799 
-8775 
-8734 
-8754 
-8797 
-8772 
-8793 
-8750 
-8805 
-8851 
-8830 
-8809 
-8828 
-8864 
-8794 
-8782 
-8786 
-8795 
-8742 
-8788 
-8781 
-8826 
-8791 
-8724 
-8736 
-8802 
-8835 
-8762 
-8795 
-8865 
-8872 
-8767 
-8710 
-8748 
-8757 
-8782 
-8740 
-8786 
-8813 
-8757 
-8736 
-8787 
-8829 
-8816 
-8750 
-8803 
-8858 
-8801 
-8735 
-8835 
-8871 
-8817 
-8710 
-8683 
-8813 
-8802 
-8723 
-8756 
-8823 
-8787 
-8775 
-8741 
-8759 
-8847 
-8773 
-8737 
-8808 
-8829 
-8795 
-8709 
-8721 
-8799 
-8834 
-8763 
-8792 
-8865 
-8770 
-8736 
-8773 
-8744 
-8740 
-8731 
-8721 
-8753 
-8733 
-8690 
-8704 
-8725 
-8740 
-8744 
-8677 
-8733 
-8785 
-8718 
-8639 
-8662 
-8717 
-8711 
-8676 
-8720 
-8754 
-8697 
-8696 
-8753 
-8833 
-8776 
-8776 
-8777 
-8789 
-8759 
-8719 
-8724 
-8760 
-8780 
-8733 
-8702 
-8755 
-8764 
-8704 
-8702 
-8726 
-8756 
-8695 
-8762 
-8779 
-8734 
-8615 
-8427 
-8323 
-8444 
-8588 
-8677 
-8803 
-9062 
-9168 
-9091 
-9031 
-8917 
-8910 
-8828 
-8749 
-8706 
-8706 
-8668 
-8634 
-8656 
-8641 
-8666 
-8634 
-8632 
-8699 
-8661 
-8629 
-8571 
-8648 
-8702 
-8647 
-8576 
-8629 
-8642 
-8603 
-8583 
-8672 
-8679 
-8583 
-8524 
-8580 
-8621 
-8579 
-8504 
-8437 
-8507 
-8498 
-8446 
-8471 
-8566 
-8534 
-8424 
-8425 
-8502 
-8456 
-8428 
-8444 
-8462 
-8463 
-8395 
-8338 
-8429 
-8466 
-8405 
-8308 
-8316 
-8359 
-8327 
-8300 
-8294 
-8346 
-8312 
-8292 
-8411 
-8449 
-8448 
-8463 
-8456 
-8522 
-8592 
-8478 
-8435 
-8519 
-8566 
-8525 
-8499 
-8551 
-8620 
-8525 
-8473 
-8486 
-8528 
-8473 
-8462 
-8462 
-8546 
-8565 
-8506 
-8504 
-8555 
-8522 
-8477 
-8454 
-8561 
-8531 
-8469 
-8481 
-8529 
-8486 
-8462 
-8458 
-8509 
-8480 
-8477 
-8480 
-8485 
-8570 
-8498 
-8442 
-8434 
-8516 
-8528 
-8429 
-8430 
-8527 
-8510 
-8424 
-8387 
-8505 
-8530 
-8462 
-8408 
-8428 
-8537 
-8504 
-8413 
-8454 
-8505 
-8476 
-8476 
-8482 
-8526 
-8489 
-8444 
-8442 
-8476 
-8421 
-8367 
-8387 
-8453 
-8474 
-8391 
-8371 
-8382 
-8483 
-8474 
-8449 
-8478 
-8436 
-8347 
-8342 
-8403 
-8417 
-8364 
-8339 
-8395 
-8410 
-8353 
-8278 
-8274 
-8304 
-8307 
-8335 
-8349 
-8403 
-8385 
-8302 
-8312 
-8394 
-8411 
-8334 
-8323 
-8425 
-8458 
-8429 
-8349 
-8357 
-8423 
-8378 
-8335 
-8361 
-8424 
-8337 
-8225 
-8330 
-8443 
-8382 
-8301 
-8252 
-8333 
-8362 
-8248 
-8143 
-8051 
-8043 
-8107 
-8262 
-8399 
-8553 
-8683 
-8687 
-8659 
-8552 
-8441 
-8372 
-8378 
-8408 
-8396 
-8251 
-8245 
-8331 
-8334 
-8244 
-8221 
-8272 
-8284 
-8239 
-8223 
-8240 
-8240 
-8184 
-8159 
-8232 
-8219 
-8211 
-8164 
-8239 
-8264 
-8224 
-8169 
-8154 
-8179 
-8175 
-8161 
-8161 
-8178 
-8137 
-8043 
-8020 
-8134 
-8221 
-8155 
-8016 
-8054 
-8089 
-8053 
-8058 
-8067 
-8088 
-8022 
-7940 
-8046 
-8071 
-7974 
-7945 
-7984 
-8015 
-7992 
-7915 
-7937 
-8026 
-7958 
-7854 
-7863 
-7941 
-8012 
-8015 
-7970 
-8069 
-8103 
-8102 
-8074 
-8174 
-8251 
-8186 
-8122 
-8166 
-8239 
-8200 
-8130 
-8142 
-8161 
-8177 
-8158 
-8121 
-8187 
-8167 
-8112 
-8105 
-8160 
-8211 
-8110 
-8096 
-8140 
-8164 
-8114 
-8050 
-8173 
-8193 
-8115 
-8035 
-8064 
-8141 
-8139 
-8058 
-8039 
-8138 
-8140 
-8078 
-8099 
-8181 
-8173 
-8082 
-8072 
-8161 
-8204 
-8080 
-8076 
-8145 
-8178 
-8135 
-8071 
-8074 
-8097 
-8076 
-8008 
-8096 
-8162 
-8105 
-8052 
-8075 
-8160 
-8120 
-8072 
-8088 
-8124 
-8066 
-8018 
-8023 
-8057 
-8013 
-7962 
-7953 
-7999 
-7995 
-8016 
-8027 
-8043 
-8094 
-8111 
-8090 
-8052 
-8140 
-8137 
-8069 
-8070 
-8132 
-8099 
-8062 
-8059 
-8078 
-8099 
-8108 
-8088 
-8082 
-8044 
-8047 
-8072 
-8107 
-8105 
-8069 
-8086 
-8087 
-8068 
-7975 
-7858 
-7749 
-7785 
-7851 
-7969 
-8092 
-8255 
-8432 
-8484 
-8443 
-8421 
-8315 
-8184 
-8128 
-8189 
-8132 
-8062 
-7950 
-8008 
-8054 
-8094 
-8057 
-8024 
-8059 
-7981 
-7925 
-7985 
-8035 
-8022 
-7936 
-7971 
-8071 
-8099 
-7990 
-7951 
-7983 
-8022 
-7930 
-7927 
-7998 
-7988 
-7980 
-7935 
-7931 
-7962 
-7916 
-7868 
-7864 
-7931 
-7914 
-7882 
-7875 
-7943 
-7934 
-7830 
-7818 
-7892 
-7884 
-7815 
-7799 
-7822 
-7846 
-7801 
-7758 
-7806 
-7814 
-7769 
-7707 
-7748 
-7805 
-7781 
-7770 
-7780 
-7828 
-7828 
-7812 
-7932 
-7994 
-7974 
-7939 
-7968 
-7998 
-8004 
-7971 
-7966 
-7995 
-7963 
-7952 
-7952 
-8012 
-8019 
-7992 
-7929 
-7970 
-8036 
-7988 
-7896 
-7984 
-8013 
-7962 
-7907 
-7958 
-8047 
-8034 
-7945 
-7913 
-7964 
-7956 
-7892 
-7950 
-7951 
-7997 
-7921 
-7909 
-7945 
-7992 
-7919 
-7870 
-7903 
-7971 
-7937 
-7950 
-7940 
-8024 
-7984 
-7907 
-7961 
-8081 
-7974 
-7905 
-7916 
-8013 
-7994 
-7906 
-7911 
-8004 
-7989 
-7862 
-7807 
-7945 
-7991 
-7912 
-7873 
-7926 
-8030 
-7975 
-7846 
-7818 
-7865 
-7824 
-7768 
-7796 
-7907 
-7949 
-7898 
-7852 
-7941 
-7942 
-7876 
-7867 
-7904 
-7939 
-7876 
-7886 
-7938 
-7985 
-7944 
-7860 
-7936 
-7991 
-7941 
-7867 
-7894 
-8014 
-7994 
-7901 
-7889 
-7968 
-7969 
-7897 
-7825 
-7794 
-7744 
-7576 
-7557 
-7773 
-8041 
-8078 
-8111 
-8284 
-8334 
-8228 
-8047 
-8006 
-8116 
-8053 
-7939 
-7935 
-7928 
-7908 
-7863 
-7851 
-7938 
-7953 
-7852 
-7864 
-7893 
-7874 
-7831 
-7887 
-7917 
-7900 
-7828 
-7787 
-7893 
-7982 
-7894 
-7839 
-7875 
-7904 
-7843 
-7810 
-7808 
-7904 
-7869 
-7789 
-7755 
-7841 
-7860 
-7749 
-7721 
-7821 
-7874 
-7847 
-7771 
-7777 
-7831 
-7737 
-7658 
-7754 
-7818 
-7741 
-7645 
-7704 
-7786 
-7701 
-7628 
-7717 
-7764 
-7693 
-7670 
-7710 
-7833 
-7801 
-7753 
-7758 
-7818 
-7826 
-7822 
-7802 
-7916 
-7942 
-7888 
-7906 
-7929 
-8003 
-7949 
-7933 
-7982 
-7987 
-7951 
-7851 
-7908 
-8037 
-7989 
-7916 
-7904 
-7989 
-7962 
-7921 
-7937 
-7970 
-8001 
-7879 
-7862 
-7966 
-7980 
-7953 
-7954 
-7965 
-7949 
-7931 
-7898 
-7941 
-8020 
-7940 
-7887 
-7911 
-7978 
-8052 
-8002 
-7992 
-7985 
-7972 
-7950 
-7950 
-8003 
-8027 
-7979 
-7958 
-8042 
-8043 
-7988 
-7970 
-8058 
-8025 
-8004 
-7918 
-7948 
-8057 
-8025 
-7919 
-7943 
-8015 
-7999 
-7911 
-7925 
-8001 
-8029 
-7967 
-7940 
-8011 
-8108 
-8056 
-7989 
-8009 
-8034 
-8082 
-8044 
-8056 
-8130 
-8088 
-8050 
-8101 
-8142 
-8129 
-8100 
-8128 
-8137 
-8112 
-8091 
-8096 
-8156 
-8107 
-8035 
-8042 
-8114 
-8108 
-8043 
-7963 
-7917 
-7867 
-7838 
-7982 
-8210 
-8334 
-8421 
-8524 
-8465 
-8387 
-8339 
-8238 
-8220 
-8219 
-8127 
-8045 
-8102 
-8196 
-8181 
-8124 
-8069 
-8149 
-8236 
-8124 
-8138 
-8138 
-8127 
-8125 
-8050 
-8095 
-8160 
-8146 
-8055 
-8070 
-8115 
-8138 
-8187 
-8161 
-8144 
-8133 
-8092 
-8096 
-8122 
-8135 
-8062 
-7977 
-8053 
-8047 
-8006 
-7999 
-8052 
-8040 
-8026 
-8020 
-8028 
-8062 
-8020 
-7953 
-7944 
-8054 
-8001 
-7918 
-7916 
-7967 
-7991 
-7969 
-7942 
-7958 
-7992 
-7912 
-7930 
-7991 
-8069 
-8050 
-8034 
-8094 
-8165 
-8125 
-8050 
-8134 
-8217 
-8176 
-8200 
-8241 
-8276 
-8262 
-8242 
-8237 
-8232 
-8190 
-8120 
-8167 
-8205 
-8220 
-8195 
-8150 
-8215 
-8262 
-8214 
-8211 
-8207 
-8246 
-8183 
-8159 
-8190 
-8283 
-8255 
-8258 
-8246 
-8263 
-8239 
-8183 
-8182 
-8244 
-8225 
-8153 
-8159 
-8225 
-8243 
-8209 
-8188 
-8207 
-8216 
-8142 
-8147 
-8264 
-8284 
-8168 
-8122 
-8132 
-8153 
-8113 
-8088 
-8132 
-8180 
-8175 
-8119 
-8161 
-8213 
-8248 
-8225 
-8206 
-8319 
-8306 
-8210 
-8194 
-8247 
-8279 
-8200 
-8153 
-8214 
-8257 
-8185 
-8252 
-8273 
-8299 
-8230 
-8161 
-8209 
-8275 
-8276 
-8191 
-8151 
-8131 
-7927 
-7809 
-7913 
-8208 
-8350 
-8316 
-8495 
-8663 
-8603 
-8461 
-8367 
-8330 
-8342 
-8290 
-8203 
-8194 
-8253 
-8224 
-8194 
-8198 
-8265 
-8227 
-8136 
-8173 
-8218 
-8206 
-8125 
-8134 
-8160 
-8170 
-8132 
-8137 
-8262 
-8285 
-8224 
-8169 
-8252 
-8282 
-8144 
-8108 
-8130 
-8192 
-8132 
-8060 
-8052 
-8085 
-8077 
-8051 
-8022 
-8071 
-8064 
-8053 
-7991 
-8035 
-8068 
-7991 
-7974 
-8011 
-8028 
-7942 
-7895 
-7914 
-7985 
-7920 
-7878 
-7914 
-7943 
-7907 
-7857 
-7875 
-7989 
-8023 
-8023 
-7976 
-8085 
-8067 
-7998 
-8052 
-8126 
-8139 
-8119 
-8080 
-8094 
-8152 
-8114 
-8095 
-8120 
-8130 
-8109 
-8100 
-8087 
-8140 
-8067 
-8025 
-8079 
-8103 
-8072 
-8041 
-8062 
-8113 
-8072 
-7990 
-7957 
-8085 
-8102 
-8032 
-7983 
-8074 
-8122 
-8076 
-7995 
-8021 
-8087 
-8007 
-7991 
-8065 
-8093 
-8022 
-8005 
-8006 
-8035 
-8062 
-7989 
-7987 
-8073 
-8068 
-7951 
-7897 
-8000 
-8024 
-7906 
-7875 
-7929 
-7955 
-7942 
-7881 
-7874 
-7969 
-7986 
-7971 
-7977 
-8016 
-7989 
-7937 
-7956 
-8042 
-8098 
-8026 
-7908 
-7988 
-8034 
-7962 
-7898 
-8003 
-8026 
-7974 
-7944 
-7995 
-8028 
-7955 
-7909 
-7963 
-8034 
-8011 
-7905 
-7917 
-7922 
-7725 
-7522 
-7513 
-7727 
-7923 
-7949 
-8032 
-8274 
-8359 
-8210 
-8089 
-8084 
-8086 
-7998 
-7941 
-7971 
-7966 
-7882 
-7818 
-7831 
-7912 
-7888 
-7828 
-7815 
-7860 
-7839 
-7765 
-7759 
-7896 
-7897 
-7807 
-7746 
-7799 
-7875 
-7837 
-7776 
-7834 
-7808 
-7763 
-7743 
-7819 
-7836 
-7743 
-7757 
-7783 
-7804 
-7755 
-7703 
-7739 
-7747 
-7703 
-7640 
-7670 
-7742 
-7729 
-7637 
-7611 
-7686 
-7680 
-7549 
-7533 
-7612 
-7658 
-7600 
-7540 
-7586 
-7624 
-7573 
-7514 
-7636 
-7682 
-7576 
-7552 
-7608 
-7718 
-7722 
-7622 
-7687 
-7775 
-7732 
-7656 
-7726 
-7798 
-7793 
-7694 
-7722 
-7806 
-7857 
-7809 
-7763 
-7746 
-7823 
-7786 
-7696 
-7760 
-7852 
-7806 
-7694 
-7723 
-7794 
-7781 
-7698 
-7673 
-7711 
-7702 
-7697 
-7646 
-7717 
-7745 
-7657 
-7647 
-7733 
-7777 
-7764 
-7671 
-7723 
-7784 
-7749 
-7697 
-7705 
-7777 
-7739 
-7655 
-7666 
-7747 
-7706 
-7598 
-7627 
-7724 
-7753 
-7608 
-7535 
-7609 
-7670 
-7575 
-7569 
-7666 
-7786 
-7680 
-7634 
-7677 
-7777 
-7715 
-7663 
-7725 
-7795 
-7734 
-7661 
-7655 
-7750 
-7709 
-7640 
-7668 
-7758 
-7748 
-7667 
-7686 
-7749 
-7708 
-7587 
-7543 
-7680 
-7734 
-7668 
-7621 
-7651 
-7672 
-7508 
-7320 
-7246 
-7438 
-7666 
-7705 
-7811 
-8085 
-8165 
-8025 
-7906 
-7867 
-7809 
-7678 
-7649 
-7726 
-7782 
-7632 
-7558 
-7652 
-7711 
-7617 
-7529 
-7607 
-7697 
-7650 
-7582 
-7636 
-7702 
-7624 
-7552 
-7592 
-7627 
-7632 
-7541 
-7564 
-7637 
-7641 
-7592 
-7531 
-7578 
-7565 
-7543 
-7498 
-7567 
-7556 
-7493 
-7474 
-7487 
-7559 
-7527 
-7418 
-7473 
-7523 
-7511 
-7426 
-7439 
-7482 
-7485 
-7392 
-7334 
-7406 
-7423 
-7395 
-7349 
-7380 
-7447 
-7385 
-7314 
-7368 
-7482 
-7486 
-7398 
-7496 
-7593 
-7553 
-7516 
-7534 
-7597 
-7603 
-7536 
-7606 
-7745 
-7733 
-7667 
-7634 
-7673 
-7664 
-7620 
-7674 
-7710 
-7719 
-7655 
-7642 
-7723 
-7773 
-7704 
-7648 
-7663 
-7753 
-7698 
-7615 
-7621 
-7736 
-7734 
-7650 
-7672 
-7737 
-7760 
-7672 
-7654 
-7740 
-7782 
-7693 
-7675 
-7709 
-7762 
-7743 
-7716 
-7710 
-7772 
-7772 
-7709 
-7750 
-7873 
-7813 
-7710 
-7767 
-7863 
-7816 
-7709 
-7688 
-7791 
-7808 
-7749 
-7766 
-7826 
-7812 
-7748 
-7720 
-7805 
-7821 
-7720 
-7635 
-7692 
-7754 
-7703 
-7722 
-7759 
-7844 
-7828 
-7755 
-7810 
-7898 
-7910 
-7888 
-7834 
-7899 
-7896 
-7815 
-7830 
-7931 
-7900 
-7889 
-7884 
-7903 
-7979 
-7929 
-7790 
-7849 
-7920 
-7921 
-7815 
-7805 
-7874 
-7895 
-7801 
-7803 
-7852 
-7792 
-7621 
-7586 
-7765 
-7923 
-8020 
-8141 
-8376 
-8385 
-8233 
-8120 
-8142 
-8174 
-8046 
-7906 
-7945 
-8074 
-7977 
-7893 
-7933 
-8009 
-8020 
-7929 
-7927 
-7952 
-7922 
-7904 
-7940 
-8016 
-7952 
-7884 
-7889 
-7965 
-7992 
-7919 
-7925 
-7971 
-7999 
-7921 
-7822 
-7943 
-7961 
-7942 
-7861 
-7924 
-7989 
-7942 
-7865 
-7882 
-7956 
-7956 
-7887 
-7883 
-7971 
-7918 
-7863 
-7874 
-7935 
-7918 
-7824 
-7767 
-7847 
-7892 
-7837 
-7776 
-7813 
-7875 
-7798 
-7717 
-7819 
-7932 
-7959 
-7863 
-7898 
-7975 
-8000 
-7996 
-7993 
-8064 
-8029 
-7986 
-7939 
-8096 
-8132 
-8022 
-8021 
-8046 
-8059 
-8055 
-8037 
-8099 
-8143 
-8100 
-8004 
-8044 
-8139 
-8104 
-8016 
-8012 
-8096 
-8085 
-7965 
-8012 
-8086 
-8059 
-7973 
-7956 
-8032 
-8090 
-8056 
-7971 
-8061 
-8123 
-8057 
-8056 
-8044 
-8087 
-8085 
-7980 
-7988 
-8028 
-7978 
-7923 
-7918 
-7989 
-7982 
-7969 
-7936 
-7938 
-8032 
-8026 
-7996 
-8037 
-8073 
-7995 
-7938 
-7984 
-8071 
-8026 
-7893 
-7935 
-8043 
-7944 
-7800 
-7789 
-7923 
-7918 
-7887 
-7832 
-7830 
-7877 
-7781 
-7821 
-7999 
-8013 
-7924 
-7884 
-7980 
-8003 
-7950 
-7873 
-7928 
-7968 
-7957 
-7866 
-7936 
-8072 
-7965 
-7870 
-7907 
-8003 
-7990 
-7906 
-7887 
-7943 
-7969 
-7941 
-7869 
-7973 
-7963 
-7836 
-7805 
-7866 
-7878 
-7731 
-7539 
-7552 
-7759 
-7914 
-7962 
-8141 
-8343 
-8343 
-8162 
-8089 
-8066 
-8011 
-7903 
-7822 
-7834 
-7829 
-7787 
-7837 
-7889 
-7879 
-7803 
-7763 
-7793 
-7849 
-7799 
-7689 
-7695 
-7772 
-7779 
-7748 
-7722 
-7827 
-7824 
-7718 
-7738 
-7813 
-7806 
-7701 
-7671 
-7736 
-7760 
-7698 
-7699 
-7760 
-7729 
-7588 
-7598 
-7651 
-7658 
-7567 
-7538 
-7624 
-7619 
-7567 
-7463 
-7532 
-7634 
-7598 
-7517 
-7505 
-7547 
-7514 
-7427 
-7457 
-7511 
-7525 
-7482 
-7414 
-7474 
-7497 
-7446 
-7479 
-7543 
-7618 
-7657 
-7592 
-7610 
-7693 
-7665 
-7578 
-7612 
-7676 
-7686 
-7550 
-7534 
-7638 
-7644 
-7544 
-7569 
-7628 
-7608 
-7579 
-7542 
-7624 
-7688 
-7592 
-7572 
-7663 
-7684 
-7580 
-7549 
-7567 
-7654 
-7601 
-7513 
-7537 
-7604 
-7588 
-7554 
-7575 
-7584 
-7577 
-7487 
-7492 
-7576 
-7589 
-7531 
-7523 
-7571 
-7572 
-7493 
-7450 
-7541 
-7584 
-7570 
-7485 
-7517 
-7645 
-7589 
-7457 
-7514 
-7578 
-7522 
-7429 
-7446 
-7550 
-7590 
-7485 
-7412 
-7495 
-7503 
-7430 
-7422 
-7505 
-7511 
-7404 
-7381 
-7470 
-7502 
-7432 
-7392 
-7389 
-7417 
-7385 
-7281 
-7249 
-7392 
-7440 
-7355 
-7372 
-7473 
-7470 
-7401 
-7354 
-7456 
-7469 
-7436 
-7425 
-7423 
-7485 
-7460 
-7422 
-7502 
-7483 
-7420 
-7366 
-7399 
-7418 
-7391 
-7331 
-7390 
-7490 
-7424 
-7297 
-7315 
-7453 
-7395 
-7268 
-7205 
-7149 
-7075 
-6983 
-7105 
-7329 
-7461 
-7525 
-7656 
-7711 
-7724 
-7591 
-7405 
-7421 
-7444 
-7317 
-7257 
-7271 
-7273 
-7239 
-7212 
-7254 
-7259 
-7270 
-7274 
-7227 
-7235 
-7259 
-7210 
-7197 
-7230 
-7273 
-7247 
-7145 
-7146 
-7218 
-7188 
-7205 
-7212 
-7232 
-7212 
-7146 
-7140 
-7208 
-7189 
-7134 
-7153 
-7144 
-7129 
-7058 
-7020 
-7150 
-7208 
-7111 
-6993 
-7117 
-7179 
-7114 
-7043 
-7062 
-7110 
-7062 
-6952 
-7006 
-7034 
-6985 
-6947 
-6991 
-7061 
-7044 
-6957 
-7024 
-7150 
-7123 
-7069 
-7046 
-7183 
-7279 
-7194 
-7149 
-7219 
-7242 
-7208 
-7185 
-7262 
-7343 
-7310 
-7223 
-7218 
-7323 
-7298 
-7208 
-7204 
-7328 
-7328 
-7231 
-7214 
-7285 
-7302 
-7217 
-7193 
-7291 
-7272 
-7190 
-7146 
-7217 
-7300 
-7218 
-7127 
-7195 
-7309 
-7290 
-7190 
-7194 
-7238 
-7265 
-7229 
-7225 
-7310 
-7221 
-7213 
-7204 
-7300 
-7229 
-7167 
-7173 
-7284 
-7302 
-7207 
-7136 
-7188 
-7256 
-7184 
-7113 
-7126 
-7213 
-7139 
-7070 
-7135 
-7192 
-7156 
-7134 
-7201 
-7276 
-7285 
-7211 
-7219 
-7303 
-7340 
-7278 
-7237 
-7282 
-7298 
-7264 
-7208 
-7233 
-7290 
-7270 
-7215 
-7241 
-7314 
-7246 
-7167 
-7256 
-7297 
-7294 
-7253 
-7213 
-7258 
-7245 
-7253 
-7186 
-7167 
-7083 
-6850 
-6829 
-7122 
-7353 
-7409 
-7511 
-7702 
-7712 
-7540 
-7396 
-7343 
-7449 
-7354 
-7251 
-7303 
-7312 
-7213 
-7205 
-7214 
-7338 
-7274 
-7172 
-7189 
-7264 
-7294 
-7172 
-7167 
-7243 
-7280 
-7194 
-7131 
-7226 
-7323 
-7230 
-7209 
-7286 
-7291 
-7201 
-7135 
-7170 
-7250 
-7243 
-7164 
-7167 
-7250 
-7256 
-7110 
-7052 
-7135 
-7160 
-7101 
-7090 
-7186 
-7206 
-7170 
-7111 
-7138 
-7212 
-7136 
-7047 
-7107 
-7150 
-7032 
-6984 
-7040 
-7080 
-7064 
-7032 
-7026 
-7136 
-7155 
-7107 
-7102 
-7223 
-7249 
-7234 
-7241 
-7266 
-7293 
-7345 
-7274 
-7314 
-7342 
-7333 
-7268 
-7288 
-7390 
-7369 
-7245 
-7303 
-7390 
-7366 
-7311 
-7266 
-7363 
-7363 
-7315 
-7344 
-7375 
-7391 
-7276 
-7259 
-7349 
-7432 
-7315 
-7240 
-7299 
-7333 
-7328 
-7271 
-7319 
-7382 
-7350 
-7292 
-7276 
-7397 
-7424 
-7290 
-7289 
-7413 
-7409 
-7328 
-7290 
-7381 
-7391 
-7267 
-7327 
-7416 
-7427 
-7347 
-7311 
-7357 
-7355 
-7339 
-7339 
-7368 
-7400 
-7342 
-7302 
-7273 
-7329 
-7328 
-7277 
-7285 
-7381 
-7437 
-7280 
-7193 
-7307 
-7306 
-7212 
-7201 
-7249 
-7284 
-7237 
-7240 
-7299 
-7374 
-7323 
-7273 
-7337 
-7425 
-7395 
-7326 
-7341 
-7389 
-7337 
-7326 
-7343 
-7323 
-7390 
-7304 
-7279 
-7467 
-7480 
-7344 
-7248 
-7339 
-7441 
-7319 
-7260 
-7313 
-7403 
-7375 
-7288 
-7198 
-7120 
-7062 
-7065 
-7245 
-7454 
-7574 
-7609 
-7718 
-7795 
-7714 
-7545 
-7468 
-7510 
-7477 
-7372 
-7212 
-7289 
-7405 
-7379 
-7257 
-7321 
-7449 
-7371 
-7317 
-7331 
-7404 
-7366 
-7269 
-7273 
-7383 
-7376 
-7302 
-7314 
-7410 
-7376 
-7339 
-7289 
-7354 
-7390 
-7285 
-7276 
-7293 
-7328 
-7359 
-7275 
-7323 
-7378 
-7315 
-7205 
-7185 
-7318 
-7293 
-7173 
-7224 
-7319 
-7288 
-7232 
-7189 
-7263 
-7226 
-7179 
-7150 
-7226 
-7273 
-7204 
-7129 
-7152 
-7195 
-7177 
-7099 
-7172 
-7263 
-7284 
-7252 
-7288 
-7461 
-7402 
-7328 
-7352 
-7430 
-7471 
-7356 
-7372 
-7433 
-7405 
-7366 
-7362 
-7405 
-7479 
-7368 
-7330 
-7397 
-7456 
-7371 
-7370 
-7388 
-7462 
-7420 
-7353 
-7315 
-7392 
-7433 
-7374 
-7377 
-7441 
-7443 
-7389 
-7350 
-7444 
-7425 
-7383 
-7304 
-7387 
-7431 
-7380 
-7349 
-7403 
-7500 
-7451 
-7367 
-7408 
-7513 
-7463 
-7363 
-7364 
-7472 
-7463 
-7365 
-7363 
-7495 
-7482 
-7412 
-7404 
-7468 
-7513 
-7444 
-7338 
-7402 
-7451 
-7425 
-7412 
-7421 
-7428 
-7390 
-7318 
-7343 
-7415 
-7382 
-7257 
-7275 
-7386 
-7408 
-7355 
-7372 
-7471 
-7490 
-7397 
-7375 
-7435 
-7514 
-7432 
-7365 
-7461 
-7498 
-7454 
-7434 
-7451 
-7486 
-7412 
-7354 
-7462 
-7529 
-7516 
-7460 
-7474 
-7527 
-7472 
-7364 
-7392 
-7471 
-7403 
-7346 
-7203 
-7160 
-7161 
-7225 
-7395 
-7520 
-7705 
-7821 
-7794 
-7809 
-7691 
-7497 
-7473 
-7532 
-7480 
-7410 
-7494 
-7512 
-7450 
-7434 
-7458 
-7479 
-7471 
-7462 
-7415 
-7494 
-7473 
-7397 
-7442 
-7545 
-7469 
-7424 
-7440 
-7498 
-7516 
-7389 
-7365 
-7491 
-7523 
-7430 
-7345 
-7446 
-7558 
-7472 
-7371 
-7451 
-7486 
-7436 
-7408 
-7409 
-7463 
-7406 
-7368 
-7388 
-7405 
-7384 
-7315 
-7328 
-7426 
-7510 
-7402 
-7400 
-7491 
-7543 
-7494 
-7501 
-7525 
-7543 
-7505 
-7494 
-7532 
-7608 
-7588 
-7505 
-7544 
-7574 
-7544 
-7468 
-7476 
-7578 
-7600 
-7549 
-7497 
-7572 
-7608 
-7495 
-7452 
-7567 
-7566 
-7434 
-7284 
-7214 
-7262 
-7374 
-7540 
-7688 
-7869 
-7966 
-7941 
-7862 
-7842 
-7745 
-7701 
-7680 
-7677 
-7627 
-7492 
-7504 
-7605 
-7642 
-7563 
-7511 
-7582 
-7640 
-7550 
-7520 
-7564 
-7578 
-7513 
-7487 
-7553 
-7598 
-7582 
-7533 
-7568 
-7581 
-7549 
-7530 
-7525 
-7595 
-7604 
-7464 
-7560 
-7599 
-7656 
-7651 
-7623 
-7628 
-7667 
-7650 
-7611 
-7667 
-7730 
-7677 
-7641 
-7637 
-7682 
-7673 
-7614 
-7598 
-7670 
-7709 
-7621 
-7558 
-7630 
-7717 
-7667 
-7614 
-7647 
-7712 
-7649 
-7627 
-7657 
-7711 
-7695 
-7595 
-7684 
-7792 
-7712 
-7620 
-7597 
-7687 
-7714 
-7620 
-7611 
-7733 
-7733 
-7658 
-7637 
-7689 
-7736 
-7710 
-7647 
-7732 
-7796 
-7666 
-7573 
-7615 
-7766 
-7705 
-7598 
-7596 
-7686 
-7697 
-7587 
-7576 
-7640 
-7634 
-7577 
-7610 
-7736 
-7804 
-7677 
-7655 
-7745 
-7749 
-7695 
-7636 
-7719 
-7789 
-7721 
-7671 
-7720 
-7767 
-7758 
-7660 
-7680 
-7764 
-7762 
-7701 
-7685 
-7798 
-7780 
-7703 
-7655 
-7732 
-7718 
-7584 
-7434 
-7405 
-7459 
-7549 
-7660 
-7769 
-7951 
-8149 
-8131 
-8052 
-8049 
-7960 
-7858 
-7749 
-7805 
-7846 
-7716 
-7697 
-7751 
-7723 
-7660 
-7634 
-7713 
-7678 
-7579 
-7612 
-7657 
-7660 
-7604 
-7604 
-7670 
-7722 
-7669 
-7568 
-7601 
-7643 
-7569 
-7491 
-7532 
-7615 
-7568 
-7572 
-7590 
-7619 
-7602 
-7487 
-7517 
-7598 
-7595 
-7476 
-7427 
-7506 
-7534 
-7453 
-7429 
-7531 
-7613 
-7558 
-7503 
-7599 
-7707 
-7696 
-7677 
-7679 
-7764 
-7751 
-7679 
-7672 
-7771 
-7754 
-7661 
-7673 
-7716 
-7712 
-7664 
-7687 
-7785 
-7733 
-7703 
-7703 
-7769 
-7787 
-7737 
-7660 
-7695 
-7772 
-7746 
-7700 
-7684 
-7743 
-7723 
-7688 
-7723 
-7768 
-7716 
-7653 
-7695 
-7760 
-7767 
-7681 
-7690 
-7697 
-7741 
-7766 
-7747 
-7747 
-7765 
-7687 
-7657 
-7717 
-7788 
-7736 
-7700 
-7706 
-7746 
-7747 
-7725 
-7719 
-7791 
-7808 
-7732 
-7743 
-7743 
-7772 
-7722 
-7664 
-7763 
-7779 
-7725 
-7630 
-7664 
-7738 
-7684 
-7691 
-7751 
-7758 
-7710 
-7701 
-7747 
-7747 
-7704 
-7634 
-7668 
-7736 
-7728 
-7658 
-7623 
-7649 
-7629 
-7595 
-7653 
-7692 
-7712 
-7680 
-7671 
-7676 
-7740 
-7740 
-7703 
-7751 
-7802 
-7745 
-7689 
-7691 
-7797 
-7810 
-7717 
-7687 
-7769 
-7790 
-7692 
-7694 
-7783 
-7737 
-7644 
-7666 
-7742 
-7741 
-7694 
-7675 
-7722 
-7682 
-7505 
-7354 
-7296 
-7519 
-7700 
-7742 
-7875 
-8040 
-8063 
-7963 
-7890 
-7918 
-7814 
-7724 
-7714 
-7754 
-7727 
-7664 
-7643 
-7707 
-7741 
-7645 
-7592 
-7601 
-7634 
-7638 
-7604 
-7630 
-7671 
-7658 
-7612 
-7633 
-7701 
-7664 
-7571 
-7595 
-7647 
-7603 
-7567 
-7546 
-7628 
-7617 
-7543 
-7537 
-7573 
-7639 
-7604 
-7529 
-7514 
-7573 
-7535 
-7497 
-7509 
-7559 
-7536 
-7467 
-7454 
-7531 
-7471 
-7358 
-7345 
-7436 
-7451 
-7422 
-7385 
-7427 
-7471 
-7384 
-7322 
-7435 
-7483 
-7431 
-7422 
-7484 
-7518 
-7540 
-7523 
-7586 
-7583 
-7578 
-7560 
-7597 
-7658 
-7645 
-7610 
-7660 
-7722 
-7663 
-7571 
-7564 
-7654 
-7664 
-7570 
-7605 
-7700 
-7717 
-7624 
-7574 
-7619 
-7702 
-7579 
-7538 
-7603 
-7654 
-7603 
-7573 
-7582 
-7662 
-7680 
-7609 
-7624 
-7674 
-7684 
-7595 
-7574 
-7597 
-7631 
-7628 
-7612 
-7636 
-7670 
-7616 
-7583 
-7591 
-7669 
-7640 
-7628 
-7676 
-7669 
-7625 
-7565 
-7614 
-7651 
-7680 
-7656 
-7639 
-7648 
-7628 
-7582 
-7568 
-7659 
-7665 
-7597 
-7553 
-7578 
-7615 
-7576 
-7604 
-7622 
-7660 
-7669 
-7579 
-7535 
-7575 
-7530 
-7462 
-7475 
-7575 
-7546 
-7541 
-7589 
-7617 
-7634 
-7559 
-7559 
-7652 
-7640 
-7602 
-7555 
-7587 
-7641 
-7575 
-7580 
-7632 
-7660 
-7604 
-7600 
-7605 
-7647 
-7659 
-7572 
-7556 
-7650 
-7632 
-7549 
-7565 
-7650 
-7673 
-7612 
-7510 
-7452 
-7400 
-7325 
-7448 
-7631 
-7742 
-7812 
-7899 
-7931 
-7984 
-7858 
-7738 
-7750 
-7758 
-7649 
-7599 
-7612 
-7699 
-7691 
-7619 
-7532 
-7595 
-7609 
-7575 
-7541 
-7593 
-7596 
-7541 
-7571 
-7644 
-7621 
-7575 
-7586 
-7584 
-7639 
-7597 
-7594 
-7609 
-7646 
-7539 
-7488 
-7524 
-7613 
-7586 
-7488 
-7474 
-7552 
-7568 
-7497 
-7476 
-7541 
-7568 
-7520 
-7500 
-7524 
-7565 
-7475 
-7409 
-7473 
-7556 
-7512 
-7444 
-7426 
-7438 
-7435 
-7382 
-7415 
-7505 
-7498 
-7443 
-7495 
-7531 
-7533 
-7489 
-7544 
-7612 
-7642 
-7610 
-7570 
-7724 
-7827 
-7770 
-7701 
-7702 
-7764 
-7748 
-7698 
-7746 
-7829 
-7764 
-7715 
-7780 
-7846 
-7798 
-7765 
-7824 
-7862 
-7825 
-7755 
-7690 
-7773 
-7840 
-7791 
-7756 
-7807 
-7856 
-7808 
-7765 
-7847 
-7831 
-7777 
-7756 
-7743 
-7816 
-7839 
-7831 
-7879 
-7930 
-7892 
-7799 
-7831 
-7942 
-7939 
-7886 
-7850 
-7897 
-7929 
-7900 
-7883 
-7979 
-8016 
-7952 
-7881 
-7932 
-8018 
-7965 
-7906 
-7940 
-8072 
-8014 
-7918 
-7941 
-8028 
-8033 
-8019 
-7994 
-8049 
-8113 
-8070 
-8006 
-8056 
-8082 
-8062 
-8048 
-8074 
-8135 
-8068 
-7931 
-8080 
-8134 
-8137 
-8077 
-8095 
-8165 
-8151 
-8065 
-8099 
-8206 
-8212 
-8087 
-8062 
-8125 
-8193 
-8138 
-8130 
-8174 
-8213 
-8162 
-8094 
-8145 
-8200 
-8120 
-8045 
-8091 
-8181 
-8164 
-8103 
-8116 
-8164 
-8255 
-8253 
-8224 
-8261 
-8263 
-8243 
-8212 
-8295 
-8332 
-8261 
-8254 
-8310 
-8416 
-8327 
-8278 
-8307 
-8329 
-8298 
-8310 
-8306 
-8326 
-8342 
-8273 
-8252 
-8374 
-8391 
-8282 
-8231 
-8181 
-8097 
-7999 
-8088 
-8377 
-8513 
-8522 
-8611 
-8762 
-8828 
-8700 
-8555 
-8549 
-8548 
-8471 
-8378 
-8424 
-8514 
-8476 
-8435 
-8412 
-8477 
-8424 
-8398 
-8426 
-8519 
-8500 
-8426 
-8409 
-8452 
-8457 
-8460 
-8433 
-8489 
-8513 
-8478 
-8453 
-8504 
-8543 
-8451 
-8393 
-8408 
-8445 
-8461 
-8426 
-8435 
-8505 
-8504 
-8403 
-8375 
-8433 
-8466 
-8435 
-8398 
-8420 
-8502 
-8407 
-8343 
-8404 
-8426 
-8404 
-8362 
-8428 
-8434 
-8387 
-8324 
-8330 
-8433 
-8362 
-8339 
-8370 
-8427 
-8467 
-8453 
-8471 
-8494 
-8539 
-8547 
-8535 
-8594 
-8672 
-8626 
-8571 
-8657 
-8784 
-8654 
-8607 
-8629 
-8681 
-8595 
-8559 
-8650 
-8710 
-8674 
-8664 
-8683 
-8702 
-8671 
-8675 
-8668 
-8722 
-8739 
-8686 
-8635 
-8635 
-8692 
-8690 
-8604 
-8651 
-8696 
-8684 
-8636 
-8645 
-8713 
-8641 
-8571 
-8671 
-8727 
-8674 
-8597 
-8675 
-8722 
-8697 
-8591 
-8556 
-8647 
-8607 
-8604 
-8591 
-8654 
-8681 
-8619 
-8587 
-8634 
-8644 
-8572 
-8547 
-8577 
-8632 
-8569 
-8498 
-8573 
-8621 
-8565 
-8506 
-8492 
-8548 
-8596 
-8561 
-8550 
-8623 
-8605 
-8520 
-8489 
-8581 
-8583 
-8510 
-8454 
-8484 
-8592 
-8527 
-8451 
-8507 
-8584 
-8558 
-8513 
-8564 
-8630 
-8552 
-8458 
-8547 
-8600 
-8547 
-8498 
-8515 
-8524 
-8523 
-8485 
-8487 
-8533 
-8500 
-8475 
-8442 
-8410 
-8477 
-8458 
-8389 
-8426 
-8459 
-8404 
-8305 
-8310 
-8396 
-8328 
-8293 
-8281 
-8359 
-8363 
-8304 
-8366 
-8415 
-8421 
-8364 
-8305 
-8323 
-8338 
-8321 
-8311 
-8348 
-8371 
-8314 
-8322 
-8314 
-8367 
-8334 
-8271 
-8254 
-8342 
-8334 
-8257 
-8239 
-8289 
-8321 
-8283 
-8195 
-8228 
-8210 
-8039 
-7910 
-7895 
-8055 
-8150 
-8201 
-8394 
-8598 
-8622 
-8464 
-8394 
-8375 
-8357 
-8270 
-8206 
-8217 
-8203 
-8101 
-8083 
-8114 
-8170 
-8096 
-8052 
-8110 
-8111 
-8059 
-8028 
-8093 
-8155 
-8087 
-8064 
-8088 
-8119 
-8058 
-8027 
-8022 
-8035 
-8060 
-8003 
-8014 
-8032 
-8035 
-7936 
-7883 
-7975 
-7997 
-7947 
-7922 
-7938 
-7941 
-7811 
-7852 
-8027 
-7988 
-7859 
-7811 
-7851 
-7874 
-7819 
-7783 
-7829 
-7837 
-7779 
-7681 
-7704 
-7741 
-7772 
-7732 
-7760 
-7838 
-7823 
-7720 
-7686 
-7808 
-7826 
-7792 
-7806 
-7858 
-7897 
-7855 
-7840 
-7882 
-7933 
-7928 
-7880 
-7938 
-8025 
-7982 
-7855 
-7839 
-7935 
-7955 
-7883 
-7859 
-7936 
-7915 
-7848 
-7834 
-7898 
-7948 
-7896 
-7851 
-7903 
-7921 
-7882 
-7803 
-7814 
-7882 
-7879 
-7838 
-7862 
-7922 
-7881 
-7823 
-7828 
-7899 
-7883 
-7841 
-7833 
-7887 
-7882 
-7822 
-7763 
-7825 
-7872 
-7856 
-7809 
-7860 
-7833 
-7769 
-7754 
-7798 
-7887 
-7810 
-7766 
-7840 
-7894 
-7790 
-7733 
-7745 
-7816 
-7856 
-7775 
-7781 
-7792 
-7773 
-7798 
-7789 
-7817 
-7834 
-7784 
-7725 
-7760 
-7815 
-7808 
-7763 
-7765 
-7800 
-7816 
-7776 
-7763 
-7746 
-7754 
-7722 
-7752 
-7752 
-7745 
-7717 
-7679 
-7768 
-7794 
-7681 
-7622 
-7688 
-7761 
-7685 
-7683 
-7770 
-7798 
-7762 
-7745 
-7755 
-7864 
-7856 
-7772 
-7783 
-7865 
-7841 
-7739 
-7770 
-7845 
-7880 
-7837 
-7796 
-7814 
-7851 
-7800 
-7778 
-7819 
-7861 
-7815 
-7741 
-7780 
-7836 
-7789 
-7737 
-7704 
-7585 
-7442 
-7410 
-7623 
-7882 
-7964 
-8071 
-8191 
-8243 
-8155 
-7992 
-7906 
-7937 
-7891 
-7822 
-7742 
-7815 
-7887 
-7824 
-7695 
-7687 
-7777 
-7780 
-7715 
-7733 
-7814 
-7769 
-7738 
-7782 
-7851 
-7798 
-7704 
-7740 
-7806 
-7810 
-7778 
-7763 
-7789 
-7801 
-7727 
-7670 
-7654 
-7721 
-7679 
-7613 
-7659 
-7757 
-7731 
-7656 
-7685 
-7773 
-7729 
-7622 
-7657 
-7735 
-7731 
-7654 
-7582 
-7651 
-7644 
-7579 
-7560 
-7604 
-7626 
-7545 
-7489 
-7544 
-7615 
-7583 
-7512 
-7530 
-7593 
-7614 
-7598 
-7652 
-7708 
-7743 
-7680 
-7685 
-7779 
-7779 
-7778 
-7772 
-7805 
-7793 
-7724 
-7739 
-7800 
-7808 
-7761 
-7740 
-7765 
-7789 
-7798 
-7785 
-7776 
-7806 
-7849 
-7750 
-7755 
-7820 
-7854 
-7765 
-7760 
-7813 
-7801 
-7782 
-7764 
-7792 
-7814 
-7783 
-7784 
-7804 
-7845 
-7780 
-7736 
-7801 
-7835 
-7802 
-7734 
-7808 
-7862 
-7821 
-7799 
-7862 
-7937 
-7875 
-7801 
-7840 
-7937 
-7893 
-7819 
-7783 
-7875 
-7888 
-7834 
-7834 
-7929 
-7943 
-7827 
-7758 
-7871 
-7950 
-7905 
-7875 
-7897 
-7964 
-7905 
-7804 
-7860 
-7932 
-7927 
-7887 
-7874 
-7920 
-7926 
-7872 
-7828 
-7939 
-7968 
-7854 
-7796 
-7930 
-7966 
-7895 
-7870 
-7927 
-7991 
-7895 
-7787 
-7849 
-7918 
-7868 
-7791 
-7773 
-7842 
-7886 
-7814 
-7810 
-7867 
-7883 
-7841 
-7891 
-7962 
-8009 
-7944 
-7945 
-7975 
-8001 
-7962 
-7896 
-7953 
-8016 
-7929 
-7890 
-7922 
-8025 
-7979 
-7920 
-7939 
-7992 
-7952 
-7914 
-7901 
-8002 
-8027 
-7944 
-7927 
-7912 
-7819 
-7639 
-7599 
-7818 
-8022 
-8070 
-8203 
-8370 
-8398 
-8334 
-8150 
-8102 
-8097 
-8041 
-7959 
-7973 
-7981 
-7931 
-7877 
-7853 
-7967 
-8031 
-7922 
-7854 
-7920 
-7925 
-7908 
-7873 
-7906 
-7970 
-7937 
-7828 
-7859 
-7987 
-7988 
-7865 
-7924 
-7963 
-7882 
-7843 
-7849 
-7925 
-7901 
-7847 
-7815 
-7800 
-7857 
-7821 
-7788 
-7838 
-7888 
-7850 
-7818 
-7887 
-7902 
-7769 
-7732 
-7807 
-7847 
-7792 
-7699 
-7741 
-7790 
-7740 
-7677 
-7679 
-7698 
-7698 
-7690 
-7669 
-7771 
-7815 
-7806 
-7768 
-7840 
-7900 
-7842 
-7849 
-7889 
-7916 
-7913 
-7865 
-7895 
-7978 
-7960 
-7901 
-7861 
-7899 
-7895 
-7866 
-7900 
-7964 
-7938 
-7865 
-7888 
-7978 
-7978 
-7897 
-7865 
-7960 
-7988 
-7885 
-7848 
-7902 
-7925 
-7933 
-7845 
-7846 
-7900 
-7905 
-7907 
-7945 
-7977 
-7954 
-7906 
-7885 
-7959 
-7991 
-7875 
-7851 
-7955 
-7963 
-7904 
-7882 
-7938 
-7946 
-7872 
-7885 
-7914 
-7943 
-7972 
-7908 
-7936 
-8008 
-7949 
-7922 
-7897 
-7957 
-7930 
-7904 
-7885 
-7958 
-7949 
-7900 
-7877 
-7940 
-8021 
-7925 
-7860 
-7932 
-7964 
-7888 
-7837 
-7844 
-7887 
-7890 
-7851 
-7889 
-7963 
-7902 
-7836 
-7843 
-7868 
-7858 
-7829 
-7873 
-7915 
-7933 
-7809 
-7800 
-7903 
-7934 
-7820 
-7772 
-7843 
-7863 
-7825 
-7770 
-7811 
-7851 
-7828 
-7728 
-7721 
-7842 
-7799 
-7743 
-7760 
-7852 
-7890 
-7835 
-7815 
-7851 
-7913 
-7863 
-7842 
-7900 
-7956 
-7916 
-7846 
-7846 
-7932 
-7916 
-7836 
-7863 
-7907 
-8008 
-7912 
-7877 
-7917 
-7890 
-7854 
-7853 
-7902 
-7894 
-7794 
-7676 
-7596 
-7611 
-7604 
-7753 
-8030 
-8186 
-8284 
-8300 
-8229 
-8141 
-8046 
-7989 
-7980 
-8052 
-7961 
-7874 
-7878 
-7921 
-7882 
-7800 
-7825 
-7927 
-7870 
-7785 
-7870 
-7878 
-7925 
-7895 
-7809 
-7839 
-7885 
-7863 
-7834 
-7865 
-7938 
-7869 
-7776 
-7810 
-7864 
-7837 
-7789 
-7778 
-7827 
-7764 
-7703 
-7755 
-7834 
-7849 
-7803 
-7693 
-7738 
-7828 
-7735 
-7695 
-7722 
-7708 
-7677 
-7657 
-7693 
-7686 
-7664 
-7621 
-7637 
-7703 
-7668 
-7598 
-7618 
-7699 
-7640 
-7615 
-7605 
-7704 
-7780 
-7701 
-7687 
-7789 
-7810 
-7754 
-7751 
-7797 
-7911 
-7892 
-7844 
-7915 
-7912 
-7863 
-7867 
-7869 
-7878 
-7839 
-7812 
-7820 
-7890 
-7866 
-7838 
-7808 
-7875 
-7889 
-7796 
-7805 
-7924 
-7909 
-7833 
-7795 
-7860 
-7896 
-7854 
-7811 
-7851 
-7921 
-7842 
-7814 
-7806 
-7853 
-7868 
-7863 
-7822 
-7846 
-7836 
-7843 
-7807 
-7877 
-7862 
-7828 
-7829 
-7955 
-7952 
-7845 
-7833 
-7872 
-7895 
-7857 
-7818 
-7867 
-7923 
-7851 
-7790 
-7815 
-7881 
-7926 
-7844 
-7776 
-7834 
-7869 
-7838 
-7838 
-7885 
-7899 
-7845 
-7821 
-7909 
-7890 
-7841 
-7784 
-7806 
-7915 
-7805 
-7746 
-7817 
-7871 
-7845 
-7762 
-7774 
-7814 
-7738 
-7693 
-7731 
-7791 
-7781 
-7759 
-7790 
-7864 
-7898 
-7855 
-7816 
-7861 
-7880 
-7828 
-7769 
-7901 
-7966 
-7911 
-7811 
-7824 
-7913 
-7921 
-7874 
-7805 
-7863 
-7884 
-7802 
-7792 
-7855 
-7853 
-7811 
-7789 
-7854 
-7839 
-7618 
-7421 
-7497 
-7795 
-7908 
-7899 
-8106 
-8313 
-8272 
-8111 
-8029 
-8047 
-7996 
-7881 
-7901 
-7893 
-7849 
-7793 
-7781 
-7855 
-7785 
-7736 
-7768 
-7850 
-7837 
-7750 
-7725 
-7787 
-7842 
-7818 
-7785 
-7811 
-7848 
-7776 
-7695 
-7742 
-7876 
-7813 
-7696 
-7671 
-7796 
-7769 
-7659 
-7688 
-7752 
-7714 
-7717 
-7660 
-7718 
-7759 
-7682 
-7641 
-7654 
-7700 
-7684 
-7626 
-7646 
-7669 
-7605 
-7572 
-7553 
-7618 
-7577 
-7535 
-7555 
-7602 
-7563 
-7527 
-7524 
-7604 
-7653 
-7591 
-7621 
-7709 
-7771 
-7748 
-7709 
-7707 
-7787 
-7771 
-7698 
-7775 
-7885 
-7816 
-7724 
-7759 
-7876 
-7843 
-7790 
-7788 
-7824 
-7806 
-7738 
-7776 
-7857 
-7864 
-7777 
-7762 
-7869 
-7884 
-7768 
-7736 
-7763 
-7797 
-7756 
-7674 
-7718 
-7795 
-7793 
-7739 
-7755 
-7821 
-7796 
-7718 
-7749 
-7821 
-7802 
-7745 
-7736 
-7821 
-7856 
-7792 
-7726 
-7794 
-7777 
-7751 
-7759 
-7846 
-7850 
-7772 
-7708 
-7738 
-7802 
-7814 
-7672 
-7712 
-7823 
-7837 
-7755 
-7733 
-7770 
-7790 
-7750 
-7747 
-7855 
-7831 
-7760 
-7697 
-7721 
-7793 
-7757 
-7717 
-7719 
-7789 
-7749 
-7679 
-7672 
-7713 
-7663 
-7618 
-7649 
-7706 
-7649 
-7680 
-7743 
-7756 
-7841 
-7760 
-7680 
-7746 
-7855 
-7787 
-7738 
-7748 
-7797 
-7747 
-7692 
-7683 
-7801 
-7803 
-7766 
-7717 
-7775 
-7794 
-7716 
-7740 
-7780 
-7766 
-7729 
-7741 
-7794 
-7746 
-7605 
-7457 
-7443 
-7527 
-7658 
-7785 
-7923 
-8119 
-8156 
-8073 
-7969 
-7939 
-7874 
-7794 
-7805 
-7818 
-7780 
-7682 
-7633 
-7782 
-7771 
-7695 
-7693 
-7776 
-7777 
-7697 
-7693 
-7736 
-7725 
-7647 
-7668 
-7693 
-7729 
-7703 
-7637 
-7661 
-7798 
-7762 
-7709 
-7695 
-7731 
-7679 
-7567 
-7602 
-7656 
-7600 
-7549 
-7580 
-7580 
-7606 
-7583 
-7593 
-7642 
-7640 
-7597 
-7599 
-7598 
-7602 
-7552 
-7534 
-7535 
-7550 
-7538 
-7436 
-7429 
-7507 
-7480 
-7402 
-7443 
-7572 
-7551 
-7483 
-7467 
-7572 
-7631 
-7584 
-7584 
-7685 
-7747 
-7722 
-7643 
-7660 
-7791 
-7709 
-7665 
-7694 
-7729 
-7736 
-7686 
-7696 
-7761 
-7741 
-7663 
-7641 
-7746 
-7797 
-7741 
-7664 
-7701 
-7724 
-7648 
-7573 
-7669 
-7755 
-7703 
-7591 
-7616 
-7733 
-7682 
-7627 
-7635 
-7704 
-7704 
-7661 
-7657 
-7748 
-7718 
-7655 
-7613 
-7698 
-7695 
-7613 
-7604 
-7777 
-7756 
-7662 
-7624 
-7668 
-7713 
-7677 
-7626 
-7688 
-7727 
-7696 
-7608 
-7669 
-7691 
-7703 
-7642 
-7631 
-7646 
-7656 
-7561 
-7543 
-7697 
-7739 
-7636 
-7538 
-7584 
-7584 
-7507 
-7533 
-7611 
-7686 
-7617 
-7558 
-7641 
-7662 
-7629 
-7584 
-7611 
-7692 
-7676 
-7627 
-7649 
-7699 
-7661 
-7588 
-7615 
-7682 
-7695 
-7623 
-7584 
-7628 
-7715 
-7649 
-7635 
-7672 
-7676 
-7622 
-7594 
-7614 
-7608 
-7392 
-7249 
-7304 
-7575 
-7765 
-7688 
-7802 
-8030 
-8064 
-7911 
-7787 
-7795 
-7759 
-7734 
-7662 
-7646 
-7667 
-7575 
-7559 
-7617 
-7645 
-7593 
-7537 
-7550 
-7627 
-7560 
-7499 
-7547 
-7654 
-7640 
-7570 
-7543 
-7619 
-7625 
-7534 
-7526 
-7611 
-7663 
-7562 
-7469 
-7493 
-7571 
-7487 
-7405 
-7474 
-7502 
-7463 
-7393 
-7437 
-7564 
-7508 
-7414 
-7420 
-7541 
-7537 
-7507 
-7455 
-7492 
-7502 
-7419 
-7413 
-7464 
-7413 
-7372 
-7371 
-7406 
-7395 
-7303 
-7257 
-7296 
-7427 
-7417 
-7352 
-7401 
-7522 
-7538 
-7499 
-7462 
-7554 
-7616 
-7601 
-7569 
-7618 
-7657 
-7562 
-7521 
-7561 
-7647 
-7624 
-7501 
-7482 
-7552 
-7535 
-7446 
-7523 
-7607 
-7554 
-7538 
-7582 
-7588 
-7559 
-7532 
-7558 
-7578 
-7583 
-7455 
-7453 
-7560 
-7568 
-7491 
-7464 
-7565 
-7640 
-7532 
-7457 
-7535 
-7570 
-7506 
-7430 
-7532 
-7581 
-7562 
-7498 
-7528 
-7596 
-7569 
-7523 
-7522 
-7603 
-7616 
-7555 
-7433 
-7500 
-7572 
-7463 
-7437 
-7534 
-7509 
-7477 
-7471 
-7504 
-7505 
-7481 
-7348 
-7412 
-7537 
-7500 
-7421 
-7460 
-7562 
-7550 
-7553 
-7506 
-7515 
-7533 
-7465 
-7465 
-7552 
-7556 
-7529 
-7497 
-7551 
-7565 
-7486 
-7452 
-7508 
-7586 
-7537 
-7514 
-7572 
-7591 
-7572 
-7498 
-7472 
-7560 
-7540 
-7404 
-7373 
-7344 
-7226 
-7186 
-7367 
-7585 
-7705 
-7772 
-7856 
-7875 
-7781 
-7680 
-7612 
-7591 
-7636 
-7597 
-7497 
-7463 
-7545 
-7527 
-7471 
-7452 
-7474 
-7439 
-7420 
-7473 
-7542 
-7567 
-7451 
-7418 
-7509 
-7540 
-7470 
-7440 
-7525 
-7548 
-7470 
-7447 
-7472 
-7462 
-7401 
-7359 
-7429 
-7475 
-7387 
-7291 
-7306 
-7410 
-7382 
-7289 
-7266 
-7331 
-7395 
-7347 
-7382 
-7397 
-7361 
-7276 
-7292 
-7341 
-7332 
-7199 
-7156 
-7231 
-7280 
-7246 
-7203 
-7252 
-7250 
-7213 
-7200 
-7219 
-7286 
-7291 
-7264 
-7294 
-7390 
-7438 
-7372 
-7303 
-7425 
-7545 
-7512 
-7412 
-7427 
-7497 
-7452 
-7410 
-7487 
-7499 
-7465 
-7392 
-7427 
-7495 
-7449 
-7383 
-7381 
-7418 
-7420 
-7378 
-7364 
-7429 
-7443 
-7424 
-7400 
-7474 
-7534 
-7436 
-7399 
-7459 
-7510 
-7425 
-7332 
-7381 
-7413 
-7389 
-7325 
-7355 
-7443 
-7418 
-7396 
-7401 
-7443 
-7428 
-7363 
-7378 
-7411 
-7414 
-7338 
-7313 
-7361 
-7335 
-7254 
-7223 
-7324 
-7377 
-7350 
-7309 
-7336 
-7399 
-7393 
-7359 
-7355 
-7465 
-7475 
-7327 
-7358 
-7456 
-7472 
-7405 
-7340 
-7471 
-7530 
-7406 
-7317 
-7456 
-7519 
-7397 
-7323 
-7361 
-7473 
-7434 
-7322 
-7365 
-7426 
-7333 
-7166 
-7107 
-7104 
-7181 
-7267 
-7399 
-7657 
-7829 
-7781 
-7668 
-7626 
-7592 
-7517 
-7475 
-7464 
-7426 
-7381 
-7333 
-7344 
-7448 
-7383 
-7332 
-7341 
-7420 
-7439 
-7322 
-7303 
-7369 
-7344 
-7322 
-7306 
-7390 
-7386 
-7315 
-7315 
-7354 
-7397 
-7322 
-7259 
-7324 
-7372 
-7316 
-7214 
-7248 
-7308 
-7244 
-7213 
-7233 
-7262 
-7251 
-7216 
-7244 
-7323 
-7274 
-7193 
-7172 
-7193 
-7181 
-7123 
-7120 
-7221 
-7186 
-7127 
-7043 
-7100 
-7144 
-7111 
-7102 
-7109 
-7197 
-7180 
-7142 
-7197 
-7288 
-7236 
-7172 
-7243 
-7362 
-7350 
-7325 
-7270 
-7348 
-7377 
-7337 
-7315 
-7331 
-7406 
-7339 
-7303 
-7363 
-7424 
-7335 
-7254 
-7324 
-7411 
-7353 
-7310 
-7360 
-7383 
-7363 
-7297 
-7273 
-7355 
-7325 
-7268 
-7248 
-7353 
-7352 
-7343 
-7311 
-7351 
-7383 
-7324 
-7303 
-7345 
-7409 
-7323 
-7331 
-7324 
-7346 
-7337 
-7299 
-7345 
-7390 
-7386 
-7256 
-7254 
-7351 
-7359 
-7262 
-7251 
-7291 
-7309 
-7221 
-7154 
-7246 
-7305 
-7294 
-7261 
-7353 
-7402 
-7336 
-7272 
-7315 
-7387 
-7345 
-7311 
-7290 
-7392 
-7348 
-7289 
-7304 
-7362 
-7410 
-7354 
-7282 
-7342 
-7367 
-7345 
-7318 
-7295 
-7388 
-7367 
-7302 
-7347 
-7407 
-7318 
-7214 
-7135 
-7075 
-7006 
-7003 
-7187 
-7468 
-7566 
-7614 
-7703 
-7667 
-7567 
-7426 
-7382 
-7450 
-7426 
-7328 
-7264 
-7361 
-7395 
-7349 
-7261 
-7301 
-7378 
-7286 
-7215 
-7309 
-7321 
-7243 
-7167 
-7143 
-7255 
-7326 
-7260 
-7235 
-7317 
-7339 
-7288 
-7281 
-7293 
-7317 
-7205 
-7128 
-7165 
-7245 
-7250 
-7136 
-7138 
-7208 
-7204 
-7098 
-7117 
-7222 
-7210 
-7150 
-7121 
-7201 
-7180 
-7060 
-6991 
-7082 
-7110 
-7044 
-6995 
-7132 
-7163 
-7045 
-7034 
-7057 
-7137 
-7110 
-7033 
-7073 
-7190 
-7233 
-7071 
-7097 
-7231 
-7269 
-7214 
-7206 
-7265 
-7261 
-7200 
-7207 
-7247 
-7296 
-7247 
-7218 
-7305 
-7367 
-7295 
-7206 
-7236 
-7296 
-7213 
-7131 
-7159 
-7290 
-7282 
-7186 
-7159 
-7241 
-7263 
-7208 
-7217 
-7263 
-7266 
-7222 
-7191 
-7241 
-7291 
-7241 
-7171 
-7230 
-7227 
-7207 
-7136 
-7194 
-7288 
-7238 
-7161 
-7205 
-7296 
-7259 
-7200 
-7174 
-7269 
-7281 
-7188 
-7176 
-7285 
-7339 
-7253 
-7168 
-7210 
-7212 
-7185 
-7157 
-7234 
-7253 
-7197 
-7121 
-7153 
-7210 
-7210 
-7156 
-7205 
-7258 
-7151 
-7038 
-7040 
-7117 
-7213 
-7166 
-7095 
-7197 
-7272 
-7214 
-7148 
-7197 
-7220 
-7210 
-7183 
-7206 
-7259 
-7195 
-7145 
-7201 
-7297 
-7205 
-7150 
-7195 
-7242 
-7217 
-7180 
-7150 
-7211 
-7201 
-7145 
-7164 
-7222 
-7274 
-7170 
-7118 
-7094 
-7013 
-6852 
-6794 
-7059 
-7306 
-7347 
-7456 
-7569 
-7628 
-7455 
-7292 
-7256 
-7361 
-7367 
-7243 
-7188 
-7211 
-7234 
-7155 
-7083 
-7159 
-7255 
-7125 
-7093 
-7130 
-7145 
-7146 
-7128 
-7134 
-7146 
-7147 
-7115 
-7130 
-7184 
-7118 
-7054 
-7087 
-7196 
-7118 
-7055 
-7050 
-7115 
-7071 
-7010 
-7029 
-7099 
-7102 
-7075 
-6976 
-7033 
-7124 
-7101 
-6998 
-7014 
-7101 
-7007 
-6927 
-6962 
-7036 
-6992 
-6869 
-6861 
-6936 
-6964 
-6901 
-6877 
-6930 
-6955 
-6941 
-6923 
-7001 
-7017 
-6961 
-6917 
-6974 
-7072 
-7075 
-7080 
-7119 
-7172 
-7166 
-7088 
-7137 
-7210 
-7165 
-7099 
-7092 
-7161 
-7181 
-7105 
-7065 
-7139 
-7123 
-7103 
-7078 
-7106 
-7167 
-7129 
-7111 
-7137 
-7141 
-7116 
-7053 
-7081 
-7174 
-7105 
-7040 
-7051 
-7167 
-7198 
-7009 
-6967 
-7121 
-7198 
-7099 
-7071 
-7138 
-7174 
-7132 
-7073 
-7109 
-7163 
-7077 
-7036 
-7129 
-7178 
-7137 
-7053 
-7104 
-7174 
-7125 
-7050 
-7035 
-7121 
-7110 
-7026 
-6969 
-7062 
-7076 
-7016 
-6981 
-7034 
-7101 
-7069 
-7045 
-7052 
-7131 
-7131 
-7023 
-7071 
-7173 
-7099 
-7017 
-7080 
-7132 
-7111 
-7040 
-7037 
-7069 
-7076 
-7024 
-6995 
-7060 
-7101 
-7007 
-7007 
-7048 
-7097 
-7070 
-7014 
-7033 
-7043 
-6965 
-6860 
-6803 
-6737 
-6757 
-6917 
-7080 
-7228 
-7362 
-7491 
-7412 
-7341 
-7272 
-7170 
-7040 
-7093 
-7090 
-7052 
-6963 
-7010 
-7045 
-6939 
-6928 
-6957 
-6981 
-6972 
-6915 
-6939 
-6999 
-6990 
-6894 
-6941 
-7042 
-7011 
-6905 
-6927 
-7027 
-7004 
-6878 
-6854 
-6934 
-6967 
-6843 
-6741 
-6859 
-6954 
-6870 
-6769 
-6800 
-6867 
-6793 
-6775 
-6811 
-6865 
-6812 
-6740 
-6763 
-6847 
-6831 
-6739 
-6724 
-6750 
-6753 
-6682 
-6659 
-6719 
-6765 
-6721 
-6674 
-6713 
-6774 
-6750 
-6730 
-6797 
-6855 
-6810 
-6732 
-6811 
-6904 
-6902 
-6869 
-6846 
-6846 
-6878 
-6894 
-6925 
-6942 
-6981 
-6900 
-6853 
-6906 
-6908 
-6871 
-6852 
-6932 
-6987 
-6941 
-6878 
-6867 
-6907 
-6909 
-6798 
-6806 
-6886 
-6875 
-6758 
-6817 
-6929 
-6953 
-6868 
-6852 
-6847 
-6882 
-6891 
-6855 
-6897 
-6895 
-6940 
-6887 
-6884 
-6952 
-6922 
-6821 
-6829 
-6891 
-6914 
-6882 
-6870 
-6893 
-6927 
-6870 
-6833 
-6929 
-6944 
-6833 
-6827 
-6938 
-6961 
-6847 
-6832 
-6910 
-6925 
-6845 
-6779 
-6835 
-6926 
-6868 
-6803 
-6820 
-6855 
-6777 
-6750 
-6827 
-6900 
-6874 
-6763 
-6816 
-6964 
-6962 
-6814 
-6855 
-6981 
-6960 
-6860 
-6840 
-6924 
-6927 
-6904 
-6862 
-6908 
-6990 
-6891 
-6821 
-6849 
-6918 
-6875 
-6816 
-6832 
-6900 
-6849 
-6830 
-6832 
-6832 
-6763 
-6574 
-6475 
-6665 
-6814 
-6915 
-6983 
-7175 
-7324 
-7217 
-7095 
-7085 
-7067 
-6975 
-6872 
-6875 
-6941 
-6880 
-6813 
-6784 
-6857 
-6851 
-6793 
-6759 
-6865 
-6851 
-6742 
-6708 
-6863 
-6879 
-6769 
-6737 
-6819 
-6875 
-6826 
-6760 
-6851 
-6892 
-6843 
-6766 
-6738 
-6844 
-6834 
-6720 
-6685 
-6732 
-6726 
-6662 
-6622 
-6693 
-6756 
-6705 
-6730 
-6755 
-6755 
-6729 
-6655 
-6672 
-6740 
-6719 
-6640 
-6629 
-6690 
-6652 
-6590 
-6589 
-6669 
-6662 
-6558 
-6542 
-6674 
-6715 
-6678 
-6665 
-6747 
-6821 
-6832 
-6864 
-6832 
-6738 
-6766 
-6790 
-6768 
-6726 
-6816 
-6874 
-6782 
-6745 
-6829 
-6867 
-6768 
-6592 
-6689 
-6779 
-6755 
-6674 
-6698 
-6815 
-6818 
-6744 
-6750 
-6876 
-6869 
-6733 
-6738 
-6812 
-6856 
-6841 
-6795 
-6850 
-6870 
-6801 
-6746 
-6809 
-6855 
-6789 
-6755 
-6791 
-6866 
-6781 
-6744 
-6771 
-6832 
-6871 
-6781 
-6697 
-6662 
-6585 
-6427 
-6465 
-6725 
-6877 
-6917 
-7052 
-7160 
-7123 
-6997 
-6907 
-6906 
-6956 
-6906 
-6798 
-6753 
-6802 
-6789 
-6771 
-6743 
-6801 
-6745 
-6687 
-6723 
-6811 
-6782 
-6660 
-6626 
-6724 
-6826 
-6715 
-6685 
-6774 
-6789 
-6710 
-6638 
-6696 
-6793 
-6721 
-6627 
-6633 
-6727 
-6685 
-6595 
-6605 
-6697 
-6683 
-6608 
-6588 
-6675 
-6670 
-6573 
-6579 
-6645 
-6693 
-6600 
-6534 
-6592 
-6579 
-6529 
-6486 
-6506 
-6588 
-6521 
-6479 
-6505 
-6564 
-6543 
-6607 
-6701 
-6755 
-6716 
-6661 
-6673 
-6679 
-6643 
-6594 
-6665 
-6768 
-6679 
-6587 
-6603 
-6698 
-6744 
-6698 
-6669 
-6743 
-6723 
-6667 
-6625 
-6718 
-6757 
-6716 
-6627 
-6687 
-6743 
-6673 
-6607 
-6678 
-6742 
-6716 
-6611 
-6676 
-6748 
-6740 
-6649 
-6620 
-6723 
-6728 
-6650 
-6655 
-6721 
-6719 
-6637 
-6605 
-6671 
-6685 
-6628 
-6549 
-6625 
-6661 
-6563 
-6557 
-6619 
-6692 
-6693 
-6633 
-6651 
-6710 
-6705 
-6666 
-6686 
-6733 
-6697 
-6594 
-6594 
-6718 
-6718 
-6653 
-6635 
-6752 
-6774 
-6699 
-6664 
-6706 
-6758 
-6748 
-6716 
-6749 
-6765 
-6685 
-6609 
-6622 
-6651 
-6528 
-6382 
-6313 
-6438 
-6638 
-6730 
-6797 
-7049 
-7176 
-7050 
-6963 
-6879 
-6883 
-6798 
-6726 
-6763 
-6760 
-6675 
-6615 
-6607 
-6694 
-6657 
-6601 
-6642 
-6670 
-6681 
-6621 
-6571 
-6660 
-6707 
-6594 
-6590 
-6717 
-6787 
-6490 
-6584 
-6521 
-6432 
-6414 
-6467 
-6506 
-6443 
-6378 
-6396 
-6411 
-6387 
-6315 
-6398 
-6441 
-6388 
-6352 
-6424 
-6506 
-6463 
-6403 
-6401 
-6524 
-6572 
-6514 
-6546 
-6587 
-6675 
-6651 
-6593 
-6656 
-6695 
-6613 
-6535 
-6604 
-6693 
-6649 
-6589 
-6598 
-6703 
-6691 
-6599 
-6581 
-6675 
-6649 
-6603 
-6595 
-6673 
-6602 
-6556 
-6537 
-6592 
-6635 
-6524 
-6549 
-6638 
-6639 
-6520 
-6509 
-6612 
-6656 
-6604 
-6565 
-6562 
-6587 
-6558 
-6557 
-6583 
-6682 
-6619 
-6576 
-6574 
-6612 
-6592 
-6552 
-6559 
-6633 
-6657 
-6566 
-6534 
-6567 
-6653 
-6623 
-6535 
-6533 
-6613 
-6621 
-6559 
-6582 
-6675 
-6597 
-6508 
-6496 
-6602 
-6640 
-6635 
-6543 
-6596 
-6635 
-6528 
-6548 
-6656 
-6664 
-6584 
-6546 
-6544 
-6634 
-6557 
-6552 
-6557 
-6599 
-6515 
-6489 
-6496 
-6586 
-6590 
-6482 
-6462 
-6508 
-6631 
-6680 
-6605 
-6539 
-6539 
-6664 
-6621 
-6529 
-6536 
-6661 
-6693 
-6578 
-6552 
-6595 
-6560 
-6408 
-6226 
-6275 
-6432 
-6568 
-6676 
-6793 
-7008 
-7022 
-6868 
-6809 
-6827 
-6783 
-6677 
-6597 
-6632 
-6617 
-6541 
-6509 
-6612 
-6609 
-6539 
-6485 
-6589 
-6634 
-6553 
-6534 
-6586 
-6643 
-6502 
-6420 
-6521 
-6632 
-6608 
-6557 
-6592 
-6685 
-6612 
-6494 
-6486 
-6569 
-6543 
-6414 
-6366 
-6422 
-6482 
-6452 
-6446 
-6509 
-6581 
-6471 
-6374 
-6458 
-6516 
-6449 
-6368 
-6417 
-6493 
-6407 
-6298 
-6300 
-6438 
-6390 
-6335 
-6294 
-6367 
-6365 
-6285 
-6292 
-6365 
-6369 
-6306 
-6313 
-6397 
-6475 
-6440 
-6434 
-6495 
-6595 
-6569 
-6497 
-6526 
-6623 
-6609 
-6484 
-6448 
-6532 
-6565 
-6491 
-6497 
-6539 
-6557 
-6489 
-6480 
-6574 
-6637 
-6578 
-6546 
-6561 
-6610 
-6587 
-6558 
-6560 
-6599 
-6576 
-6535 
-6538 
-6584 
-6665 
-6600 
-6520 
-6544 
-6596 
-6549 
-6470 
-6484 
-6550 
-6612 
-6556 
-6514 
-6604 
-6611 
-6479 
-6442 
-6552 
-6619 
-6556 
-6517 
-6538 
-6583 
-6553 
-6477 
-6502 
-6648 
-6628 
-6524 
-6507 
-6599 
-6608 
-6504 
-6498 
-6593 
-6622 
-6508 
-6430 
-6516 
-6528 
-6469 
-6473 
-6537 
-6532 
-6485 
-6453 
-6546 
-6614 
-6538 
-6405 
-6430 
-6534 
-6472 
-6404 
-6450 
-6515 
-6533 
-6474 
-6440 
-6571 
-6581 
-6530 
-6505 
-6572 
-6580 
-6502 
-6534 
-6573 
-6583 
-6572 
-6518 
-6553 
-6597 
-6593 
-6529 
-6555 
-6605 
-6588 
-6513 
-6493 
-6551 
-6585 
-6528 
-6463 
-6454 
-6394 
-6230 
-6191 
-6381 
-6612 
-6660 
-6696 
-6875 
-6984 
-6857 
-6724 
-6682 
-6723 
-6657 
-6537 
-6435 
-6564 
-6568 
-6525 
-6492 
-6563 
-6598 
-6514 
-6495 
-6585 
-6587 
-6491 
-6376 
-6483 
-6615 
-6455 
-6472 
-6431 
-6425 
-6510 
-6542 
-6457 
-6444 
-6560 
-6580 
-6527 
-6451 
-6475 
-6566 
-6499 
-6455 
-6426 
-6488 
-6487 
-6382 
-6430 
-6506 
-6481 
-6430 
-6447 
-6533 
-6540 
-6461 
-6451 
-6520 
-6535 
-6461 
-6429 
-6492 
-6516 
-6448 
-6484 
-6525 
-6605 
-6501 
-6407 
-6478 
-6563 
-6494 
-6414 
-6438 
-6484 
-6485 
-6433 
-6409 
-6529 
-6541 
-6495 
-6469 
-6457 
-6498 
-6491 
-6470 
-6447 
-6477 
-6419 
-6369 
-6472 
-6549 
-6490 
-6401 
-6388 
-6391 
-6433 
-6411 
-6339 
-6436 
-6486 
-6423 
-6394 
-6468 
-6520 
-6444 
-6432 
-6498 
-6518 
-6414 
-6438 
-6510 
-6548 
-6505 
-6417 
-6478 
-6538 
-6517 
-6460 
-6460 
-6516 
-6509 
-6436 
-6505 
-6518 
-6477 
-6448 
-6464 
-6514 
-6453 
-6249 
-6066 
-6175 
-6373 
-6469 
-6505 
-6649 
-6886 
-6886 
-6754 
-6669 
-6646 
-6625 
-6543 
-6487 
-6499 
-6466 
-6393 
-6421 
-6515 
-6509 
-6451 
-6407 
-6469 
-6470 
-6425 
-6389 
-6432 
-6478 
-6429 
-6363 
-6412 
-6459 
-6458 
-6407 
-6441 
-6532 
-6492 
-6411 
-6372 
-6418 
-6459 
-6367 
-6339 
-6443 
-6402 
-6290 
-6273 
-6385 
-6397 
-6332 
-6269 
-6328 
-6362 
-6312 
-6308 
-6351 
-6355 
-6302 
-6221 
-6215 
-6307 
-6261 
-6158 
-6174 
-6242 
-6274 
-6210 
-6110 
-6188 
-6267 
-6265 
-6261 
-6334 
-6405 
-6375 
-6337 
-6425 
-6532 
-6481 
-6407 
-6446 
-6541 
-6527 
-6457 
-6454 
-6510 
-6444 
-6392 
-6405 
-6474 
-6508 
-6401 
-6403 
-6551 
-6514 
-6497 
-6457 
-6518 
-6516 
-6464 
-6400 
-6478 
-6564 
-6524 
-6452 
-6422 
-6509 
-6455 
-6384 
-6433 
-6512 
-6481 
-6422 
-6448 
-6538 
-6522 
-6427 
-6411 
-6491 
-6551 
-6506 
-6475 
-6552 
-6575 
-6474 
-6426 
-6484 
-6549 
-6461 
-6429 
-6508 
-6524 
-6467 
-6402 
-6448 
-6472 
-6476 
-6358 
-6390 
-6485 
-6417 
-6398 
-6386 
-6482 
-6508 
-6538 
-6464 
-6500 
-6651 
-6609 
-6502 
-6535 
-6584 
-6524 
-6533 
-6545 
-6638 
-6642 
-6525 
-6487 
-6580 
-6600 
-6567 
-6531 
-6607 
-6643 
-6571 
-6516 
-6568 
-6650 
-6633 
-6526 
-6513 
-6508 
-6308 
-6214 
-6401 
-6678 
-6749 
-6815 
-6952 
-7045 
-6949 
-6794 
-6813 
-6842 
-6750 
-6686 
-6656 
-6700 
-6735 
-6662 
-6612 
-6648 
-6690 
-6672 
-6590 
-6692 
-6753 
-6678 
-6649 
-6703 
-6767 
-6754 
-6649 
-6654 
-6726 
-6743 
-6675 
-6633 
-6746 
-6755 
-6680 
-6706 
-6807 
-6780 
-6675 
-6637 
-6684 
-6726 
-6672 
-6629 
-6654 
-6740 
-6678 
-6596 
-6612 
-6700 
-6650 
-6567 
-6583 
-6719 
-6688 
-6647 
-6647 
-6680 
-6675 
-6613 
-6561 
-6608 
-6687 
-6672 
-6619 
-6631 
-6761 
-6805 
-6755 
-6723 
-6812 
-6861 
-6797 
-6809 
-6892 
-6913 
-6908 
-6928 
-6978 
-7000 
-6937 
-6911 
-7004 
-7006 
-6992 
-6952 
-7002 
-7130 
-7032 
-6964 
-6988 
-7074 
-7051 
-6977 
-7009 
-7026 
-6979 
-6945 
-6968 
-7009 
-7021 
-6980 
-6987 
-7052 
-7082 
-7010 
-6958 
-7022 
-7082 
-7018 
-6953 
-7031 
-7111 
-7080 
-6936 
-6979 
-7089 
-7032 
-6984 
-7017 
-7054 
-6992 
-6942 
-6938 
-7032 
-7016 
-6939 
-6914 
-6997 
-7055 
-7054 
-7014 
-7067 
-7195 
-7092 
-7059 
-7152 
-7143 
-7036 
-7037 
-7083 
-7204 
-7194 
-7101 
-7108 
-7152 
-7080 
-6987 
-7020 
-7102 
-7110 
-7075 
-7069 
-7154 
-7212 
-7116 
-7062 
-7169 
-7185 
-7072 
-6975 
-6872 
-6903 
-6942 
-7041 
-7143 
-7348 
-7472 
-7441 
-7400 
-7394 
-7357 
-7269 
-7175 
-7239 
-7241 
-7133 
-7089 
-7144 
-7158 
-7070 
-7001 
-7091 
-7175 
-7120 
-7042 
-7100 
-7136 
-7092 
-7080 
-7110 
-7151 
-7117 
-7081 
-7059 
-7140 
-7157 
-7088 
-7088 
-7162 
-7189 
-7095 
-7036 
-7077 
-7113 
-7079 
-6982 
-7074 
-7126 
-7029 
-6988 
-7022 
-7067 
-7019 
-6963 
-7004 
-7077 
-7014 
-6932 
-6918 
-7017 
-7040 
-6905 
-6884 
-6967 
-6972 
-6878 
-6891 
-6994 
-7053 
-6945 
-6970 
-7067 
-7124 
-7056 
-7039 
-7086 
-7173 
-7152 
-7101 
-7126 
-7171 
-7133 
-7060 
-7014 
-7116 
-7169 
-7069 
-6992 
-7127 
-7172 
-7069 
-7025 
-7139 
-7161 
-7039 
-7011 
-7118 
-7163 
-7107 
-7029 
-7028 
-7103 
-7087 
-7013 
-7011 
-7074 
-7020 
-6998 
-7017 
-7081 
-7112 
-7016 
-6960 
-7008 
-7086 
-6970 
-6930 
-7061 
-7118 
-7074 
-6994 
-7036 
-7096 
-7069 
-6980 
-6971 
-7017 
-7021 
-7002 
-7007 
-7096 
-7081 
-6951 
-6952 
-7002 
-7014 
-6968 
-6936 
-6974 
-6988 
-6982 
-6869 
-6945 
-7002 
-6928 
-6869 
-6926 
-7020 
-6991 
-6914 
-6914 
-7001 
-6988 
-6893 
-6888 
-6944 
-6954 
-6901 
-6898 
-6994 
-6950 
-6890 
-6899 
-6973 
-7024 
-6955 
-6887 
-6948 
-7017 
-6970 
-6879 
-6913 
-7004 
-6936 
-6875 
-6904 
-6922 
-6829 
-6698 
-6597 
-6565 
-6647 
-6777 
-6891 
-7070 
-7259 
-7268 
-7161 
-7102 
-7073 
-7015 
-6884 
-6870 
-6892 
-6823 
-6740 
-6778 
-6896 
-6840 
-6759 
-6749 
-6815 
-6803 
-6682 
-6699 
-6791 
-6778 
-6754 
-6699 
-6779 
-6764 
-6717 
-6663 
-6735 
-6757 
-6698 
-6692 
-6720 
-6728 
-6657 
-6575 
-6560 
-6671 
-6649 
-6602 
-6614 
-6639 
-6594 
-6556 
-6540 
-6563 
-6590 
-6530 
-6485 
-6563 
-6592 
-6498 
-6417 
-6508 
-6560 
-6488 
-6385 
-6414 
-6480 
-6494 
-6442 
-6412 
-6480 
-6422 
-6366 
-6393 
-6582 
-6535 
-6460 
-6471 
-6593 
-6613 
-6541 
-6503 
-6606 
-6654 
-6557 
-6471 
-6535 
-6575 
-6520 
-6469 
-6489 
-6597 
-6498 
-6418 
-6483 
-6542 
-6586 
-6490 
-6445 
-6493 
-6516 
-6500 
-6488 
-6523 
-6606 
-6477 
-6429 
-6514 
-6542 
-6515 
-6386 
-6466 
-6557 
-6492 
-6418 
-6448 
-6535 
-6498 
-6444 
-6424 
-6505 
-6521 
-6477 
-6415 
-6442 
-6494 
-6448 
-6446 
-6476 
-6460 
-6407 
-6319 
-6365 
-6469 
-6485 
-6406 
-6402 
-6490 
-6474 
-6433 
-6405 
-6455 
-6403 
-6351 
-6370 
-6482 
-6468 
-6356 
-6383 
-6458 
-6403 
-6403 
-6403 
-6406 
-6377 
-6326 
-6317 
-6348 
-6396 
-6322 
-6265 
-6318 
-6386 
-6399 
-6393 
-6330 
-6430 
-6425 
-6319 
-6370 
-6521 
-6469 
-6321 
-6309 
-6403 
-6430 
-6346 
-6369 
-6397 
-6411 
-6366 
-6286 
-6340 
-6420 
-6316 
-6247 
-6314 
-6429 
-6393 
-6250 
-6265 
-6278 
-6139 
-6000 
-6079 
-6393 
-6524 
-6498 
-6605 
-6784 
-6799 
-6570 
-6400 
-6454 
-6518 
-6397 
-6280 
-6312 
-6409 
-6359 
-6307 
-6294 
-6392 
-6355 
-6253 
-6274 
-6353 
-6312 
-6269 
-6247 
-6251 
-6282 
-6261 
-6248 
-6338 
-6377 
-6280 
-6195 
-6235 
-6332 
-6283 
-6171 
-6191 
-6243 
-6182 
-6115 
-6184 
-6265 
-6201 
-6119 
-6132 
-6188 
-6213 
-6070 
-6030 
-6134 
-6123 
-6021 
-6022 
-6045 
-6058 
-6008 
-5981 
-6010 
-6059 
-5983 
-5926 
-5940 
-6062 
-6022 
-5950 
-5964 
-6040 
-6068 
-6000 
-6043 
-6143 
-6192 
-6136 
-6110 
-6222 
-6292 
-6243 
-6173 
-6270 
-6335 
-6264 
-6236 
-6270 
-6353 
-6266 
-6173 
-6152 
-6274 
-6309 
-6222 
-6185 
-6298 
-6254 
-6169 
-6156 
-6201 
-6221 
-6150 
-6115 
-6180 
-6217 
-6189 
-6161 
-6212 
-6208 
-6254 
-6246 
-6244 
-6289 
-6230 
-6187 
-6177 
-6208 
-6184 
-6114 
-6150 
-6226 
-6202 
-6155 
-6167 
-6252 
-6227 
-6130 
-6128 
-6181 
-6213 
-6137 
-6095 
-6134 
-6161 
-6125 
-6086 
-6145 
-6201 
-6103 
-6037 
-6039 
-6132 
-6149 
-6041 
-6103 
-6214 
-6225 
-6086 
-6082 
-6161 
-6190 
-6170 
-6102 
-6113 
-6145 
-6108 
-6069 
-6069 
-6154 
-6153 
-6061 
-6069 
-6184 
-6178 
-6160 
-6144 
-6180 
-6193 
-6172 
-6148 
-6222 
-6182 
-6123 
-6108 
-6136 
-6008 
-5805 
-5740 
-5928 
-6156 
-6236 
-6297 
-6514 
-6556 
-6405 
-6253 
-6251 
-6258 
-6219 
-6115 
-6124 
-6196 
-6143 
-6062 
-6079 
-6118 
-6124 
-6019 
-5976 
-6029 
-6064 
-6021 
-5978 
-6057 
-6088 
-6023 
-5951 
-6036 
-6111 
-6030 
-5980 
-5999 
-6083 
-6087 
-5987 
-5971 
-6011 
-6043 
-5990 
-5942 
-6002 
-5972 
-5931 
-5922 
-5957 
-5982 
-5854 
-5869 
-5964 
-6002 
-5921 
-5839 
-5899 
-6003 
-5949 
-5853 
-5888 
-5933 
-5920 
-5867 
-5816 
-5871 
-5880 
-5832 
-5865 
-5982 
-6015 
-5929 
-5903 
-5936 
-6030 
-5994 
-5996 
-6039 
-6109 
-6079 
-6047 
-6070 
-6065 
-6038 
-6015 
-6015 
-6102 
-6111 
-6057 
-6098 
-6156 
-6087 
-6068 
-6057 
-6156 
-6124 
-6068 
-6040 
-6056 
-6106 
-6056 
-6023 
-6074 
-6124 
-6021 
-5963 
-6078 
-6150 
-6072 
-6028 
-6050 
-6140 
-6114 
-6056 
-6056 
-6144 
-6163 
-6056 
-5985 
-6077 
-6200 
-6144 
-6068 
-6101 
-6161 
-6103 
-6097 
-6166 
-6163 
-6096 
-6094 
-6097 
-6163 
-6183 
-6110 
-6115 
-6174 
-6126 
-6017 
-6008 
-6064 
-6109 
-6104 
-6069 
-6106 
-6190 
-6133 
-6057 
-6069 
-6166 
-6148 
-6091 
-6081 
-6151 
-6120 
-6077 
-6103 
-6185 
-6163 
-6082 
-6092 
-6145 
-6169 
-6058 
-6050 
-6194 
-6217 
-6142 
-6138 
-6232 
-6235 
-6145 
-6109 
-6112 
-6052 
-5912 
-5901 
-6088 
-6311 
-6413 
-6456 
-6514 
-6519 
-6447 
-6268 
-6201 
-6198 
-6149 
-6015 
-5968 
-6039 
-6096 
-6050 
-5993 
-6083 
-6116 
-6071 
-6036 
-6090 
-6148 
-6064 
-6036 
-6110 
-6176 
-6135 
-6042 
-6009 
-6119 
-6166 
-6064 
-5981 
-6065 
-6163 
-6100 
-6015 
-6055 
-6144 
-6084 
-5997 
-5984 
-6041 
-6011 
-5956 
-5955 
-6015 
-6000 
-5881 
-5881 
-5951 
-5973 
-5901 
-5905 
-5994 
-5909 
-5808 
-5776 
-5879 
-5973 
-5895 
-5821 
-5871 
-5916 
-5864 
-5871 
-5943 
-6009 
-5983 
-5901 
-5968 
-6047 
-5999 
-5960 
-5968 
-6049 
-5997 
-5944 
-5982 
-6110 
-6069 
-6031 
-6010 
-6105 
-6184 
-6078 
-6020 
-6113 
-6159 
-6088 
-6006 
-6024 
-6130 
-6053 
-5970 
-6059 
-6125 
-6052 
-5950 
-6039 
-6122 
-6108 
-6014 
-6022 
-6092 
-6095 
-6068 
-6030 
-6081 
-6070 
-6024 
-6010 
-6046 
-6056 
-6035 
-6063 
-6074 
-6099 
-6032 
-5954 
-6063 
-6164 
-6121 
-6034 
-6072 
-6114 
-6092 
-5997 
-5986 
-6031 
-5976 
-5903 
-5950 
-5988 
-6015 
-5978 
-5974 
-6028 
-6057 
-6045 
-6009 
-6026 
-6126 
-6095 
-6041 
-6058 
-6165 
-6116 
-6029 
-6052 
-6093 
-6099 
-6012 
-5977 
-6061 
-6074 
-6005 
-6060 
-6151 
-6160 
-6094 
-6009 
-6060 
-6088 
-5952 
-5693 
-5635 
-5788 
-5963 
-6024 
-6179 
-6469 
-6481 
-6374 
-6277 
-6275 
-6278 
-6122 
-6042 
-6114 
-6096 
-6046 
-6014 
-6063 
-6101 
-6039 
-6009 
-6074 
-6085 
-6026 
-5942 
-6002 
-6093 
-6087 
-5980 
-5970 
-6041 
-6085 
-6041 
-5991 
-6070 
-6089 
-5983 
-5980 
-6037 
-6052 
-5958 
-5931 
-5942 
-5984 
-5924 
-5843 
-5875 
-5995 
-5938 
-5800 
-5857 
-5929 
-5884 
-5821 
-5808 
-5860 
-5895 
-5808 
-5746 
-5879 
-5834 
-5750 
-5732 
-5781 
-5845 
-5776 
-5717 
-5760 
-5797 
-5782 
-5827 
-5919 
-5937 
-5934 
-5895 
-5878 
-5971 
-5985 
-5914 
-5967 
-6025 
-6026 
-5972 
-5955 
-5985 
-5981 
-5952 
-5932 
-5966 
-6052 
-6017 
-5944 
-5981 
-6049 
-6054 
-5946 
-5961 
-5998 
-5970 
-5938 
-5916 
-5953 
-5930 
-5892 
-5913 
-5997 
-5990 
-5980 
-5951 
-5995 
-6027 
-6000 
-6003 
-5996 
-6046 
-5992 
-5923 
-5975 
-6098 
-6039 
-5931 
-5926 
-5982 
-5954 
-5896 
-5937 
-6011 
-5967 
-5875 
-5898 
-6008 
-6094 
-5983 
-5909 
-5926 
-6018 
-5928 
-5864 
-5951 
-5956 
-5835 
-5777 
-5948 
-6027 
-6018 
-5959 
-5961 
-6029 
-6053 
-5994 
-5991 
-6045 
-6074 
-5975 
-5952 
-6037 
-6098 
-6009 
-5982 
-6038 
-6042 
-6003 
-5937 
-5993 
-6079 
-6000 
-5954 
-5988 
-6019 
-5951 
-5868 
-5895 
-5871 
-5772 
-5773 
-5964 
-6118 
-6171 
-6285 
-6394 
-6417 
-6325 
-6172 
-6089 
-6138 
-6157 
-6067 
-6007 
-6038 
-6127 
-6074 
-6006 
-6010 
-6064 
-6056 
-5995 
-6007 
-6080 
-6096 
-6031 
-5998 
-6055 
-6064 
-6008 
-6001 
-6118 
-6113 
-6013 
-6016 
-6112 
-6145 
-6046 
-5999 
-6010 
-6048 
-6052 
-6007 
-5975 
-6055 
-6088 
-5997 
-5978 
-6080 
-6076 
-5978 
-5981 
-6058 
-6071 
-6020 
-5960 
-6000 
-6036 
-5965 
-5944 
-5968 
-5982 
-5961 
-5919 
-5984 
-6041 
-5937 
-5860 
-5958 
-6106 
-6116 
-6078 
-6082 
-6187 
-6172 
-6110 
-6169 
-6249 
-6223 
-6190 
-6165 
-6216 
-6263 
-6214 
-6209 
-6248 
-6291 
-6272 
-6190 
-6230 
-6264 
-6263 
-6238 
-6202 
-6288 
-6328 
-6260 
-6243 
-6318 
-6309 
-6252 
-6275 
-6340 
-6371 
-6302 
-6283 
-6346 
-6408 
-6335 
-6274 
-6285 
-6315 
-6294 
-6323 
-6344 
-6402 
-6399 
-6368 
-6334 
-6406 
-6428 
-6340 
-6311 
-6398 
-6417 
-6367 
-6347 
-6371 
-6388 
-6366 
-6389 
-6469 
-6519 
-6437 
-6356 
-6390 
-6484 
-6378 
-6263 
-6289 
-6366 
-6376 
-6334 
-6401 
-6466 
-6444 
-6405 
-6406 
-6523 
-6533 
-6439 
-6484 
-6615 
-6605 
-6460 
-6449 
-6540 
-6623 
-6528 
-6471 
-6526 
-6586 
-6553 
-6478 
-6489 
-6623 
-6551 
-6479 
-6551 
-6627 
-6599 
-6455 
-6344 
-6286 
-6204 
-6307 
-6442 
-6681 
-6805 
-6874 
-6947 
-6988 
-6948 
-6816 
-6669 
-6701 
-6725 
-6641 
-6553 
-6599 
-6639 
-6627 
-6568 
-6595 
-6626 
-6625 
-6556 
-6558 
-6618 
-6628 
-6608 
-6623 
-6649 
-6646 
-6603 
-6530 
-6582 
-6687 
-6663 
-6595 
-6603 
-6644 
-6582 
-6523 
-6545 
-6611 
-6630 
-6566 
-6553 
-6589 
-6575 
-6493 
-6472 
-6584 
-6627 
-6529 
-6544 
-6571 
-6597 
-6475 
-6434 
-6497 
-6536 
-6471 
-6448 
-6541 
-6579 
-6494 
-6424 
-6440 
-6507 
-6472 
-6472 
-6536 
-6586 
-6601 
-6554 
-6598 
-6667 
-6700 
-6624 
-6612 
-6710 
-6791 
-6688 
-6628 
-6703 
-6806 
-6748 
-6641 
-6658 
-6761 
-6733 
-6648 
-6671 
-6739 
-6698 
-6651 
-6669 
-6747 
-6757 
-6669 
-6687 
-6766 
-6797 
-6705 
-6671 
-6721 
-6796 
-6795 
-6699 
-6689 
-6745 
-6720 
-6688 
-6704 
-6774 
-6721 
-6623 
-6678 
-6790 
-6764 
-6675 
-6641 
-6702 
-6791 
-6742 
-6682 
-6725 
-6735 
-6677 
-6659 
-6726 
-6764 
-6717 
-6636 
-6692 
-6770 
-6702 
-6658 
-6684 
-6745 
-6714 
-6661 
-6667 
-6735 
-6669 
-6603 
-6656 
-6709 
-6669 
-6594 
-6556 
-6680 
-6693 
-6646 
-6591 
-6626 
-6673 
-6623 
-6502 
-6557 
-6626 
-6584 
-6572 
-6623 
-6664 
-6675 
-6595 
-6581 
-6632 
-6655 
-6635 
-6629 
-6707 
-6697 
-6636 
-6619 
-6647 
-6693 
-6681 
-6569 
-6575 
-6613 
-6610 
-6539 
-6591 
-6692 
-6621 
-6591 
-6591 
-6665 
-6631 
-6468 
-6363 
-6301 
-6246 
-6261 
-6427 
-6725 
-6838 
-6933 
-6912 
-6895 
-6882 
-6742 
-6668 
-6687 
-6689 
-6632 
-6503 
-6494 
-6585 
-6600 
-6511 
-6513 
-6584 
-6532 
-6488 
-6490 
-6547 
-6533 
-6494 
-6475 
-6523 
-6581 
-6534 
-6472 
-6533 
-6602 
-6511 
-6448 
-6513 
-6555 
-6518 
-6452 
-6452 
-6527 
-6506 
-6418 
-6349 
-6456 
-6469 
-6401 
-6397 
-6521 
-6473 
-6380 
-6315 
-6405 
-6400 
-6345 
-6299 
-6341 
-6395 
-6330 
-6237 
-6281 
-6367 
-6300 
-6213 
-6245 
-6347 
-6282 
-6236 
-6350 
-6421 
-6377 
-6375 
-6390 
-6451 
-6475 
-6407 
-6417 
-6483 
-6522 
-6491 
-6463 
-6507 
-6542 
-6482 
-6440 
-6534 
-6575 
-6522 
-6433 
-6486 
-6528 
-6467 
-6420 
-6430 
-6486 
-6513 
-6445 
-6418 
-6531 
-6503 
-6386 
-6369 
-6440 
-6519 
-6517 
-6463 
-6502 
-6511 
-6386 
-6352 
-6431 
-6489 
-6464 
-6426 
-6440 
-6511 
-6468 
-6419 
-6421 
-6525 
-6519 
-6454 
-6420 
-6480 
-6486 
-6490 
-6511 
-6518 
-6509 
-6453 
-6402 
-6482 
-6543 
-6490 
-6444 
-6455 
-6520 
-6471 
-6359 
-6416 
-6511 
-6502 
-6448 
-6432 
-6537 
-6514 
-6437 
-6415 
-6480 
-6490 
-6411 
-6395 
-6440 
-6439 
-6383 
-6394 
-6429 
-6407 
-6334 
-6390 
-6476 
-6494 
-6486 
-6439 
-6436 
-6511 
-6484 
-6422 
-6435 
-6491 
-6522 
-6432 
-6411 
-6501 
-6578 
-6484 
-6445 
-6439 
-6511 
-6484 
-6429 
-6457 
-6472 
-6423 
-6388 
-6419 
-6517 
-6455 
-6377 
-6276 
-6282 
-6208 
-6088 
-6138 
-6409 
-6579 
-6620 
-6723 
-6878 
-6805 
-6638 
-6493 
-6500 
-6497 
-6463 
-6423 
-6420 
-6473 
-6420 
-6363 
-6390 
-6448 
-6409 
-6309 
-6308 
-6374 
-6366 
-6338 
-6327 
-6449 
-6432 
-6292 
-6229 
-6344 
-6410 
-6315 
-6292 
-6295 
-6333 
-6350 
-6242 
-6298 
-6324 
-6297 
-6223 
-6262 
-6329 
-6286 
-6199 
-6189 
-6265 
-6268 
-6176 
-6174 
-6265 
-6260 
-6169 
-6152 
-6227 
-6184 
-6108 
-6052 
-6054 
-6127 
-6073 
-6038 
-6095 
-6152 
-6139 
-6065 
-6093 
-6134 
-6184 
-6196 
-6155 
-6234 
-6245 
-6214 
-6233 
-6328 
-6358 
-6265 
-6288 
-6355 
-6346 
-6273 
-6215 
-6319 
-6383 
-6345 
-6303 
-6316 
-6364 
-6316 
-6241 
-6279 
-6360 
-6320 
-6228 
-6251 
-6340 
-6346 
-6271 
-6259 
-6315 
-6310 
-6254 
-6279 
-6337 
-6378 
-6332 
-6290 
-6323 
-6363 
-6367 
-6320 
-6312 
-6337 
-6310 
-6275 
-6228 
-6325 
-6333 
-6332 
-6342 
-6384 
-6363 
-6300 
-6348 
-6366 
-6367 
-6339 
-6309 
-6415 
-6455 
-6372 
-6298 
-6348 
-6386 
-6332 
-6262 
-6295 
-6391 
-6385 
-6321 
-6348 
-6390 
-6364 
-6307 
-6322 
-6418 
-6440 
-6383 
-6329 
-6366 
-6413 
-6403 
-6278 
-6389 
-6383 
-6327 
-6326 
-6420 
-6410 
-6362 
-6268 
-6317 
-6373 
-6343 
-6252 
-6205 
-6251 
-6282 
-6255 
-6274 
-6398 
-6420 
-6440 
-6411 
-6445 
-6449 
-6353 
-6314 
-6393 
-6474 
-6399 
-6332 
-6363 
-6465 
-6444 
-6370 
-6361 
-6384 
-6416 
-6398 
-6360 
-6494 
-6449 
-6336 
-6328 
-6410 
-6422 
-6289 
-6172 
-6128 
-6078 
-6052 
-6211 
-6401 
-6508 
-6622 
-6711 
-6690 
-6682 
-6556 
-6414 
-6450 
-6455 
-6353 
-6303 
-6302 
-6369 
-6365 
-6250 
-6228 
-6345 
-6392 
-6311 
-6207 
-6253 
-6342 
-6305 
-6267 
-6320 
-6368 
-6307 
-6253 
-6242 
-6295 
-6274 
-6202 
-6236 
-6307 
-6277 
-6156 
-6147 
-6252 
-6206 
-6123 
-6154 
-6211 
-6248 
-6206 
-6146 
-6238 
-6284 
-6179 
-6152 
-6200 
-6202 
-6187 
-6099 
-6082 
-6140 
-6133 
-6067 
-6098 
-6134 
-6098 
-6068 
-6076 
-6149 
-6160 
-6084 
-6061 
-6158 
-6243 
-6188 
-6163 
-6280 
-6351 
-6305 
-6262 
-6284 
-6347 
-6309 
-6308 
-6358 
-6427 
-6362 
-6306 
-6279 
-6390 
-6419 
-6301 
-6348 
-6465 
-6415 
-6306 
-6290 
-6340 
-6365 
-6345 
-6316 
-6384 
-6420 
-6323 
-6251 
-6297 
-6367 
-6343 
-6342 
-6401 
-6476 
-6421 
-6343 
-6302 
-6361 
-6427 
-6377 
-6357 
-6452 
-6446 
-6377 
-6332 
-6442 
-6477 
-6367 
-6308 
-6406 
-6459 
-6372 
-6342 
-6348 
-6485 
-6479 
-6397 
-6340 
-6461 
-6491 
-6433 
-6398 
-6458 
-6496 
-6429 
-6386 
-6490 
-6478 
-6413 
-6339 
-6394 
-6461 
-6413 
-6354 
-6336 
-6382 
-6384 
-6316 
-6375 
-6459 
-6446 
-6424 
-6446 
-6536 
-6508 
-6447 
-6417 
-6475 
-6533 
-6481 
-6446 
-6518 
-6564 
-6507 
-6447 
-6474 
-6525 
-6511 
-6497 
-6546 
-6587 
-6511 
-6494 
-6546 
-6619 
-6543 
-6451 
-6478 
-6507 
-6419 
-6231 
-6117 
-6232 
-6423 
-6550 
-6602 
-6834 
-7024 
-6982 
-6828 
-6815 
-6774 
-6721 
-6666 
-6708 
-6739 
-6651 
-6526 
-6521 
-6632 
-6564 
-6505 
-6532 
-6596 
-6613 
-6521 
-6503 
-6563 
-6643 
-6563 
-6489 
-6568 
-6591 
-6559 
-6516 
-6628 
-6675 
-6563 
-6464 
-6450 
-6545 
-6526 
-6472 
-6495 
-6554 
-6504 
-6432 
-6422 
-6531 
-6532 
-6426 
-6366 
-6493 
-6512 
-6423 
-6408 
-6453 
-6525 
-6399 
-6321 
-6401 
-6462 
-6367 
-6334 
-6352 
-6430 
-6377 
-6310 
-6375 
-6519 
-6503 
-6452 
-6391 
-6527 
-6574 
-6527 
-6602 
-6681 
-6699 
-6680 
-6664 
-6662 
-6722 
-6693 
-6673 
-6664 
-6735 
-6652 
-6654 
-6709 
-6774 
-6698 
-6640 
-6678 
-6796 
-6762 
-6719 
-6736 
-6760 
-6740 
-6691 
-6690 
-6755 
-6802 
-6673 
-6626 
-6724 
-6808 
-6738 
-6683 
-6768 
-6782 
-6720 
-6707 
-6745 
-6799 
-6790 
-6722 
-6749 
-6820 
-6823 
-6811 
-6752 
-6812 
-6821 
-6806 
-6813 
-6864 
-6868 
-6757 
-6741 
-6828 
-6898 
-6809 
-6812 
-6831 
-6921 
-6910 
-6864 
-6929 
-6918 
-6867 
-6834 
-6869 
-6927 
-6897 
-6823 
-6806 
-6853 
-6877 
-6812 
-6812 
-6919 
-6952 
-6994 
-6955 
-6973 
-7055 
-6996 
-6959 
-7044 
-7073 
-7016 
-6988 
-7029 
-7105 
-7058 
-6995 
-6999 
-7070 
-7091 
-7025 
-6998 
-7058 
-7159 
-7052 
-6992 
-7090 
-7153 
-7058 
-6965 
-6985 
-6928 
-6764 
-6740 
-6997 
-7218 
-7203 
-7264 
-7489 
-7624 
-7515 
-7350 
-7253 
-7290 
-7321 
-7208 
-7150 
-7251 
-7289 
-7217 
-7188 
-7233 
-7288 
-7243 
-7190 
-7247 
-7328 
-7276 
-7178 
-7240 
-7353 
-7329 
-7289 
-7287 
-7363 
-7354 
-7293 
-7306 
-7375 
-7365 
-7320 
-7333 
-7353 
-7319 
-7258 
-7287 
-7390 
-7390 
-7338 
-7309 
-7367 
-7420 
-7347 
-7299 
-7352 
-7396 
-7330 
-7306 
-7320 
-7431 
-7398 
-7282 
-7238 
-7311 
-7279 
-7229 
-7208 
-7299 
-7340 
-7282 
-7260 
-7365 
-7417 
-7422 
-7413 
-7450 
-7489 
-7471 
-7476 
-7537 
-7575 
-7488 
-7415 
-7473 
-7568 
-7570 
-7501 
-7486 
-7517 
-7560 
-7493 
-7484 
-7537 
-7552 
-7479 
-7459 
-7507 
-7552 
-7516 
-7469 
-7530 
-7533 
-7510 
-7457 
-7461 
-7531 
-7530 
-7453 
-7469 
-7554 
-7522 
-7461 
-7528 
-7543 
-7438 
-7386 
-7343 
-7451 
-7435 
-7375 
-7365 
-7446 
-7452 
-7413 
-7384 
-7467 
-7487 
-7425 
-7375 
-7378 
-7465 
-7387 
-7309 
-7320 
-7394 
-7369 
-7282 
-7281 
-7333 
-7299 
-7170 
-7119 
-7191 
-7245 
-7198 
-7067 
-7087 
-7171 
-7088 
-6988 
-6949 
-6986 
-6924 
-6874 
-6898 
-6950 
-6968 
-6931 
-6905 
-6992 
-6989 
-6903 
-6851 
-6937 
-6916 
-6783 
-6784 
-6850 
-6906 
-6837 
-6765 
-6805 
-6835 
-6779 
-6711 
-6762 
-6802 
-6786 
-6692 
-6715 
-6744 
-6717 
-6655 
-6632 
-6602 
-6477 
-6318 
-6235 
-6315 
-6454 
-6571 
-6631 
-6818 
-6943 
-6854 
-6751 
-6711 
-6704 
-6592 
-6471 
-6525 
-6532 
-6424 
-6357 
-6339 
-6365 
-6384 
-6328 
-6331 
-6370 
-6330 
-6265 
-6222 
-6298 
-6300 
-6245 
-6220 
-6319 
-6341 
-6240 
-6205 
-6262 
-6289 
-6230 
-6189 
-6223 
-6256 
-6213 
-6126 
-6113 
-6162 
-6159 
-6121 
-6084 
-6169 
-6143 
-6076 
-6093 
-6130 
-6145 
-6078 
-6020 
-6093 
-6084 
-5976 
-5905 
-5999 
-6071 
-6060 
-5987 
-5984 
-6042 
-5975 
-5930 
-5951 
-6041 
-6056 
-6025 
-6060 
-6140 
-6125 
-6109 
-6081 
-6170 
-6232 
-6149 
-6101 
-6122 
-6233 
-6122 
-6113 
-6158 
-6166 
-6144 
-6123 
-6169 
-6231 
-6191 
-6113 
-6136 
-6236 
-6218 
-6114 
-6114 
-6194 
-6274 
-6242 
-6179 
-6231 
-6272 
-6210 
-6158 
-6175 
-6251 
-6251 
-6165 
-6205 
-6282 
-6248 
-6226 
-6253 
-6312 
-6322 
-6252 
-6165 
-6280 
-6291 
-6242 
-6267 
-6342 
-6350 
-6288 
-6316 
-6391 
-6389 
-6341 
-6288 
-6343 
-6423 
-6347 
-6292 
-6355 
-6421 
-6379 
-6291 
-6295 
-6397 
-6399 
-6321 
-6316 
-6423 
-6440 
-6365 
-6339 
-6407 
-6433 
-6377 
-6364 
-6412 
-6423 
-6375 
-6279 
-6364 
-6450 
-6394 
-6364 
-6419 
-6532 
-6562 
-6542 
-6526 
-6552 
-6553 
-6559 
-6592 
-6627 
-6692 
-6644 
-6594 
-6671 
-6700 
-6676 
-6615 
-6661 
-6709 
-6669 
-6669 
-6694 
-6766 
-6729 
-6666 
-6704 
-6811 
-6742 
-6656 
-6536 
-6430 
-6494 
-6558 
-6805 
-6975 
-7113 
-7178 
-7166 
-7130 
-7058 
-6965 
-6944 
-6956 
-6907 
-6801 
-6785 
-6840 
-6872 
-6849 
-6776 
-6810 
-6863 
-6866 
-6808 
-6835 
-6873 
-6837 
-6784 
-6819 
-6849 
-6916 
-6836 
-6825 
-6904 
-6938 
-6830 
-6797 
-6878 
-6922 
-6839 
-6833 
-6868 
-6868 
-6799 
-6751 
-6779 
-6849 
-6847 
-6811 
-6786 
-6797 
-6758 
-6737 
-6776 
-6852 
-6830 
-6739 
-6705 
-6775 
-6817 
-6745 
-6685 
-6738 
-6791 
-6724 
-6650 
-6737 
-6813 
-6831 
-6792 
-6843 
-6915 
-6902 
-6865 
-6926 
-7007 
-7025 
-6995 
-6993 
-7042 
-7078 
-7055 
-7054 
-7131 
-7146 
-7094 
-7067 
-7125 
-7146 
-7069 
-7077 
-7133 
-7148 
-7116 
-7058 
-7134 
-7221 
-7212 
-7155 
-7135 
-7208 
-7198 
-7185 
-7171 
-7190 
-7238 
-7162 
-7167 
-7278 
-7274 
-7206 
-7189 
-7265 
-7297 
-7292 
-7242 
-7264 
-7305 
-7257 
-7174 
-7223 
-7351 
-7314 
-7273 
-7287 
-7336 
-7308 
-7250 
-7268 
-7352 
-7382 
-7310 
-7306 
-7379 
-7437 
-7332 
-7280 
-7351 
-7368 
-7291 
-7259 
-7298 
-7407 
-7395 
-7260 
-7302 
-7350 
-7291 
-7264 
-7295 
-7384 
-7396 
-7341 
-7403 
-7421 
-7423 
-7434 
-7459 
-7504 
-7503 
-7465 
-7419 
-7479 
-7507 
-7442 
-7376 
-7424 
-7481 
-7489 
-7453 
-7459 
-7485 
-7495 
-7430 
-7472 
-7566 
-7534 
-7473 
-7459 
-7485 
-7442 
-7213 
-7103 
-7254 
-7484 
-7592 
-7632 
-7860 
-7999 
-7876 
-7712 
-7685 
-7747 
-7698 
-7601 
-7557 
-7577 
-7552 
-7509 
-7492 
-7547 
-7555 
-7553 
-7487 
-7524 
-7579 
-7532 
-7476 
-7510 
-7567 
-7540 
-7514 
-7514 
-7581 
-7556 
-7474 
-7500 
-7610 
-7584 
-7479 
-7541 
-7618 
-7582 
-7463 
-7432 
-7559 
-7558 
-7462 
-7467 
-7541 
-7572 
-7511 
-7478 
-7514 
-7558 
-7542 
-7455 
-7451 
-7506 
-7474 
-7412 
-7466 
-7537 
-7482 
-7396 
-7449 
-7529 
-7518 
-7462 
-7469 
-7551 
-7593 
-7601 
-7602 
-7651 
-7734 
-7721 
-7681 
-7782 
-7838 
-7804 
-7768 
-7787 
-7872 
-7849 
-7769 
-7806 
-7904 
-7856 
-7755 
-7764 
-7810 
-7854 
-7856 
-7837 
-7936 
-7927 
-7806 
-7775 
-7911 
-7897 
-7841 
-7821 
-7851 
-7878 
-7827 
-7793 
-7854 
-7884 
-7859 
-7785 
-7841 
-7923 
-7900 
-7808 
-7830 
-7914 
-7867 
-7812 
-7860 
-7925 
-7903 
-7854 
-7806 
-7885 
-7929 
-7912 
-7884 
-7908 
-7950 
-7897 
-7874 
-7903 
-7980 
-7919 
-7852 
-7849 
-7914 
-7914 
-7887 
-7934 
-7949 
-7911 
-7950 
-7929 
-8049 
-8006 
-7938 
-7910 
-8002 
-8029 
-7933 
-7895 
-7948 
-8006 
-7928 
-7878 
-7965 
-8003 
-7933 
-7868 
-7909 
-7975 
-7939 
-7835 
-7819 
-7862 
-7903 
-7858 
-7838 
-7977 
-8051 
-7984 
-7951 
-8051 
-8062 
-7970 
-8016 
-8065 
-8061 
-7991 
-7939 
-7991 
-8036 
-8053 
-7988 
-7932 
-7993 
-8036 
-7991 
-8005 
-8055 
-8018 
-7947 
-7958 
-8022 
-8088 
-7994 
-7975 
-7943 
-7805 
-7683 
-7689 
-7936 
-8168 
-8223 
-8311 
-8388 
-8373 
-8272 
-8162 
-8167 
-8162 
-8138 
-8054 
-8047 
-8109 
-8031 
-7983 
-7941 
-7987 
-8020 
-8005 
-7922 
-7969 
-8052 
-7982 
-7923 
-8016 
-8084 
-8029 
-7948 
-8001 
-8029 
-8006 
-7934 
-7954 
-8010 
-7990 
-7909 
-7869 
-7962 
-8001 
-7887 
-7857 
-7951 
-7968 
-7878 
-7821 
-7914 
-7963 
-7929 
-7828 
-7854 
-7957 
-7917 
-7851 
-7894 
-7968 
-7880 
-7844 
-7833 
-7872 
-7835 
-7735 
-7747 
-7888 
-7819 
-7773 
-7744 
-7814 
-7897 
-7856 
-7875 
-8004 
-8058 
-7953 
-7954 
-7954 
-8073 
-8098 
-8059 
-8075 
-8095 
-8085 
-8008 
-8030 
-8080 
-8063 
-7986 
-7961 
-8068 
-8078 
-7969 
-7925 
-8027 
-8110 
-8001 
-7985 
-8063 
-8128 
-8071 
-8052 
-8046 
-8063 
-8016 
-7999 
-8023 
-8077 
-8058 
-8007 
-7994 
-8016 
-8046 
-8031 
-8037 
-8067 
-8085 
-8016 
-7998 
-8066 
-8095 
-8013 
-7984 
-8047 
-8102 
-8065 
-8040 
-8078 
-8166 
-8112 
-8020 
-8024 
-8080 
-8075 
-8007 
-7979 
-8052 
-8058 
-7995 
-7988 
-8080 
-8102 
-8059 
-8038 
-8127 
-8132 
-8021 
-7974 
-8049 
-8114 
-8060 
-8024 
-8057 
-8105 
-8065 
-7990 
-8008 
-8064 
-8032 
-7961 
-7956 
-8038 
-8032 
-7964 
-7957 
-7997 
-7983 
-7936 
-7945 
-7977 
-7999 
-7987 
-7982 
-8003 
-8068 
-8075 
-7972 
-8019 
-8115 
-8064 
-8001 
-8027 
-8108 
-8112 
-8029 
-8002 
-8091 
-8111 
-8023 
-7999 
-8080 
-8079 
-8003 
-7996 
-8044 
-8043 
-8058 
-7974 
-7973 
-8024 
-7950 
-7733 
-7657 
-7823 
-7949 
-8028 
-8140 
-8369 
-8508 
-8410 
-8309 
-8307 
-8213 
-8061 
-8058 
-8080 
-8069 
-8023 
-7956 
-8076 
-8100 
-8033 
-8007 
-8030 
-8056 
-7980 
-7911 
-8012 
-8050 
-8001 
-7932 
-7965 
-8036 
-8021 
-7966 
-7940 
-8000 
-8030 
-7920 
-7910 
-7981 
-7980 
-7943 
-7902 
-7908 
-7951 
-7933 
-7889 
-7923 
-7989 
-7951 
-7838 
-7849 
-7910 
-7832 
-7776 
-7810 
-7904 
-7886 
-7797 
-7742 
-7722 
-7742 
-7718 
-7705 
-7777 
-7801 
-7783 
-7728 
-7762 
-7813 
-7790 
-7775 
-7802 
-7921 
-7911 
-7852 
-7861 
-7985 
-8023 
-7928 
-7903 
-8020 
-7979 
-7926 
-7924 
-7953 
-7981 
-7936 
-7862 
-7956 
-7941 
-7871 
-7819 
-7925 
-7940 
-7903 
-7858 
-7874 
-7920 
-7944 
-7868 
-7882 
-7943 
-7924 
-7876 
-7909 
-8028 
-7912 
-7799 
-7872 
-7980 
-7994 
-7929 
-7886 
-7941 
-7948 
-7870 
-7876 
-7925 
-7910 
-7830 
-7801 
-7847 
-7921 
-7927 
-7867 
-7861 
-7920 
-7928 
-7906 
-7851 
-7918 
-7935 
-7910 
-7902 
-7970 
-7992 
-7877 
-7834 
-7918 
-7942 
-7826 
-7832 
-7899 
-7963 
-7938 
-7843 
-7862 
-7873 
-7838 
-7809 
-7768 
-7815 
-7833 
-7726 
-7713 
-7805 
-7827 
-7762 
-7780 
-7937 
-7938 
-7798 
-7798 
-7884 
-7919 
-7868 
-7800 
-7829 
-7848 
-7819 
-7790 
-7839 
-7915 
-7849 
-7786 
-7832 
-7864 
-7876 
-7880 
-7810 
-7872 
-7925 
-7822 
-7772 
-7861 
-7837 
-7733 
-7596 
-7549 
-7650 
-7780 
-7872 
-7994 
-8161 
-8261 
-8213 
-8133 
-8026 
-7901 
-7833 
-7866 
-7921 
-7906 
-7804 
-7790 
-7861 
-7822 
-7732 
-7750 
-7819 
-7833 
-7738 
-7741 
-7817 
-7831 
-7777 
-7721 
-7777 
-7818 
-7752 
-7677 
-7734 
-7807 
-7788 
-7689 
-7722 
-7802 
-7802 
-7765 
-7690 
-7736 
-7768 
-7680 
-7645 
-7684 
-7696 
-7591 
-7616 
-7732 
-7725 
-7618 
-7520 
-7574 
-7620 
-7565 
-7471 
-7496 
-7644 
-7598 
-7473 
-7498 
-7601 
-7528 
-7473 
-7718 
-7762 
-7800 
-7760 
-7720 
-7812 
-7808 
-7788 
-7783 
-7795 
-7782 
-7727 
-7691 
-7735 
-7740 
-7656 
-7625 
-7717 
-7794 
-7773 
-7709 
-7705 
-7803 
-7783 
-7717 
-7714 
-7810 
-7783 
-7707 
-7717 
-7762 
-7739 
-7730 
-7716 
-7754 
-7742 
-7704 
-7670 
-7720 
-7744 
-7719 
-7679 
-7751 
-7745 
-7726 
-7662 
-7692 
-7760 
-7724 
-7694 
-7661 
-7719 
-7722 
-7686 
-7676 
-7693 
-7632 
-7579 
-7575 
-7662 
-7724 
-7678 
-7667 
-7670 
-7756 
-7716 
-7674 
-7689 
-7728 
-7679 
-7632 
-7719 
-7828 
-7713 
-7683 
-7680 
-7817 
-7808 
-7728 
-7676 
-7708 
-7746 
-7703 
-7642 
-7732 
-7789 
-7725 
-7663 
-7722 
-7760 
-7656 
-7527 
-7480 
-7493 
-7416 
-7449 
-7661 
-7844 
-7957 
-8037 
-8039 
-8051 
-7996 
-7764 
-7739 
-7816 
-7818 
-7715 
-7595 
-7666 
-7722 
-7695 
-7617 
-7668 
-7713 
-7617 
-7572 
-7619 
-7693 
-7490 
-7545 
-7520 
-7483 
-7466 
-7511 
-7483 
-7384 
-7367 
-7489 
-7483 
-7401 
-7369 
-7450 
-7474 
-7437 
-7404 
-7444 
-7472 
-7377 
-7323 
-7351 
-7408 
-7422 
-7333 
-7294 
-7392 
-7367 
-7267 
-7273 
-7351 
-7330 
-7297 
-7310 
-7363 
-7331 
-7246 
-7192 
-7239 
-7277 
-7232 
-7177 
-7216 
-7280 
-7218 
-7106 
-7139 
-7294 
-7276 
-7186 
-7201 
-7285 
-7309 
-7274 
-7298 
-7381 
-7347 
-7278 
-7278 
-7383 
-7450 
-7381 
-7365 
-7417 
-7492 
-7414 
-7361 
-7422 
-7448 
-7412 
-7352 
-7419 
-7466 
-7395 
-7312 
-7412 
-7462 
-7410 
-7339 
-7328 
-7459 
-7427 
-7360 
-7352 
-7395 
-7407 
-7323 
-7318 
-7405 
-7445 
-7370 
-7312 
-7338 
-7411 
-7404 
-7340 
-7337 
-7403 
-7375 
-7263 
-7309 
-7382 
-7384 
-7319 
-7298 
-7381 
-7378 
-7358 
-7357 
-7407 
-7447 
-7356 
-7230 
-7328 
-7377 
-7271 
-7211 
-7318 
-7328 
-7375 
-7357 
-7358 
-7300 
-7223 
-7250 
-7327 
-7340 
-7287 
-7231 
-7281 
-7308 
-7216 
-7178 
-7290 
-7367 
-7266 
-7189 
-7269 
-7318 
-7253 
-7215 
-7228 
-7317 
-7264 
-7209 
-7253 
-7341 
-7254 
-7162 
-7193 
-7259 
-7247 
-7127 
-7086 
-7146 
-7159 
-7154 
-7115 
-7183 
-7234 
-7147 
-7104 
-7150 
-7191 
-7080 
-7019 
-7079 
-7114 
-7046 
-7053 
-7021 
-7075 
-7066 
-6996 
-7034 
-7087 
-7119 
-7045 
-7100 
-7229 
-7238 
-7172 
-7131 
-7203 
-7271 
-7213 
-7201 
-7272 
-7338 
-7262 
-7182 
-7227 
-7306 
-7272 
-7202 
-7181 
-7270 
-7247 
-7175 
-7204 
-7284 
-7271 
-7208 
-7184 
-7251 
-7268 
-7224 
-7174 
-7205 
-7272 
-7180 
-7171 
-7203 
-7251 
-7211 
-7132 
-7170 
-7268 
-7249 
-7140 
-7148 
-7245 
-7241 
-7156 
-7170 
-7244 
-7263 
-7214 
-7183 
-7187 
-7231 
-7205 
-7104 
-7094 
-7214 
-7181 
-7102 
-7087 
-7137 
-7217 
-7254 
-7225 
-7187 
-7199 
-7285 
-7247 
-7194 
-7195 
-7296 
-7216 
-7080 
-6962 
-6951 
-6959 
-6941 
-7087 
-7327 
-7472 
-7540 
-7584 
-7539 
-7516 
-7399 
-7290 
-7312 
-7327 
-7206 
-7121 
-7175 
-7233 
-7183 
-7118 
-7155 
-7235 
-7200 
-7132 
-7111 
-7212 
-7209 
-7130 
-7143 
-7206 
-7204 
-7186 
-7123 
-7169 
-7173 
-7153 
-7119 
-7120 
-7186 
-7124 
-7047 
-7113 
-7164 
-7045 
-6992 
-7022 
-7089 
-7063 
-6977 
-6996 
-7081 
-7040 
-6984 
-6986 
-7068 
-7085 
-6976 
-6936 
-6973 
-7024 
-6939 
-6877 
-6934 
-6973 
-6946 
-6921 
-6951 
-7016 
-6973 
-6928 
-6977 
-7065 
-7086 
-7046 
-7026 
-7172 
-7181 
-7144 
-7104 
-7162 
-7215 
-7143 
-7115 
-7181 
-7207 
-7132 
-7081 
-7109 
-7158 
-7174 
-7163 
-7211 
-7239 
-7192 
-7145 
-7199 
-7241 
-7133 
-7094 
-7128 
-7175 
-7174 
-7099 
-7092 
-7138 
-7158 
-7104 
-7064 
-7146 
-7210 
-7132 
-7118 
-7170 
-7203 
-7145 
-7072 
-7106 
-7166 
-7194 
-7154 
-7138 
-7175 
-7157 
-7080 
-7105 
-7174 
-7213 
-7166 
-7103 
-7203 
-7211 
-7146 
-7068 
-7131 
-7161 
-7111 
-7088 
-7156 
-7198 
-7084 
-7027 
-7075 
-7149 
-7145 
-7046 
-7084 
-7192 
-7177 
-7107 
-7081 
-7144 
-7122 
-7052 
-7034 
-7062 
-7041 
-7000 
-6946 
-6998 
-7095 
-7044 
-6983 
-7049 
-7131 
-7099 
-7041 
-7059 
-7175 
-7160 
-7017 
-7009 
-7147 
-7176 
-7182 
-7145 
-7183 
-7103 
-7077 
-7051 
-7054 
-7181 
-7137 
-7070 
-7169 
-7206 
-7116 
-7061 
-7089 
-7159 
-7116 
-6995 
-6941 
-6908 
-6755 
-6764 
-6929 
-7197 
-7278 
-7323 
-7433 
-7529 
-7451 
-7297 
-7188 
-7214 
-7179 
-7095 
-7063 
-7106 
-7181 
-7108 
-7024 
-7059 
-7155 
-7141 
-7020 
-7005 
-7095 
-7070 
-7007 
-7014 
-7100 
-7082 
-6978 
-7001 
-7160 
-7163 
-7051 
-7024 
-7109 
-7123 
-7047 
-6955 
-6990 
-7048 
-7010 
-6943 
-6992 
-7049 
-6986 
-6870 
-6916 
-7000 
-6980 
-6930 
-6886 
-6985 
-6975 
-6896 
-6858 
-6927 
-6968 
-6879 
-6834 
-6887 
-6954 
-6896 
-6820 
-6824 
-6841 
-6825 
-6807 
-6895 
-6926 
-6963 
-6950 
-6944 
-7008 
-7050 
-6966 
-6979 
-7072 
-7129 
-7045 
-7048 
-7076 
-7043 
-7006 
-7001 
-7087 
-7171 
-7072 
-7022 
-7103 
-7163 
-7060 
-6988 
-7010 
-7099 
-7071 
-7026 
-6966 
-7027 
-7052 
-6994 
-6973 
-7070 
-7055 
-6995 
-6989 
-7069 
-7066 
-7020 
-6986 
-7100 
-7105 
-7009 
-6992 
-7044 
-7096 
-7037 
-7030 
-7044 
-7057 
-7005 
-6953 
-6975 
-7079 
-7081 
-7000 
-6975 
-7066 
-7092 
-7002 
-7013 
-7072 
-7072 
-6979 
-6957 
-7014 
-7062 
-6987 
-6938 
-6979 
-7087 
-6979 
-6938 
-6979 
-7066 
-7052 
-6957 
-6988 
-7098 
-7044 
-6929 
-6914 
-6997 
-6973 
-6888 
-6875 
-7017 
-7042 
-6946 
-6858 
-6923 
-6943 
-6905 
-6872 
-6885 
-6991 
-7010 
-6942 
-6937 
-7057 
-7031 
-6930 
-6925 
-7033 
-7076 
-7021 
-6943 
-7001 
-7013 
-6952 
-6890 
-6975 
-7042 
-7012 
-6973 
-7042 
-7075 
-7032 
-6961 
-6989 
-7085 
-7035 
-6953 
-6964 
-7034 
-6928 
-6839 
-6759 
-6696 
-6739 
-6823 
-6976 
-7149 
-7367 
-7409 
-7358 
-7288 
-7223 
-7099 
-7039 
-7111 
-7134 
-7105 
-6978 
-6958 
-6994 
-6960 
-6953 
-6970 
-7001 
-6983 
-6906 
-6889 
-6936 
-7007 
-6951 
-6946 
-6976 
-6987 
-6961 
-6923 
-6980 
-6993 
-6897 
-6826 
-6903 
-6974 
-6930 
-6883 
-6884 
-6912 
-6861 
-6825 
-6867 
-6891 
-6870 
-6808 
-6774 
-6882 
-6883 
-6800 
-6795 
-6889 
-6871 
-6731 
-6652 
-6731 
-6789 
-6730 
-6706 
-6783 
-6827 
-6779 
-6660 
-6729 
-6840 
-6774 
-6714 
-6763 
-6813 
-6872 
-6818 
-6865 
-6958 
-6940 
-6889 
-6867 
-6936 
-6966 
-6923 
-6910 
-6964 
-6960 
-6888 
-6851 
-6958 
-7057 
-6967 
-6889 
-6968 
-7032 
-6999 
-6890 
-6880 
-6935 
-6961 
-6867 
-6850 
-6984 
-6958 
-6906 
-6917 
-6959 
-6969 
-6895 
-6881 
-6960 
-7001 
-6935 
-6862 
-6887 
-6965 
-6920 
-6823 
-6885 
-7000 
-6975 
-6830 
-6871 
-7006 
-7008 
-6902 
-6886 
-6996 
-6993 
-6919 
-6867 
-6933 
-6955 
-6900 
-6904 
-6924 
-6982 
-6929 
-6864 
-6878 
-6895 
-6869 
-6863 
-6877 
-7021 
-6989 
-6848 
-6865 
-6971 
-6949 
-6893 
-6878 
-6917 
-6928 
-6914 
-6892 
-6934 
-6941 
-6884 
-6808 
-6883 
-6979 
-6907 
-6843 
-6866 
-6904 
-6854 
-6792 
-6839 
-6919 
-6905 
-6835 
-6851 
-6923 
-6879 
-6829 
-6787 
-6819 
-6806 
-6723 
-6702 
-6818 
-6855 
-6787 
-6721 
-6818 
-6911 
-6847 
-6782 
-6895 
-6922 
-6887 
-6843 
-6850 
-6965 
-6903 
-6821 
-6873 
-6949 
-6945 
-6822 
-6791 
-6890 
-6911 
-6812 
-6833 
-6915 
-6932 
-6863 
-6815 
-6907 
-6971 
-6881 
-6726 
-6658 
-6605 
-6554 
-6631 
-6845 
-6983 
-7078 
-7182 
-7229 
-7190 
-7104 
-7042 
-6950 
-7041 
-7012 
-6889 
-6809 
-6834 
-6892 
-6824 
-6782 
-6816 
-6914 
-6862 
-6779 
-6769 
-6842 
-6806 
-6765 
-6742 
-6841 
-6808 
-6729 
-6771 
-6872 
-6892 
-6810 
-6774 
-6851 
-6899 
-6792 
-6752 
-6801 
-6769 
-6656 
-6612 
-6733 
-6738 
-6693 
-6592 
-6618 
-6695 
-6682 
-6633 
-6619 
-6706 
-6701 
-6631 
-6662 
-6712 
-6696 
-6619 
-6593 
-6661 
-6654 
-6556 
-6542 
-6572 
-6581 
-6528 
-6504 
-6564 
-6628 
-6585 
-6595 
-6649 
-6792 
-6769 
-6681 
-6745 
-6814 
-6844 
-6805 
-6782 
-6807 
-6791 
-6756 
-6709 
-6777 
-6837 
-6727 
-6684 
-6744 
-6785 
-6731 
-6760 
-6799 
-6832 
-6748 
-6683 
-6741 
-6815 
-6773 
-6693 
-6718 
-6769 
-6768 
-6699 
-6690 
-6733 
-6726 
-6666 
-6671 
-6742 
-6785 
-6713 
-6740 
-6794 
-6830 
-6772 
-6691 
-6725 
-6801 
-6733 
-6677 
-6735 
-6830 
-6796 
-6721 
-6705 
-6769 
-6761 
-6710 
-6718 
-6769 
-6779 
-6691 
-6661 
-6743 
-6787 
-6734 
-6705 
-6766 
-6820 
-6750 
-6638 
-6704 
-6812 
-6761 
-6648 
-6697 
-6765 
-6716 
-6674 
-6675 
-6738 
-6738 
-6695 
-6685 
-6761 
-6783 
-6725 
-6669 
-6736 
-6771 
-6717 
-6674 
-6728 
-6755 
-6684 
-6644 
-6680 
-6742 
-6706 
-6657 
-6652 
-6727 
-6725 
-6650 
-6693 
-6728 
-6742 
-6709 
-6711 
-6780 
-6789 
-6671 
-6610 
-6682 
-6709 
-6630 
-6610 
-6733 
-6770 
-6690 
-6599 
-6615 
-6669 
-6588 
-6553 
-6612 
-6668 
-6649 
-6573 
-6562 
-6703 
-6732 
-6664 
-6690 
-6763 
-6747 
-6626 
-6627 
-6711 
-6749 
-6716 
-6593 
-6665 
-6738 
-6678 
-6596 
-6696 
-6794 
-6717 
-6612 
-6644 
-6726 
-6708 
-6648 
-6647 
-6715 
-6667 
-6562 
-6463 
-6475 
-6425 
-6404 
-6578 
-6775 
-6892 
-7002 
-7036 
-7039 
-7011 
-6869 
-6755 
-6726 
-6747 
-6658 
-6578 
-6653 
-6737 
-6682 
-6633 
-6644 
-6697 
-6645 
-6547 
-6567 
-6633 
-6657 
-6614 
-6615 
-6694 
-6730 
-6663 
-6570 
-6627 
-6664 
-6584 
-6504 
-6508 
-6570 
-6584 
-6544 
-6547 
-6585 
-6613 
-6534 
-6531 
-6610 
-6576 
-6506 
-6484 
-6533 
-6515 
-6471 
-6439 
-6512 
-6530 
-6444 
-6385 
-6466 
-6514 
-6431 
-6356 
-6440 
-6508 
-6413 
-6355 
-6401 
-6422 
-6387 
-6329 
-6358 
-6455 
-6439 
-6412 
-6441 
-6570 
-6604 
-6521 
-6494 
-6560 
-6565 
-6598 
-6543 
-6546 
-6651 
-6583 
-6530 
-6564 
-6645 
-6587 
-6506 
-6534 
-6604 
-6619 
-6508 
-6499 
-6600 
-6657 
-6557 
-6558 
-6612 
-6606 
-6517 
-6524 
-6597 
-6626 
-6585 
-6505 
-6559 
-6629 
-6555 
-6456 
-6541 
-6605 
-6512 
-6536 
-6584 
-6644 
-6632 
-6545 
-6538 
-6597 
-6627 
-6560 
-6546 
-6580 
-6609 
-6592 
-6544 
-6581 
-6643 
-6603 
-6499 
-6560 
-6655 
-6591 
-6537 
-6583 
-6667 
-6593 
-6534 
-6581 
-6652 
-6588 
-6542 
-6513 
-6603 
-6635 
-6537 
-6487 
-6590 
-6635 
-6566 
-6510 
-6605 
-6671 
-6586 
-6541 
-6609 
-6651 
-6582 
-6498 
-6517 
-6602 
-6566 
-6499 
-6541 
-6626 
-6604 
-6587 
-6564 
-6618 
-6597 
-6531 
-6547 
-6633 
-6647 
-6576 
-6514 
-6599 
-6627 
-6568 
-6514 
-6542 
-6643 
-6566 
-6466 
-6489 
-6599 
-6568 
-6497 
-6524 
-6599 
-6529 
-6448 
-6427 
-6521 
-6507 
-6486 
-6493 
-6522 
-6585 
-6513 
-6484 
-6580 
-6583 
-6518 
-6482 
-6515 
-6617 
-6588 
-6478 
-6470 
-6600 
-6581 
-6531 
-6593 
-6667 
-6617 
-6506 
-6483 
-6623 
-6619 
-6515 
-6471 
-6565 
-6598 
-6510 
-6433 
-6455 
-6394 
-6223 
-6159 
-6379 
-6632 
-6611 
-6768 
-6943 
-6978 
-6821 
-6646 
-6622 
-6709 
-6615 
-6526 
-6490 
-6572 
-6575 
-6525 
-6473 
-6542 
-6550 
-6444 
-6381 
-6466 
-6531 
-6480 
-6417 
-6462 
-6447 
-6424 
-6420 
-6426 
-6506 
-6518 
-6421 
-6363 
-6455 
-6448 
-6381 
-6380 
-6419 
-6440 
-6370 
-6289 
-6358 
-6447 
-6395 
-6301 
-6371 
-6424 
-6374 
-6279 
-6337 
-6386 
-6336 
-6275 
-6275 
-6338 
-6315 
-6221 
-6239 
-6279 
-6205 
-6184 
-6183 
-6257 
-6246 
-6211 
-6171 
-6257 
-6320 
-6276 
-6241 
-6289 
-6388 
-6323 
-6316 
-6427 
-6498 
-6467 
-6355 
-6382 
-6482 
-6501 
-6405 
-6404 
-6444 
-6462 
-6419 
-6370 
-6450 
-6485 
-6384 
-6414 
-6458 
-6496 
-6442 
-6356 
-6482 
-6536 
-6384 
-6316 
-6391 
-6484 
-6454 
-6352 
-6351 
-6464 
-6442 
-6403 
-6378 
-6475 
-6443 
-6315 
-6339 
-6433 
-6478 
-6427 
-6371 
-6467 
-6506 
-6467 
-6419 
-6442 
-6473 
-6406 
-6406 
-6443 
-6479 
-6442 
-6413 
-6429 
-6493 
-6483 
-6397 
-6385 
-6465 
-6436 
-6367 
-6377 
-6440 
-6532 
-6451 
-6414 
-6455 
-6501 
-6403 
-6383 
-6448 
-6495 
-6431 
-6307 
-6399 
-6525 
-6469 
-6376 
-6383 
-6443 
-6415 
-6320 
-6286 
-6469 
-6418 
-6311 
-6317 
-6418 
-6401 
-6308 
-6304 
-6394 
-6422 
-6365 
-6262 
-6371 
-6508 
-6449 
-6409 
-6423 
-6455 
-6412 
-6426 
-6423 
-6499 
-6496 
-6409 
-6386 
-6461 
-6487 
-6394 
-6394 
-6527 
-6535 
-6421 
-6434 
-6466 
-6474 
-6417 
-6401 
-6452 
-6465 
-6366 
-6230 
-6118 
-6172 
-6265 
-6375 
-6497 
-6717 
-6861 
-6830 
-6724 
-6699 
-6672 
-6519 
-6475 
-6509 
-6523 
-6421 
-6348 
-6406 
-6441 
-6370 
-6291 
-6307 
-6427 
-6385 
-6361 
-6394 
-6441 
-6401 
-6278 
-6292 
-6403 
-6392 
-6316 
-6311 
-6397 
-6449 
-6363 
-6304 
-6347 
-6343 
-6303 
-6274 
-6271 
-6291 
-6272 
-6212 
-6210 
-6307 
-6263 
-6207 
-6212 
-6311 
-6241 
-6187 
-6202 
-6253 
-6260 
-6178 
-6118 
-6202 
-6231 
-6111 
-6104 
-6153 
-6206 
-6118 
-6057 
-6141 
-6203 
-6167 
-6115 
-6170 
-6253 
-6207 
-6175 
-6238 
-6309 
-6319 
-6329 
-6319 
-6363 
-6341 
-6275 
-6282 
-6377 
-6404 
-6354 
-6338 
-6348 
-6387 
-6330 
-6263 
-6323 
-6405 
-6365 
-6268 
-6332 
-6351 
-6273 
-6241 
-6274 
-6333 
-6319 
-6217 
-6241 
-6358 
-6338 
-6243 
-6268 
-6378 
-6376 
-6255 
-6214 
-6336 
-6375 
-6296 
-6236 
-6277 
-6309 
-6272 
-6225 
-6297 
-6364 
-6332 
-6271 
-6312 
-6397 
-6362 
-6288 
-6289 
-6372 
-6385 
-6277 
-6235 
-6376 
-6404 
-6311 
-6226 
-6342 
-6392 
-6315 
-6303 
-6369 
-6421 
-6353 
-6274 
-6318 
-6401 
-6375 
-6331 
-6325 
-6371 
-6346 
-6263 
-6180 
-6271 
-6329 
-6222 
-6188 
-6289 
-6356 
-6294 
-6238 
-6247 
-6304 
-6201 
-6166 
-6209 
-6282 
-6222 
-6213 
-6342 
-6415 
-6348 
-6273 
-6312 
-6355 
-6380 
-6290 
-6270 
-6397 
-6344 
-6279 
-6224 
-6325 
-6352 
-6229 
-6239 
-6357 
-6380 
-6303 
-6256 
-6352 
-6432 
-6357 
-6292 
-6334 
-6363 
-6204 
-6028 
-6014 
-6134 
-6270 
-6315 
-6416 
-6675 
-6758 
-6631 
-6533 
-6545 
-6460 
-6352 
-6325 
-6395 
-6416 
-6303 
-6245 
-6314 
-6379 
-6288 
-6212 
-6240 
-6330 
-6266 
-6192 
-6229 
-6326 
-6280 
-6234 
-6245 
-6338 
-6353 
-6284 
-6233 
-6286 
-6306 
-6251 
-6193 
-6236 
-6259 
-6190 
-6158 
-6176 
-6211 
-6211 
-6137 
-6135 
-6236 
-6220 
-6125 
-6117 
-6263 
-6256 
-6121 
-6089 
-6140 
-6211 
-6104 
-5998 
-6047 
-6127 
-6119 
-6025 
-6056 
-6120 
-6040 
-6005 
-6070 
-6079 
-6075 
-6076 
-6106 
-6203 
-6177 
-6088 
-6189 
-6285 
-6270 
-6221 
-6232 
-6386 
-6382 
-6260 
-6239 
-6317 
-6362 
-6302 
-6235 
-6268 
-6305 
-6262 
-6198 
-6241 
-6327 
-6235 
-6139 
-6205 
-6282 
-6279 
-6253 
-6211 
-6292 
-6294 
-6177 
-6185 
-6296 
-6342 
-6280 
-6243 
-6284 
-6310 
-6296 
-6197 
-6233 
-6255 
-6202 
-6182 
-6228 
-6229 
-6196 
-6165 
-6257 
-6334 
-6338 
-6253 
-6246 
-6318 
-6317 
-6230 
-6195 
-6261 
-6281 
-6202 
-6196 
-6249 
-6277 
-6198 
-6167 
-6236 
-6350 
-6255 
-6177 
-6306 
-6357 
-6271 
-6196 
-6231 
-6260 
-6260 
-6228 
-6289 
-6301 
-6275 
-6183 
-6207 
-6275 
-6277 
-6191 
-6170 
-6280 
-6270 
-6162 
-6165 
-6197 
-6264 
-6211 
-6181 
-6216 
-6252 
-6132 
-6062 
-6065 
-6163 
-6188 
-6129 
-6156 
-6223 
-6223 
-6144 
-6119 
-6224 
-6345 
-6288 
-6205 
-6288 
-6322 
-6245 
-6232 
-6266 
-6307 
-6250 
-6197 
-6238 
-6271 
-6271 
-6184 
-6181 
-6291 
-6261 
-6153 
-6205 
-6265 
-6218 
-6131 
-6013 
-5929 
-5951 
-5979 
-6105 
-6362 
-6544 
-6630 
-6589 
-6552 
-6532 
-6408 
-6281 
-6306 
-6326 
-6285 
-6210 
-6179 
-6236 
-6246 
-6177 
-6176 
-6231 
-6250 
-6163 
-6169 
-6233 
-6217 
-6084 
-6077 
-6195 
-6245 
-6165 
-6116 
-6203 
-6279 
-6200 
-6145 
-6184 
-6231 
-6172 
-6095 
-6089 
-6220 
-6144 
-6046 
-6030 
-6136 
-6138 
-6072 
-6056 
-6125 
-6109 
-6045 
-6017 
-6107 
-6163 
-6053 
-5950 
-5973 
-6038 
-5941 
-5935 
-6022 
-6058 
-5991 
-5913 
-5892 
-5996 
-6014 
-5957 
-5965 
-6082 
