-636.7788477872429,-2086.378882691727,-2213.4932534090585,-925.0492960273381,-620.5291295682347,-1872.3609295321621,-2368.390842484336,-1139.402525353733,-466.9055899269092,-1611.0913885940777,-2394.497680008135,-1335.2038067822227,-353.40343158286,-1311.0862745149464,-2352.6105108988895,-1502.7301314747492,-315.69603868675694,-968.9257703931058,-2247.0879253253847,-1724.8170643826802,-364.69106253279006,-695.7203979158876,-2057.612187577747,-1927.4132761255833,-528.1493697344506,-532.843236070065,-1905.2850491148292,-2099.32054273135,-763.3120731487362,-345.69207974577904,-1612.052513605656,-2185.732386795567,-915.6168598671985,-184.87127838984472,-1308.4040651803095,-2256.9673963746304,-1218.6394594477963,-226.5796335434477,-1172.1478309807576,-2376.1916012992383,-1628.1234178690218,-649.9663770158741,-1947.5298461353598,-3180.519125523463,-2573.8257257730634,-1147.4715051020987,-1408.9869152291913,-2709.29964891668,-2593.048226004628,-1190.588020156386,-1044.854646307784,-2397.693979465244,-2626.3746769874906,-1301.9220592882705,-905.2903539288467,-2065.167077203641,-2612.226022747281,-1372.419461300309,-586.7556436962657,-1674.1009562135885,-2579.4807171202565,-1535.766009779693,-513.5536806051351,-1361.0424233725576,-2523.489597259712,-1782.6410272885594,-609.8449957185979,-1209.9222791102266,-2514.392437266402,-2131.4399995136264,-806.607402158666,-1063.5407046724206,-2432.4062386043356,-2421.2974216100483,-1073.5319344439429,-884.3244176297686,-2236.15792228674,-2504.5800214505225,-1143.850522500339,-723.6600784850215,-1928.9778982374548,-2504.3341522615137,-1286.611114336385,58.963901873100035,-676.8555255956085,-1795.716797794914,-971.2280000720025,55.11940182678722,-801.6229631451325,-2053.544170086881,-1442.7827528456155,-291.8690790973996,-808.3731899706353,-2135.3292030488496,-1849.6068536766595,-518.8733957854981,-719.9049854165298,-2045.8551699942554,-2062.0825364688085,-728.7562762208315,-536.7324396052885,-1900.1888513790193,-2268.9702831471304,-965.4165465136226,-432.99799358820843,-1694.7316163458368,-2408.5569272705234,-1236.744372456595,-450.074726352063,-1473.2705322826544,-2417.274107608093,-1479.6854829413276,-403.5830978850243,-1173.332473436889,-2419.7104477537214,-1752.1308961070654,-441.8716361369653,-936.1581130216257,-2361.662967403289,-2023.2352046054848,-651.8886270390304,-697.128557816572,-1997.2401258039627,-1978.2187912724962,-587.4485477743802,-303.73785540316766,-1624.0554003781558,-2095.2748769849395,-1028.113189710759,-636.063591964673,-2007.4325212755825,-2789.095376622126,-1604.9893623577789,-659.1082404980947,-1604.8552518910471,-2624.5641856866105,-1668.75888928877,-516.7499800622439,-1263.7899832475166,-2432.7415147711654,-1849.360984487651,-532.7314773477885,-971.8538489167511,-2336.561958379979,-2074.9124377861544,-680.5882669196448,-751.8232764987083,-2178.6915872921454,-2211.414541174715,-864.5431237868219,-598.5797165131231,-1958.392793940639,-2418.1234738973944,-1138.1284759197804,-557.0725270596179,-1833.781818602302,-2603.553545898622,-1428.924671283325,-478.975531932775,-1550.3616989090085,-2755.54540819471,-1841.9849088173996,-649.7875630602316,-1348.771315666594,-2557.5089523206893,-1978.710529650513,-661.0304905212511,-1064.077146539348,-2413.0272761615847,-2195.142471211251,-793.8222043302303,-800.34891371118,-2213.023866775497,-2389.334427038959,-936.1581130216257,-582.8664401610423,-1934.0740959732648,-2426.8630059794195,-1167.2527989450455,-481.0542441671186,-1634.0689818941335,-2504.267097028148,-1396.7828627565937,-388.71918782224515,-1392.3795690988982,-2547.9200539493627,-1689.6354186100268,-479.2437528662387,-1227.7366194411063,-2571.322330394069,-2031.840626220778,-697.0391508387507,-1075.0295013224486,-2610.8178628465967,-3090.2180779240225,-1781.5010883213388,-1586.2809522486868,-2874.3002264857564,-3008.053065306314,-1567.3266729505865,-1132.138208405758,-2435.759000272632,-2943.3894685971104,-1652.4868193253064,-926.6809733725755,-2076.1641354756516,-2970.0327479878365,-1878.4406040240056,-879.5187925718776,-1818.783798072791,-2980.023977759359,-2138.056115872397,-904.7986155508299,-1558.9000652909358,-2878.323540487712,-2388.6415229608447,-1022.7264192970299,-1314.9531263057145,-2748.6610709024753,-2602.905345309418,-1181.3791014407996,-1187.1234997658134,-2629.3698107445016,-2972.6702538335626,-1654.431421092918,-1235.7608957005616,-2479.0543292825614,-3001.7722251143728,-1641.7356302423038,-868.40997557759,-2008.7512741984458,-3070.7050050145394,-2073.8619057967553,-1076.080033311848,-1978.8446401172448,-3070.816763736816,-2121.5605284643802,-652.0227375057623,-1152.1430196932579,-2546.0201556706616,-2229.63121290579,-728.4880552873678,-476.33802608704883,-2086.8929728141993,-2235.085038552885,-922.0094587814164,-880.8151937502854,-2268.992634891586,-2540.5663300235665,-1112.26750758499,-548.8247333556096,-1839.392106460584,-2443.716221298721,-1131.758228750018,-293.4113494648158,-1481.4959742422075,-2560.6381965444325,-1539.0740679590783,-453.71806069827807,-1370.8101356995269,-2635.4047817474348,-1970.619198157692,-666.1713917459717,-1215.4655117351429,-2608.0238947896833,-2257.2579690525495,-879.8764204831625,-1057.5951406473089,-2485.692797385788,-2459.6753668398105,-1009.7624075129519,-840.962033386473,-2244.1374950572845,-2529.0775333735387,-1026.8167885323512,-387.62395234393506,-1600.1613855554326,-2287.857507211865,-976.4806600189996,-101.56632680491529,-1355.1415628363566,-2642.8255609065964,-1843.2142547624417,-712.1489300905383,-1497.3210093165649,-2691.060625441149,-1859.0839933257096,-491.5595640611129,-994.920849194628,-2418.14582564185,-2072.6549115961684,-561.3864137394922,-707.2315463103707,-2165.5264098079697,-2190.3368461533605,-772.6103988421439,-604.8605567050644,-2020.4412365485714,-2358.0866882904397,-904.0833597282601,-283.08484352646394,-1579.508373678729,-2402.6784184787775,-1229.7259246976287,-328.6600504708351,-1533.3520213785198,-2675.772032233719,-1708.9920293083228,-515.4535788838361,-1289.6733033267622,-2537.1241613774496,-1841.2473012503747,-430.62870867594586,-881.4633943394894,-2369.8437058739314,-2083.7860803349117,-637.3152896541703,-779.5394396232891,-2272.010120393052,-2299.8156904954544,-732.4890175448678,-385.92521976533175,-1805.1045304661432,-2256.9450446301753,-905.1115399732042,-291.4443959527488,-1627.698734724371,-2428.8970147248524,-1271.3672246178658,-367.5073823341587,-1425.191929959289,-2489.8055183655642,-1598.4179494879186,-356.44326882878175,-1095.88367889925,-2410.456825549224,-1785.2561813898303,-349.6706902588237,-754.5501893222558,-2180.85970650431,-1947.6416048576361,-478.7967179771326,-486.64218028094535,-1912.5493660628042,-2555.586702297533,-1444.705002868772,-924.825778582785,-2268.635006980301,-2754.159600038481,-1319.3787717078653,-610.001457929785,-1918.80785451029,-2808.4296355759666,-1606.8222054031141,-572.1376028224948,-1617.9086706529465,-2806.283868108257,-1952.1119537486977,-718.8544534271305,-1409.4786536072081,-2793.342208068634,-2244.383364246293,-807.5238236813335,-1218.035962347503,-2652.034479622183,-2399.5491742550344,-1004.4873958214994,-955.3135580198239,-2400.912630666808,-2560.906417477896,-1050.040251021415,-605.2852398497153,-1969.2557417459182,-2561.0181762001725,-1227.6919159521958,-476.8968196984315,-1725.3535062496076,-2552.099830162505,-1451.2764157386323,-480.6519127669231,-1506.06054139859,-2707.5562128491656,-1940.9360815210441,-704.7281509313764,-1405.321229138521,-2831.6083945761197,-2325.766065808066,-922.3447349482459,-1246.7579539725727,-2679.705939257853,-2532.5420537641116,-1124.1809873796687,-1129.8583304713168,-2711.7583408067635,-2981.566248126775,-1481.160698075378,-997.7371689959966,-2362.624092414867,-2955.6829280475295,-1638.5393307851948,-909.0677987417936,-2111.4351882261262,-3082.1267464312014,-2008.7959776873563,-952.988976596472,-1520.052733427612,-2292.461966569658,-1680.0465202387002,-561.878152117509,-1310.6392396258402,-2838.917415013005,-2440.8551980084417,-1060.9926058045157,-1409.7692262851272,-3004.4767861934647,-2983.4884981499313,-1573.5628096536173,-1513.34721009102,-3015.2950305098334,-3293.104862344845,-1874.9984353778882,-1479.5960759635063,-2851.8367233081726,-3505.9158213038236,-2217.8741953222984,-1400.157976169345,-2550.401097583902,-3452.673966011282,-2309.2481266555938,-1154.2440836720566,-2008.5948119872585,-3268.9426265886577,-2481.065986283539,-1338.4448097282423,-2195.410692144715,-3687.568448492104,-3348.7607060385594,-2002.6715997066021,-2131.1494268357073,-3536.4259524853173,-3534.0119640841444,-2097.5547549193807,-1963.0419567873428,-3404.7518258991036,-3733.143655436475,-2335.6902403462223,-1818.4708736504167,-3085.9712464775143,-3718.816187240623,-2516.4040942673796,-1689.4119011654736,-2781.540486996232,-3797.851955634589,-2733.774809095241,-1650.3857553465075,-2514.168919821849,-3744.8112660421452,-3002.5545361703084,-1638.8746069520244,-2164.1406016517403,-3539.711658920248,-3118.8283108268156,-1687.6014098645937,-1822.2259667189082,-3338.769476267037,-3320.6869150026937,-1843.0130890623439,-1670.8152497786582,-3120.7729125944275,-3456.2278933796756,-2043.865864737733,-1494.705855215294,-2788.089548121637,-3518.3657429654295,-2276.3463588173818,-1339.6965074177394,-2394.2741625635817,-3426.835349420947,-2459.518904628623,-1270.9201897287596,-2086.803565836378,-3323.525586548518,-2609.7673308571975,-1243.1146196263576,-1772.0015969278334,-3148.265558274455,-2805.5239087967766,-1356.2367983146667,-1482.702968442794,-2954.25241640239,-2939.7014307619847,-1491.0625208690788,-1273.6918060412177,-2691.3735498635233,-3044.687574468562,-1720.078494558155,-1204.2896395074893,-3057.2939583413554,-4130.691782318567,-2713.7476460632856,-1703.8064245946914,-2687.551401561666,-3710.5236900477043,-2756.7300506508413,-1611.5384234831838,-2405.7406074691544,-3660.9698725902886,-3023.1628445581014,-1681.9911220063118,-2180.502078593025,-3621.206119204297,-3303.9901618945796,-1851.7302693999136,-1958.549256151826,-3419.325163283964,-3460.295910870542,-2035.1710361446187,-1735.4341429989508,-3124.8632818297488,-3552.2062840707645,-2182.312569893905,-1521.72911426176,-2796.024417403271,-3621.6531540934034,-2425.365439100914,-1478.76906141866,-2559.7664785106754,-3670.5140674727045,-2799.3324755826566,-1620.0097346317452,-2443.7609247876317,-3744.498341619771,-3137.6484796581844,-1709.7966921087138,-2181.9772937270754,-3657.661814410903,-3397.934543840235,-1914.9633544639773,-1940.6231570986697,-3384.344683211408,-3490.247248440653,-2027.0797046517976,-1671.0611189676665,-3068.760403246928,-3549.144095080387,-2255.402774262759,-1611.4490165053626,-2849.4897901403656,-3707.394445823961,-2587.907324779907,-1624.3012695671644,-2662.6962617273643,-3817.588545988625,-2960.376794383144,-1779.6458935315484,-2446.1302096998943,-3781.065795548653,-3242.6122716203063,-1854.7924583902907,-2271.1831058482057,-3682.4946025007494,-3448.583596775961,-2001.5987159727474,-1980.6104279292142,-3452.4951520556397,-3658.0641458110986,-2195.8130235449107,-1821.5330626407938,-3212.9962102170243,-3826.0598571371866,-2539.4710945452566,-1808.5243473678051,-3025.800350403828,-3928.6990676759565,-2827.3839148740667,-1791.7381872818694,-2754.003137827294,-3916.2714977588057,-3069.3862520916764,-1821.8012835742575,-2505.9211261178407,-3815.75570294329,-3293.3954350227636,-1863.5096387278604,-2186.2688286624943,-3623.9106802833894,-3433.3397070574415,-1842.1860745174974,-1723.3865527375403,-3096.655380327151,-3283.1806878066886,-1804.2551641768414,-1368.485554276175,-2915.494491516887,-3768.749984353779,-2639.226930049292,-1962.9301980650662,-3157.496828734497,-4100.963962193008,-2959.415669371566,-1890.2870285853182,-2881.47513645591,-4023.269298466361,-3157.8991601346925,-1838.430981449006,-2469.4877826556904,-3765.821905830134,-2657.778877947197,-993.6244480162202,-1453.4892384397076,-3009.081245551258,-2879.66464515503,-1492.5153842586737,-1450.672918638339,-2930.984250424415,-3207.497681081019,-1789.882992492079,-1378.5214875366078,-2771.4374985024333,-3464.0063004501226,-2234.7497623860554,-1470.7894886481154,-2677.9177997014285,-3635.8688635669787,-2564.9520832243065,-1469.3366252585204,-2427.4441513352576,-3700.7336259762797,-2896.607267452153,-1547.9700622522905,-2202.8091195594216,-3520.4221034553175,-3017.172577044079,-1599.5802401995945,-1827.5680336437267,-3250.1448095017445,-3183.491907536019,-1723.72182890437,-1589.2090307723322,-2984.8072510727943,-3319.7928452244814,-1944.6017676117144,-1445.0849825245123,-2742.871969088551,-3451.2434543661425,-2194.807195044422,-1394.2347638886886,-2486.9891985641957,-3494.3376176759743,-2471.722957101221,-1350.9617866232143,-2238.6613176657343,-3406.0482270775115,-2693.8769452425176,-1392.4019208433535,-2360.27715924706,-4215.583707759823,-3687.143765347453,-2125.449731999604,-2263.5835127334017,-3719.3526291075505,-3682.762823434213,-2185.4641658621035,-1996.8154426593117,-3493.152975219843,-3845.8635027245887,-2455.7638115601317,-1879.0441011242988,-3245.339184443854,-3976.397690343582,-2716.0498757421824,-1843.3483652291734,-2960.980291483437,-3971.4356030745034,-2955.280596647334,-1728.4380469844398,-2545.7742864816532,-3821.9024326684994,-3119.7894358383937,-1678.3254359156415,-2160.4302120721595,-3603.123557939954,-3243.4392861651527,-1808.0549607342437,-1982.4432709745493,-3488.7496815621475,-3534.928385606812,-2122.3875430092266,-1925.871005758167,-3344.0891914474005,-3761.6644813614466,-2408.7133894817102,-1824.6623068645367,-3137.0449825578908,-3907.7331313768786,-2660.505790770744,-1708.7238083748591,-2807.066179164193,-3832.206586862396,-2792.8728214350726,-1585.40923421493,-2393.8941829078417,-3642.0602967810987,-2961.3602711391773,-1593.7687866412148,-2139.821903684366,-3553.9720718827334,-3060.6467200096513,-901.3564469047126,-1038.3279369268344,-2676.062604911638,-2840.7726098027956,-1497.5445267611178,-1322.5080159316083,-2776.6007514716093,-3307.745254963071,-1947.0604595017983,-1300.2680301985777,-2615.9587640713175,-3463.9392452167567,-2309.3151818889596,-1309.4098936807984,-2397.8057381875205,-3494.248210698153,-2626.687601409865,-1483.7535004321935,-2241.924672356209,-3532.3355832499965,-2910.532404247809,-1520.2986026166204,-1993.5073844799263,-3459.8488759814354,-3174.595913242807,-1709.5061194307948,-1787.6701697910037,-3252.223521736088,-3330.4099238407525,-1819.5661091287268,-1602.9330018678907,-3036.7527051869283,-3529.1392837928875,-2154.641110258235,-1476.6009422064951,-2722.8671578010512,-3578.827211717035,-2403.6171917459,-1485.2287155662436,-2542.5109317911783,-3717.0056959397434,-2863.2361129803794,-1590.5277836951952,-2371.5424384525345,-3731.847254258067,-3137.469665702542,-1728.370991751074,-2114.2962115164055,-3475.0033587221337,-3149.33844200831,-1515.671791514372,-1503.7583117196932,-2968.5798845982417,-3058.098621141746,-1703.8511280836021,-1629.375115558519,-3217.041875963435,-3753.7743155687235,-2361.014766814085,-1588.7843476276814,-2827.2945078962457,-3673.3974425074393,-2452.947491758763,-1465.8721048679479,-2523.5790042375334,-3716.178681394897,-2885.3866917355886,-1581.9000103354467,-2254.307538784449,-3704.9804574227883,-3160.2460933024995,-1705.52750891775,-2149.544912522425,-3623.083665738543,-3377.90738080828,-1943.2830146888514,-1907.1402439046199,-3365.0104242575676,-3540.5386734650942,-2060.9202457571323,-1662.8356770081136,-3033.9363853855593,-3562.80101094258,-2269.953759903164,-1509.3015443446095,-2702.6164773245428,-3618.881537780945,-2446.0855062109836,-1414.1948716872778,-2416.201223874238,-3606.5210230971607,-2775.505515993299,-1490.0566923685901,-2191.208564187117,-3604.1070346959873,-3045.5145890134086,-1636.1923976173875,-2016.5967365022584,-3511.436702184284,-3316.0824556449006,-1852.6690426670366,-1795.3368181391738,-3256.3809462047752,-3526.41237096934,-2041.5189315699258,-1607.179833314399,-2946.2281401429345,-3539.421086242329,-2206.7206748391004,-1394.6817987777947,-2548.1882748828266,-3498.383283422385,-2372.0565285750067,-1251.7200412416507,-2287.365768833848,-4105.434311084069,-3520.243289499675,-2071.023234250931,-2624.4300752198787,-4020.900013554098,-3557.727164951225,-2095.4983944294922,-2387.6803979492665,-3907.4425586989596,-3790.3417694976056,-2333.142141478317,-2264.4552307671584,-3771.231027988318,-4083.9766364069746,-2607.2415837337476,-2117.6936766736126,-3504.8205858255133,-4126.713171805522,-2771.7504229248075,-1925.647488313614,-3091.4921273579753,-4019.8494815646986,-2902.5528314772646,-1756.333024064663,-2686.2102968943473,-3930.554262465747,-3110.9828485230028,-1747.0570501157106,-2409.04866564854,-3835.0229066637644,-3367.7596888255703,-1925.0886947022314,-2191.186212442662,-3728.047457700665,-3684.1262798459866,-2201.892698036754,-2087.742339103501,-3556.117839350443,-3827.0880373821306,-2422.727933255188,-1977.77175638339,-3315.344848077875,-4036.7921038618215,-2765.223713543858,-1839.4815134384053,-2995.7149023669845,-4014.5968216177016,-2883.576200434709,-1808.010257245333,-2706.751550048775,-3950.2461493308724,-3195.0477594194126,-1598.1944320433656,-1486.2121923222771,-2948.038631443814,-2679.3706630910237,-1314.2602222276,-1601.3907315004744,-3180.29560807891,-3233.6715738381836,-1791.4029111150398,-1686.0367877527224,-3114.089741002291,-3496.3269229324965,-2110.9210981036545,-1620.7696939432258,-3014.9374025985485,-3820.0248861342534,-2517.208757067771,-1683.5780958626385,-2901.055264598759,-3955.945844166976,-2972.7149573224733,-1803.137576954076,-2689.6301137960095,-4016.2955541963047,-3282.2195627951105,-1870.326920786729,-2352.3199382209705,-3849.9091684709992,-3438.2570908376088,-1943.104200733209,-2122.3651912647715,-3520.3326964774965,-3515.549423164061,-1988.3441315107505,-1804.7021990659475,-3297.262286813532,-3627.9116425408893,-2242.5952246898682,-1733.0872098311438,-3080.629179552696,-3843.9636044458875,-2609.5214616681887,-1727.5886806951382,-2902.1728518215245,-3988.758205027367,-2993.1891552435345,-1853.6078159341594,-2726.935175291917,-4016.1167402406622,-3301.8220426824146,-1874.4843452554162,-2344.0944962614176,-3767.721804108835,-3285.46056574113,-1709.9978578088114,-1721.4419509699287,-3160.6037212137844,-3166.4822300055303,-1678.8618777825689,-1591.310094751131,-3332.6674500307386,-3887.616561367102,-2539.940481178818,-1927.681497059047,-3195.852422219804,-3960.6397105025903,-2677.224895623314,-1690.7083023438815,-2807.4238070754777,-3938.198559069462,-2938.4050295835773,-1714.6470206555155,-2603.6653046208985,-3930.263689787828,-3294.2448013120656,-1867.1306213296202,-2309.5834028224235,-3764.1902284848966,-3508.866251571924,-2064.0047864919648,-2173.349520367327,-3652.364450974995,-3734.775332781712,-2236.53790194248,-1988.388834999661,-3405.6235439328607,-3843.6283282790578,-2462.7152040857322,-1811.0947979801654,-3083.266685398422,-3893.8526980701326,-2597.1385952399487,-1603.98353385729,-2672.19575312087,-3754.4448679023826,-2789.184783599947,-1598.9990948437567,-2418.816377975509,-3738.016335727732,-3079.6457027966626,-1677.6101800930717,-2169.080337176363,-3717.0503994286537,-3479.317245402008,-1992.4121490016162,-2171.00258719952,-3563.2256940872307,-3677.2195908092967,-2229.0724192944076,-1902.2452118689075,-3320.172824880222,-3757.2835394482067,-2375.7445664101324,-1684.628627852038,-2903.3574942776554,-3738.016335727732,-2530.530396763134,-1802.8693560206123,-3554.307348049563,-4517.5334236065655,-3489.599047851449,-2114.1397493052186,-2787.2401818323356,-4140.593605112267,-3531.7320861497033,-2102.963877077565,-2573.22222867277,-4036.970917817464,-3806.882060394533,-2372.883543119853,-2458.937759272785,-3946.491056262381,-4116.319610633804,-2659.09763087006,-2368.6814151622552,-3786.9666560848545,-4356.846732717363,-2936.996869682893,-2199.344599168849,-3503.0771497579995,-4353.248101860059,-3155.8875031337147,-2090.312789715861,-3074.5048015719417,-4192.9860941155075,-3232.643393593239,-1995.1390618251637,-2727.605727625576,-4081.0709096277847,-3492.504774630639,-1977.5482389388371,-2360.6124354138897,-3870.4504216254263,-3726.728704777802,-2227.9324803271866,-2284.013007165552,-3783.278618249729,-3935.449294501459,-2546.7577632376865,-2191.0744537203855,-3582.9175809523563,-4222.579803774333,-2839.699726068941,-2082.355568689772,-3334.5673483094392,-4276.916894545186,-3161.631901458729,-2042.5918153037805,-2981.879172549149,-4202.373826786737,-3287.6286849532944,-1967.4452504450383,-2643.3396510290686,-4025.616231634168,-3463.581617305472,-1634.0019266607676,-1389.2950283640657,-3017.2396322774453,-2997.0783587787582,-1627.0728858796224,-1690.9988750218006,-3241.6064431198174,-3555.693156205792,-2134.1445605927183,-1731.075552830166,-3184.497736036508,-3866.6059215791133,-2555.072612175061,-1787.133727924076,-3046.1627896026125,-4022.8446153217096,-2916.2544508283677,-1823.3882574305842,-2806.350923341623,-4071.2361420674497,-3238.298384940432,-1893.7962524648015,-2532.139722363916,-3964.97594892692,-3450.639957265849,-2006.8960794086552,-2319.8428535274093,-3774.6731966344355,-3636.2041397338085,-2160.0949359053297,-2092.346798461294,-3542.1703508103315,-3826.2163193483734,-2389.200316572227,-1871.9585981319665,-3261.946530574147,-3943.4735707609143,-2626.1288077984823,-1794.755672783336,-3040.0160598774028,-4161.470134433524,-2974.704262578996,-1793.7274925383917,-2650.358098788035,-3820.6283832345466,-2937.0639249162587,-1664.690871797904,-2296.9993706940854,-3844.2765288682617,-3582.112918151965,-2300.59800155139,-2608.4932814232448,-4080.1097846162065,-3949.910873164043,-2317.1382924483173,-2132.4681797585704,-3566.3549383109735,-3884.0849857431635,-2432.6744595377995,-1889.3482553181955,-3240.712373341605,-3958.6280535016126,-2644.5242934852,-1823.8352923196903,-3034.2269580634784,-4086.1447556191392,-3080.6962347860617,-1875.780746433824,-2827.9427084854497,-4160.777230355409,-3432.199768090221,-2061.4343358796045,-2671.234628109292,-4050.024336579363,-3653.079706797565,-2187.766395541,-2388.619171216389,-3918.7748931378,-3793.56042069917,-2305.9624202206637,-2127.640202956224,-3567.047842389088,-3889.359997434616,-2437.413029362325,-1923.7922935238237,-3236.3984866617307,-3974.721309509434,-2712.6524105849758,-1811.0947979801654,-2948.8209424997503,-4042.000060319908,-2996.2289924894562,-1827.657440621548,-2744.2354255003247,-4027.896109568609,-3300.4809380150964,-1900.2112031234747,-2448.432439378791,-3852.747840016823,-3497.8915450443683,-2025.0456959063645,-2168.5662470538914,-3665.4849249702606,-3633.43252342135,-2086.1330135027188,-1860.0004148483772,-3359.221322443643,-3816.1580343434853,-2390.3179037949926,-1826.9198330545228,-3152.4453344875974,-3932.0518293442524,-2738.513378919766,-1830.3172982117294,-3019.4971584674313,-4710.898364889427,-4124.925032249097,-2739.832131842629,-3454.6632712678042,-4667.223056223757,-3968.97691118442,-2488.3526549759695,-2932.1912446250017,-4378.796145772475,-3970.3850710851043,-2487.883268342408,-2678.074261912616,-4141.755895823943,-4204.519594254446,-2679.7282910023087,-2414.927174440286,-3940.1878643259843,-4359.327776351903,-2918.4896252738986,-2307.88467024382,-3609.8961365099117,-4457.5413414885215,-3256.8503328383367,-2236.3143844979268,-3292.836641411381,-4446.253710538592,-3426.097741853922,-2241.5446927004687,-3037.7138301985065,-4359.327776351903,-3712.3788848374948,-2273.083004126907,-2714.507605374766,-4170.477887449013,-3843.918900956977,-2343.2898334610263,-2447.3148521560256,-3975.481268820914,-4062.094278585229,-2581.7605950546977,-2344.005089283596,-3817.521490755259,-4277.6321503677555,-2900.7423401763845,-2253.860503895343,-3584.5269065531384,-4452.981585619639,-3224.037971977946,-2217.024829032997,-2933.465294058954,-3474.511620344117,-2643.205540562337,-1501.7466547187157,-2417.877604708386,-3844.9694329463764,-3214.2255561620664,-1809.1948997014642,-2300.2180218956496,-3805.6303627050356,-3546.551292723572,-2057.969815489032,-2129.987136124031,-3658.466477211294,-3823.2435373358176,-2326.7718943085547,-2029.4042860751495,-3497.377454921896,-4038.3790777181484,-2652.2356453222806,-1957.4093171846055,-3269.233199266577,-4141.264157445927,-2957.3593088816774,-1985.416052987105,-3046.051030880336,-4248.038440708929,-3394.537078683028,-2122.7898744094223,-2840.906720269528,-4181.989035843496,-3585.5103833091716,-2149.3660985667825,-2558.0230424431616,-4083.0155113953965,-3883.883820043066,-2360.8136011139873,-2310.052789455985,-3793.716882910357,-3909.3424569776607,-2331.465760644169,-1895.5173367878601,-3242.366402431298,-3724.046495443165,-2389.3791305278696,-1793.4369198604727,-3266.3051207429316,-4369.363709612335,-3333.4050575977635,-2307.080007443429,-3329.8287784849144,-4564.136810795881,-3608.1974039313086,-2253.2570067950496,-2976.626512602152,-4321.218052055604,-3737.1669694384304,-2284.013007165552,-2667.0548518961496,-4118.666543801612,-3912.650515157046,-2396.822261431487,-2326.660135586278,-3849.015098692787,-4085.518906774391,-2631.001488089739,-2259.7837161759994,-3644.3625264599955,-4272.312435187392,-2972.6702538335626,-2139.1066478617963,-3349.252444416576,-4316.61359269781,-3152.8029623988823,-2051.487809596993,-3101.148080962668,-4313.461996729612,-3429.4058000333075,-2080.545077388892,-2734.4677131733556,-4150.406020928147,-3674.2915122856516,-2214.8790615652874,-2473.265227468637,-3961.9361116809982,-3833.5923950186248,-2349.9283015642527,-2282.7166059871442,-3817.7003047109015,-4091.2409533549494,-2628.4757409662893,-2124.6003657103024,-3496.5727921215052,-4166.231056002504,-2823.8076357612176,-1979.4704889619934,-3186.397634315209,-4201.233887819515,-2988.852916819205,-1892.008112908377,-2800.852394205617,-4040.3683829746706,-3188.1634221271784,-1851.3279379997182,-2486.4751084417235,-3914.9303930914875,-3480.0772047134883,-2058.9085887561546,-2407.081712136473,-3958.0469081457745,-3906.8390615986664,-2597.8538510625185,-3268.517943444007,-4820.7124853983505,-4996.285438094787,-3453.836256722958,-2922.24471834239,-4247.591405819822,-4910.275925430766,-3511.1908329952757,-2622.9101565969177,-3798.366045757061,-4767.3588713835325,-3629.9680030307777,-2450.3546894019473,-3311.2097753536436,-4538.365249438912,-3756.3447661810837,-2425.298383867548,-2950.1620471670685,-4400.700855338676,-3984.4666700919474,-2482.384739206402,-2760.2392745303246,-4331.566909738411,-4262.343557160325,-2779.126498595059,-2635.382430002979,-4149.131971494195,-4489.07965291496,-3050.588435004763,-2470.1136315004387,-3829.546729272214,-4559.6217584159085,-3248.490780412052,-2310.276306900538,-3434.5914047469387,-4490.264295371091,-3463.3133963720084,-2277.732166973611,-3137.0002790689805,-4395.627009347321,-3665.753145903724,-2288.4163008232476,-2860.2409792233684,-4313.372589751791,-3906.2355644983727,-2331.8457402999093,-1918.0478951988096,-3241.5617396309067,-3404.48360496564,-2045.6540042941576,-1884.5426302603043,-3428.064695365989,-3942.221873071417,-2547.7412399937202,-1987.517116965904,-3374.0181772730566,-4197.411739517658,-2999.0229605463696,-2110.831691125833,-3276.586923192373,-4388.1615266992485,-3347.1513804377773,-2106.249583512495,-3031.3212312842884,-4362.479372320101,-3637.2323199787525,-2242.7293351566,-2763.2120565428804,-4123.315706648315,-3773.17562975593,-2313.025571468541,-2459.1612767173383,-3892.19866898044,-3935.292832290272,-2517.6110884679665,-2334.5503013790017,-3715.3516668500506,-4180.49146896499,-2840.7279063138853,-2301.1344434183175,-3654.085535298054,-4459.485943256133,-3282.5995424508505,-2344.7650485950767,-3484.1005187154437,-4577.0561190910485,-3608.443273120317,-2353.9963190551184,-3175.981721399036,-4551.731592623186,-3777.3777577135274,-2263.4494022666695,-2622.5972321745435,-3962.718422736934,-3596.5744968145486,-2054.102963698264,-2115.7490749060007,-3637.992279290233,-3923.8263873846995,-2649.2852150541803,-2513.87834714393,-4005.4773098799365,-4478.462574298689,-3087.2229441670115,-2393.782424185565,-3665.44022148135,-4443.906777370784,-3245.8532745663256,-2240.2929950109715,-3351.6440810732943,-4545.830732086984,-3583.1858018858197,-2313.9419929912083,-3127.813712097849,-4465.342100303424,-3806.5467842277035,-2382.785365913554,-2812.3858943445557,-4272.379490420758,-4048.482066211947,-2527.5352630061225,-2595.7974905726305,-4137.821988799809,-4260.734231559543,-2780.7581759402965,-2449.6617853238326,-3863.2531599108174,-4382.797108029975,-2915.2709740723344,-2226.8819483377874,-3528.5581384370494,-4429.244033008103,-3167.6445207172064,-2071.425565651127,-3209.5093380819962,-4409.909774054262,-3439.7546577161147,-2159.4243835716707,-2925.508073032865,-4377.052709704961,-3771.9015803219772,-2339.0653537589733,-2785.6308562315535,-4273.094746243328,-4027.0914467682182,-2513.87834714393,-2548.7023650052984,-4073.4936682574357,-4230.671135267155,-2652.3697557890127,-2304.4872050866134,-3699.7948527091567,-4234.850911480297,-2855.860037310128,-2051.6889752970906,-3329.448798829174,-4216.522481026946,-3024.9956876034366,-1972.5637999253036,-3038.7643621879056,-4524.931851021272,-4307.315267004403,-3029.086056838758,-3667.2507127822296,-5011.216403390933,-4407.339323441902,-2970.5915415992195,-3335.640232043294,-4815.8398051070935,-4653.521436872654,-3150.6348431867177,-3114.0226857689245,-4557.408935714833,-4690.915905346383,-3213.8008730174156,-2746.381192968034,-4206.620658233244,-4826.501587212275,-3366.440935902707,-2529.3457543070026,-3774.3826239565165,-4763.849647504049,-3625.922337284367,-2512.649001198888,-3430.5904424894384,-4669.569989391564,-3854.7594970178006,-2551.786905740131,-3252.268225224999,-4633.069590696048,-4092.1350231331617,-2615.645839648943,-2972.3573294111884,-4509.576202580476,-4380.2937126509805,-2881.922171345016,-2762.2062280423916,-4225.194957875605,-4472.829934695952,-3006.622553661174,-2634.443656735856,-4019.4024466755927,-4609.130872384414,-3315.5013102890625,-2520.3827047804243,-3737.301079905162,-4726.812806941606,-3632.516101898683,-2523.6013559819885,-3461.5252568155834,-4515.410007883312,-2973.4525648894987,-1639.9698424303344,-2412.066151150006,-3983.1255654246293,-3510.989667295178,-2094.581972906825,-2412.312020339015,-3915.936221591976,-3844.9694329463764,-2365.172191282772,-2267.472716268625,-3835.4699415528708,-4181.229076532016,-2720.2296519553247,-2298.78751025051,-3754.109591735553,-4479.60251326591,-3196.0088844309907,-2363.9875488266407,-3575.8097262155684,-4664.3396811890225,-3572.568723269549,-2387.523935738079,-3313.1767288657106,-4592.367064042934,-3766.8500860750783,-2413.004924417129,-3009.7517978849173,-4444.890254126818,-4017.971935030453,-2503.194213294293,-2739.586262653621,-4276.447507911624,-4208.319390811848,-2682.7681282482304,-2535.0230973986504,-4059.5685314617795,-4407.361675186357,-2938.606195283675,-2426.6394885348664,-3823.5117582692815,-4605.711055482752,-3317.3788568233085,-2378.85145888942,-3473.8857714993683,-4511.341990392446,-3395.0735205499554,-2168.499191820525,-3021.8664433796935,-4277.967426534585,-3631.4208664203725,-2497.785091136109,-3247.708469356116,-4749.164551396912,-4400.209116960659,-2802.059388406204,-2900.250601798368,-4392.408358145757,-4331.008116127028,-2801.187670372447,-2554.938501708329,-4045.9339673440422,-4449.137085573326,-3017.954888100015,-2456.4120121493356,-3784.396205472494,-4536.04066801556,-3301.8220426824146,-2398.632752732367,-3528.60284192596,-4632.823721507039,-3657.4606487108053,-2476.886210070397,-3269.5684754334065,-4653.901416528394,-4010.618211104657,-2621.680810651876,-3125.131502763212,-4637.91991924285,-4284.516487659989,-2695.1733464209256,-2845.9358627719716,-4327.454188758635,-4309.729255405576,-2779.953513139905,-2550.5128563061785,-4007.7795395588328,-4453.115696086371,-3041.3348128002663,-2399.4821190216685,-3690.138899104464,-4524.708333576719,-3294.490670501074,-2304.0625219419626,-3439.1735123602766,-4558.124191537403,-3556.5201707506385,-2347.603720140901,-3172.651311475195,-4572.295197522068,-3897.7419016053564,-2427.310040868526,-2882.7268341454073,-4423.521986427544,-4118.845357757254,-2549.708193505787,-2620.5185199402,-4175.328215995814,-4259.996623992518,-2672.91100894344,-2427.332392612981,-3931.9177188775207,-4402.3101809394575,-3366.351528924886,-3321.0445429139786,-4586.175630828814,-5300.179755709142,-3983.7961177582883,-2986.371873184666,-4075.5276770028686,-5189.873896822202,-4194.126033082728,-2937.935642950016,-3700.688922487369,-5030.193034433489,-4338.942985408662,-2935.611061526664,-3341.965775724146,-4829.116741313546,-4557.341880481467,-3010.0647223072915,-3080.7632900194276,-4619.412674833855,-4706.74094042074,-3229.380038902764,-2907.090235601692,-4352.1752181262045,-4910.074759730668,-3528.22286227022,-2790.9282196674612,-4100.114595903707,-5024.873319253125,-3787.7042636518795,-2729.192701481903,-3778.361234469561,-4943.289451991254,-3971.9943966858864,-2619.0880082950603,-3328.4653220731407,-4703.924620619371,-4122.57809908129,-2678.7895177351857,-3057.2939583413554,-4535.526577893088,-4369.587227056888,-2798.84073720464,-2858.810467578229,-4370.883628235296,-4567.444868975266,-3135.8379883573043,-2801.500594794821,-4207.961762900563,-4795.231496719301,-3284.007702351535,-1883.782670948824,-3194.6677797636726,-4288.718615617588,-3208.838785748337,-2175.696453535134,-3246.747344344538,-4489.504336059611,-3599.0331887046327,-2266.2657220680385,-2992.4515476765096,-4429.825178363941,-3921.814730383722,-2446.9348725002856,-2746.0459168012044,-4246.026783707951,-4143.29816619136,-2610.5943454020435,-2608.5603366566106,-4189.16394581365,-4423.700800383187,-2952.2631111458672,-2541.750972479698,-4062.451906496514,-4704.17048980838,-3361.680014333727,-2563.9909582127284,-3859.721584286879,-4862.53259927423,-3714.658762771936,-2641.484456239278,-3651.0009945632214,-4945.345812481143,-4038.602595162701,-2689.9430382183837,-3331.996897697079,-4744.805961228128,-4258.990795492029,-2690.5018318297666,-2944.7082215199734,-4476.74148997563,-4359.037203673984,-2838.246862679346,-2718.709733332364,-4263.9528827611075,-4496.902763474317,-2863.034947280282,-2312.757350535077,-3670.961102361811,-4306.309438503914,-2989.1881929860347,-2197.2882386789606,-3515.5270714196054,-4794.896220552471,-3928.140274064574,-2938.4944365613983,-3932.9235473780095,-5178.362748427719,-4292.451356941624,-2862.8561333246394,-3493.9129345313236,-4893.176840922456,-4343.368630810814,-2782.926295152461,-3043.9276151570816,-4539.706354106231,-4410.245050221092,-2815.179862401469,-2662.360985560535,-4149.91428255013,-4467.800792193508,-2951.0337652008257,-2476.7073961147544,-3904.9838668088755,-4616.462244565755,-3341.9434239796906,-2503.551841205578,-3823.9587931583874,-4885.957227463392,-3833.23476710734,-2731.785503838719,-3671.7657651622017,-4988.551734513251,-4254.587501834333,-2863.7725548473068,-3468.186076663265,-4871.696814500906,-4395.3811401583125,-2860.419793179011,-2997.5477454123197,-4443.973832604151,-4380.785451028997,-2796.4043970590114,-2602.234792975759,-4075.3041595583154,-4370.05661369045,-2930.3360498352113,-2352.8116765989876,-3790.140603797508,-4617.803349233073,-3294.647132712261,-2357.9078743347973,-3628.269270452174,-4682.310483731089,-3626.592889618026,-2510.8832133869187,-3430.7916081895364,-4800.148880499468,-4014.261545450872,-2587.326179424069,-3176.8310876883374,-4652.180332205336,-4326.537767235967,-2764.0167193432712,-2900.183546565002,-4689.64185591243,-5384.445832305651,-3725.946393721866,-3367.446764403196,-4812.799967861172,-5143.4940270774405,-3603.928220740345,-3002.152204770113,-4362.501724064556,-5132.9887071834455,-3855.586511562647,-2903.8715844001276,-4047.5879964337346,-5124.293878590332,-4095.1078051457175,-2919.2719363298343,-3783.3903769720055,-5151.49595159244,-4429.154626030281,-3047.4815425254756,-3572.7698889696467,-5040.3630781606535,-4670.911094058883,-3161.4530875030864,-3331.32634536342,-4850.596767735096,-4881.866858228071,-3317.1106358898446,-3061.563141532319,-4525.736513821664,-4945.546978181241,-3521.6738011448147,-2854.027194264793,-4151.0765732618065,-4953.057164318224,-3700.8677364430114,-2718.06153274316,-3849.305671370706,-4921.921184291981,-3914.4386547134704,-2615.6905431378536,-3502.1607282353316,-4911.6393818425395,-4227.251318365493,-2830.6249178200865,-3335.3720111098305,-4880.548105305208,-4579.112479580936,-2485.268114241137,-2264.432879022703,-3990.6581033060675,-4213.326181569837,-2761.2003995419027,-2573.848077517519,-4088.067005642296,-4545.204883242236,-3107.652438599162,-2413.7648837286097,-3723.30888787614,-4631.326154628534,-3408.417511989774,-2363.7416796376324,-3539.9351763648006,-4712.17241432338,-3663.9650063472995,-2444.0291457210956,-3307.8570136853477,-4665.97135853426,-4097.387683080159,-2670.7875932201855,-3154.7028606775834,-4701.398873495922,-4475.355681819401,-2932.2582998583675,-3004.722655382473,-4535.839502315463,-4701.957667107305,-3181.6814162351393,-2846.9193395280054,-4333.153883594738,-4864.097221386101,-3458.0383846805557,-2747.2305592573357,-4028.8572345801877,-4963.808353401227,-3744.7218590643242,-2651.1851133328814,-3724.2923646321733,-4933.745257108839,-4008.4277401480367,-2702.258849413258,-3381.126032009844,-4812.084712038602,-4221.618678762756,-2764.731975165841,-3123.656287629162,-4525.311830677013,-4225.194957875605,-2600.8936883084402,-2570.0929844490274,-4099.533450547869,-4290.953790063118,-2983.756719083395,-2869.3828427055887,-4541.7180111072075,-5188.689254366071,-3741.1008764625644,-2912.477006015421,-4155.6586808751445,-5070.157953519578,-3877.759442062312,-2779.2382573173354,-3832.117179884575,-5027.37671463212,-4075.728842702966,-2762.809725142685,-3444.8508554519244,-4877.351805848099,-4338.76417145302,-2829.3508683861337,-3144.5998721837846,-4637.003497720182,-4495.740472762642,-2976.5371056243307,-2957.0687362037584,-4436.955384845184,-4717.559184737109,-3252.2905769694544,-2853.378993675589,-4328.012982370017,-4944.4517427029305,-3609.3596946429843,-2847.478133139388,-4122.57809908129,-5057.99860453589,-3891.8186893247,-2795.800899958718,-3791.168784042452,-4991.8150892037265,-4150.204855228049,-2765.961321110883,-3380.8578110763806,-4794.09155775208,-4221.730437485032,-2688.490174828789,-2971.9997014999035,-4509.173871180281,-4420.482149181623,-2847.8357610506728,-2778.053614861204,-4327.610650969822,-4590.578924486509,-3049.60495824873,-2643.0267266066944,-4104.2943721168485,-4755.937129966871,-3424.0413813640334,-2623.9606885863172,-3877.737090317856,-4869.81926796666,-3721.744265764268,-2557.263083131681,-3568.5007057786834,-4857.7493259607945,-3985.9642369704534,-2639.718668427309,-3348.7830577830146,-5295.284723673431,-5274.542304818905,-3639.5792531465595,-3809.273697051251,-5283.348892134296,-5172.350129169242,-3561.795182442091,-3377.259180219076,-4935.242823987344,-5262.51706630195,-3714.3234866051066,-3124.528005662919,-4549.831694344484,-5283.95238923459,-3902.2569539853284,-3033.5117022409086,-4263.237626938538,-5272.530647817927,-4153.043526773873,-2993.1668034990794,-3945.798152184266,-5271.6365780397155,-4466.772611948563,-3058.5680077753077,-3679.208896065819,-5161.218960430499,-4740.290908848156,-3274.1505830467445,-3498.696207844759,-5033.858720524159,-4951.246673017344,-3344.8491507588806,-3187.425814560153,-4718.699123704329,-5085.044215326812,-3528.4240279703176,-2949.1562186665797,-4365.139229910282,-5086.921761861058,-3750.6003678560696,-2854.4071739205333,-4055.969900604475,-5137.771980496881,-4005.4996616243916,-2846.606415105631,-3884.330854932172,-5197.652303892649,-4412.904907811273,-3070.168563147612,-3702.521765532704,-5161.30836740832,-4285.65642662721,-2309.538699333513,-2685.159764904948,-4384.898172008774,-4431.658021409276,-2942.0707156742474,-2760.9768820973495,-4279.241475968537,-4675.560256905586,-3189.0798436498458,-2547.3165568490695,-3966.294701849783,-4723.929431906871,-3415.77123591557,-2503.1495098053824,-3643.2896427261408,-4727.528062764176,-3729.299155390162,-2556.3466616090136,-3489.64375134036,-4864.074869641647,-4224.949088686596,-2793.006931901805,-3429.8528349224134,-4987.501202523852,-4636.042372708604,-3132.8428546002933,-3302.961981649635,-4846.86402641106,-4888.34886412011,-3377.4379941747184,-3123.9915637959916,-4571.267017277124,-4959.807391143727,-3517.270507487119,-2835.7881707892625,-4136.682049832589,-4827.95445060187,-3447.7565822311144,-2370.4472029742246,-3435.0607913805,-4543.774371597096,-3555.290824805597,-2447.3819073893915,-3508.2627544716306,-5096.309494532286,-4519.790949796552,-3147.103267562779,-3643.58021540406,-5127.221957113977,-4807.323790469622,-3220.394637631731,-3320.776321980515,-4873.261436612777,-4958.108658565123,-3402.5390031980282,-3118.8730143157263,-4580.051252848059,-5019.330086628209,-3524.735990135192,-2878.4352992099884,-4255.07924021235,-5057.260996968866,-3754.5119231357485,-2738.7815998532296,-3869.2210756803843,-5010.27763012381,-3981.8515159906765,-2751.410335470478,-3634.416000177384,-5010.031760934801,-4369.453116590156,-2954.7441547804065,-3464.54274231705,-4992.9326764264915,-4713.580574224064,-3176.5405150104184,-3315.7918829669816,-4810.229517248812,-4962.534303967274,-3455.4008788348297,-3093.973170992514,-4523.3448771649455,-5024.359229130653,-3545.344298522985,-2810.50834781031,-4128.970697995508,-4996.263086350333,-3728.919175734422,-2650.514560999222,-3724.985268710288,-4907.97369575187,-3930.710724676934,-2674.900314199962,-3492.571829864005,-4870.1992476224,-4249.804228520898,-2824.612298561609,-3238.9465855296357,-4751.13150490898,-4537.985269783172,-2990.4845941644426,-3025.3533155147215,-4556.581921169987,-4738.927452436382,-3263.578207919384,-2907.4925670018874,-4375.778660271008,-5017.273726138321,-3907.062579043219,-3820.2260518343514,-5047.828560808726,-5845.629375652001,-4552.089220534471,-3427.7964744325254,-4405.506480396567,-5590.4842126946705,-4647.687631569819,-3306.4041502957525,-4032.6346793931343,-5421.21445193463,-4833.207110548868,-3317.557670778951,-3732.3166408916286,-5240.031211379911,-5039.75958106036,-3431.4398087787404,-3445.5661112744942,-5023.085179696701,-5254.604548764772,-3711.30600110364,-3295.876478657303,-4721.3366295500555,-5370.207771087619,-4050.225502279461,-3257.029146793979,-4463.777478191552,-5415.537108842982,-4239.0083359489845,-3150.5454362088963,-4189.074538835828,-5363.658709962215,-4413.575460144933,-3040.6419087221516,-3746.845274787578,-5210.348094743264,-4652.269739183157,-3122.0246102839246,-3494.672893842804,-5031.020048978335,-4881.218657638867,-3314.517833533029,-3321.3798190808084,-4897.088396202135,-5173.981806514479,-3664.9708348477884,-3276.564571447918,-4699.007236839204,-5304.493642389017,-3587.700854265792,-2166.9569214531093,-3548.4288392578173,-4716.55335623662,-3614.545299356616,-2484.977541563218,-3510.117949261421,-4844.494741498797,-4027.851406079699,-2686.2102968943473,-3374.8451918179026,-4830.703715169873,-4351.728183237098,-2892.8298226392058,-3181.3684918127647,-4824.6463924224845,-4754.1489904104465,-3192.29849485141,-3144.666927417151,-4703.745806663729,-5051.069563754745,-3610.8349097770347,-3153.8311426438268,-4584.789822672585,-5298.391616152718,-3990.814565517255,-3089.2122494235336,-4331.388095782769,-5391.665445764715,-4187.0628818348505,-2992.920934310071,-3964.5065622933585,-5267.456801826573,-4366.681500277698,-2943.210654641468,-3495.410501409829,-4868.120535388057,-4236.12496091425,-2683.7516050042636,-3001.5263559253644,-4637.048201209092,-4753.187865398868,-3473.7740127770917,-3501.0431410125666,-5084.664235671072,-5435.430161408206,-3850.2220928933734,-3297.1505280912556,-4683.584533165042,-5377.7626607135135,-3999.4423388770033,-3087.8040895228496,-4302.531993690967,-5376.645073490748,-4265.316339172881,-3077.209362651034,-4004.4044261460813,-5279.504392087983,-4474.551019019011,-3034.048144107836,-3642.1944072478304,-5151.786524270359,-4758.149952667946,-3233.716277327094,-3442.928605428768,-5012.7139702694385,-5022.302868640765,-3450.2376258656536,-3228.3518586578202,-4760.899217235949,-5161.174256941588,-3710.993076681266,-3166.549285238896,-4534.565452881509,-5307.801700568402,-3948.5250650078137,-3058.4786007974867,-4228.0336294214285,-5315.4236454276615,-4276.492211400534,-3010.6905711520403,-3871.4786018703703,-5216.494824468473,-4489.996074437628,-3033.399943518632,-3618.1662819583753,-5148.25494864642,-4725.471702274287,-3108.7253223330167,-3302.9843333940908,-4887.946532719914,-4888.371215864565,-3336.8248744994253,-3133.1334272782124,-4632.555500573576,-5000.286400352287,-3510.6543911283484,-2875.9766073199044,-4280.381414935758,-5083.77016589286,-3826.32807807065,-2878.1670782765245,-4052.3042145138047,-5277.895066487202,-4197.5905534733,-2966.3894136416216,-3953.4200970435263,-5950.012022258285,-5569.272407206584,-3969.0886699066964,-4339.412372042224,-5830.944279544864,-5479.351339262884,-3886.00723576632,-3960.8632279471435,-5445.153170246264,-5501.524269762549,-3931.783608410789,-3627.8445873075234,-5116.470768030974,-5584.96333181421,-4117.772474023399,-3446.1025531414216,-4809.491909681787,-5662.903864729866,-4372.828230002908,-3379.740223853615,-4551.2845577340795,-5693.749272078189,-4637.875215753939,-3363.937540523713,-4188.2922277798925,-5589.634846405369,-4902.3634078935875,-3388.0103693020787,-3832.0277729067534,-5379.081413636376,-5109.25115457191,-3503.1442049913653,-3553.5920922269934,-5096.041273598823,-5253.554016775372,-3700.331294576084,-3356.9190927647464,-4907.30314341821,-5466.655548412269,-4019.5365571423245,-3309.8239671974147,-4700.16952755088,-5638.249890595662,-4408.367503686846,-3289.5732867209063,-4434.11671329936,-5658.411164094349,-4359.595997285366,-2302.8108242524654,-3147.617357685251,-4769.571694084608,-4259.191961192127,-2728.2762799592356,-3212.236250905544,-4833.698848926884,-4630.499140083688,-3035.970394130992,-3135.949747079581,-4748.784571741173,-4973.352548283643,-3489.1743647067983,-3135.212139512556,-4688.077233800559,-5345.084410319854,-3935.8292741571995,-3169.499715506997,-4561.432249716789,-5468.354280990873,-4283.309493459403,-3226.2954981679322,-4269.98785376404,-5524.3901043403275,-4588.522563996621,-3213.3761898727644,-3969.870980962632,-5394.280599865985,-4753.344327610055,-3229.000059247024,-3562.0634033755546,-5207.531774941895,-5023.822787263726,-3386.1328227678327,-3372.4982586500955,-5011.842252235681,-5226.821330406825,-3695.704483473836,-3314.8307579554034,-4771.963330741326,-5307.309962190386,-3827.2221478488623,-2923.541119520798,-4198.730492440521,-5203.642571406672,-3939.0255736143085,-2951.9054832345823,-4220.657553751177,-5676.69489105879,-4818.298496997178,-3410.4962242241177,-4082.032034639363,-5512.253107101096,-4883.3420733621215,-3299.9891996370793,-3661.528666201671,-5198.881649837691,-5036.85385428117,-3423.2814220525534,-3332.645098286283,-4934.5275681647745,-5204.26842025142,-3669.687052927858,-3203.429663590153,-4696.950876349316,-5374.2981403229405,-3993.1614986850623,-3094.599019837263,-4403.628933862321,-5469.740089147102,-4297.771072121986,-3107.585383365796,-4125.930860749586,-5437.888853298289,-4513.912441004806,-3098.532926861397,-3751.4720858898268,-5278.342101376307,-4734.010068656215,-3147.103267562779,-3455.356175345919,-5046.599214863684,-4875.787183736227,-3262.4159172077084,-3195.226573375055,-4797.846650820572,-5007.394255089075,-3467.090841184955,-2999.5146989243867,-4494.421719839778,-5220.205214048054,-3839.1803311324516,-2957.4263641150433,-4241.399972605703,-5332.947413080623,-4143.320517935815,-3017.5749084442746,-4001.163423200062,-5318.597593140315,-4492.097138416426,-3099.6505140841623,-3750.712126578346,-5269.133182660721,-4790.023540261214,-3209.911669482192,-3442.258053095109,-5010.679961524005,-4960.544998710751,-3929.548433965258,-4232.548681801401,-5630.091503869475,-5820.885994539976,-4166.96866356953,-3580.0118541731663,-5010.903478968558,-5720.280792746639,-4369.475468334612,-3448.605948520416,-4713.155891079413,-5826.362171931526,-4762.4861910922755,-3545.254891545164,-4546.478932676188,-5906.314361848159,-5129.926518193069,-3752.053231245665,-4333.109180105827,-5884.901390659976,-5474.903342116278,-3838.956813687899,-3943.294756805272,-5512.051941400998,-5444.9743562906215,-3796.264981778262,-3541.1645223098426,-5085.200677538,-5426.198890948163,-3869.0199099802867,-3280.6325889387836,-4713.535870735153,-5505.5475837645035,-4173.92005609513,-3290.1097285878336,-4535.481874404178,-5691.134117976919,-4623.994782447193,-3436.0442681365334,-4418.805768347474,-5829.022029521708,-5080.126831546644,-3641.4791514252606,-4234.470931824557,-5753.763705940689,-5310.953296536601,-3690.3177130601066,-3883.1462124760405,-5437.710039342647,-5382.188306115664,-3243.774562331982,-2544.0979056475053,-4235.767333002965,-4785.6649500924295,-3364.0269475015343,-2811.0671414216927,-4253.4475628671125,-5124.092712890233,-3855.1171249290855,-2966.2329514304342,-4175.574085184823,-5394.012378932522,-4354.142171638271,-3079.1316126741904,-4026.8232258347543,-5483.106432331376,-4764.319034137611,-3296.457624013141,-3876.0607094837083,-5427.987030504588,-5123.48921578994,-3572.1663918693534,-3653.8843695979563,-5300.023293497956,-5342.1339800517535,-3738.5751293391145,-3540.091638575988,-5062.37954644913,-5500.786662195524,-4058.4956477279247,-3412.418474247274,-4761.949749225349,-5586.77382311509,-4294.574772664878,-3300.972676393113,-4439.749352902098,-5564.444430404238,-4535.526577893088,-3243.327527442876,-4094.5937150232453,-5517.61752577037,-4831.731895414817,-3381.796584343503,-3872.3503199041274,-5421.54972810146,-5059.898502814592,-3410.809148646492,-3473.3716813768965,-5028.673115810528,-5084.7983461378035,-3469.1919051637537,-3271.1107458008228,-5029.701296055472,-5703.22641172724,-4262.03063273795,-3594.9204677248563,-4916.534413878252,-5709.529603663636,-4361.562950797433,-3292.7248826891046,-4361.4511920751565,-5489.588438223414,-4466.45968752619,-3169.432660273631,-3992.8485742626876,-5400.203812146641,-4755.646557288952,-3285.1923448076664,-3816.113330854575,-5365.245683818542,-5158.0673644623,-3600.7095695387807,-3714.3234866051066,-5350.9405673671445,-5473.249313026585,-3927.9614601089315,-3620.602622104004,-5112.492157517929,-5651.660937268846,-4204.229021576527,-3406.9422968557237,-4737.6534030024295,-5684.272132429139,-4390.754329056064,-3259.1749142616886,-4344.530921522489,-5530.872110232367,-4542.209749485225,-3223.613288833295,-3972.463783319448,-5393.073605665399,-4788.056586749147,-3304.928935161702,-3781.5128304377595,-5339.228253272564,-5136.028544429368,-3587.611447287971,-3599.6813892938367,-5221.36750475973,-5443.36503068984,-3941.260748059839,-3548.3617840244515,-5020.224156406422,-5621.307268298539,-4184.537134711401,-3331.7957319969814,-4650.6604135823745,-5556.710726822702,-4330.114046348816,-3186.464689548575,-4210.554565257378,-5486.749766677591,-4748.918682207905,-4096.940648191053,-4884.2808466292445,-6194.94243799954,-5477.429089239728,-3943.2500533163616,-4345.067363389417,-5881.347463291581,-5637.713448728735,-4063.7259559304666,-4069.3138920442934,-5651.526826802115,-5833.224157479305,-4350.811761714431,-3962.2490361033724,-5413.123120441809,-6027.147892373549,-4623.503044069176,-3797.3155137676617,-5086.72059616096,-6045.945709460462,-4841.656069952974,-3656.00778532121,-4747.376411840488,-5987.808822132209,-5017.139615671589,-3563.471563276239,-4287.891601072741,-5763.732583967756,-5183.011911274423,-3628.4257326633615,-4018.061342008274,-5551.033383731054,-5419.560422844937,-3860.883874998555,-3789.6712171639465,-5414.218355920119,-5701.7959000821,-4127.562538094823,-3655.650157409925,-5140.744762509437,-5874.507829488258,-4413.866032822852,-3586.0915286650097,-4864.320738830655,-5916.238536386316,-4775.718423809818,-3592.081796179032,-4596.345674555979,-5898.893582688997,-4989.669321736017,-3116.8613573147486,-3235.1467889722335,-4850.4179537794535,-4494.868754728885,-3072.4484410820537,-3449.410611320807,-4988.439975790975,-4910.432387641953,-3420.9791923736566,-3328.8900052177914,-4855.156523603979,-5228.497711240972,-3744.3865828974945,-3291.65199895525,-4749.589234541564,-5518.779816482046,-4186.504088223468,-3316.283621344998,-4688.5242686896645,-5767.1076973805075,-4664.607902122486,-3548.764115424647,-4534.2078249702245,-5815.610982848523,-4978.113469852623,-3536.6271181854154,-4161.87246583372,-5687.60254235298,-5168.952664012035,-3617.7192470692694,-3832.5642147736808,-5386.368082328807,-5360.752983183024,-3810.5700982296585,-3665.4849249702606,-5255.23039760952,-5578.280160222073,-4032.2770514818494,-3514.700056874759,-4964.680071434984,-5755.507142008203,-4395.604657602866,-3457.032556180067,-4702.3152950185895,-5794.086252938063,-4651.576835105042,-3471.0470999535446,-4425.4442364507,-5752.333194295549,-4790.604685617052,-3271.8930568567584,-3850.624424293569,-5323.358514709296,-4841.879587397527,-3330.454627329663,-3772.1921529998963,-5554.229683188162,-5659.416992594837,-4082.859049184209,-3845.3494126021164,-5357.0425936034435,-5716.212775255773,-4137.218491699516,-3573.574551770038,-4986.808298445738,-5728.729752150745,-4355.215055372126,-3422.5661662299835,-4672.2074952372905,-5827.68092485439,-4663.06563175507,-3417.0452853495226,-4341.625194743299,-5757.451743775814,-4976.548847740752,-3552.2062840707645,-4120.186462424572,-5661.182780406807,-5259.901912200679,-3727.265146644729,-3968.5075245508583,-5584.940980069755,-5596.183907530774,-4018.106045497185,-3818.9296506559435,-5319.648125129715,-5699.404263425382,-4205.659533221667,-3588.3714065994513,-4958.5333417097745,-5766.750069469223,-4389.368520899835,-3390.3349507254306,-4577.033767346593,-5667.530675832114,-4606.560421772054,-3352.2922816624978,-4214.332010070326,-5585.857401592422,-4835.174064060934,-3352.6275578293275,-3958.717460479434,-5492.874144658344,-5166.181047699577,-3569.148906367887,-3752.9249492794215,-5349.733573166558,-5386.681006751181,-3840.297918355217,-3628.3810291744508,-5158.424992373585,-5586.595009159447,-4070.0291478668632,-3406.67407592226,-4786.000226259259,-5597.212087775718,-4302.911973346707,-3581.420014073851,-5481.27358928604,-6547.876482948838,-5333.3273927363625,-3965.1100593936517,-4770.7563365407395,-6124.243870287403,-5374.029919389477,-3922.306468761739,-4426.07008529545,-5954.772943827265,-5638.473408040215,-4143.655794102645,-4275.128754988761,-5863.421364238426,-5969.011005045296,-4390.754329056064,-4129.484788117979,-5676.471373614237,-6136.716143693465,-4676.409623194888,-4031.1818160035396,-5403.556573814938,-6260.276587042402,-4939.757876367316,-3854.491276084337,-4968.166943570011,-6191.589676331244,-5155.966300483501,-3779.8364496036115,-4617.669238766342,-6000.146985071538,-5268.127354160232,-3782.4516037048825,-4242.651670295199,-5724.03588581513,-5445.175521990719,-3842.7566102453006,-4003.353894156682,-5600.587201188469,-5717.732693878734,-4184.1795068001165,-3895.953762048932,-5452.216321494141,-5965.255911976804,-4473.008748651594,-3842.3095753561947,-5256.504447043472,-6128.758922667375,-4870.53452378923,-3787.301932251684,-4923.329344192665,-6067.135163204094,-4738.838045458561,-2672.642788009976,-3518.2986877320636,-5060.099668514689,-4474.081632385449,-3026.3814957596655,-3530.2345192711973,-5069.956787819479,-4799.388921187988,-3287.31576053092,-3403.611886931883,-5037.323240914731,-5214.84079537878,-3735.5576438376484,-3496.706902588237,-5046.822732308237,-5645.804780221556,-4232.571033545856,-3536.6271181854154,-4896.797823524216,-5856.402916479459,-4616.328134099023,-3555.693156205792,-4638.121084942947,-5812.347628158049,-4817.985572574803,-3478.087899456966,-4276.603970122811,-5662.16625716284,-4986.495374023363,-3531.240347771686,-3929.146102565063,-5474.813935138457,-5249.843627195791,-3713.340009849073,-3770.046385532187,-5257.465572055051,-5448.282414470007,-3906.2355644983727,-3593.8699357354567,-5103.998494624912,-5716.905679333888,-4313.976086852084,-3580.4588890622726,-4953.817123629704,-5925.98389696883,-4688.16664077838,-3589.556049055582,-4629.96269821676,-5790.2417528917495,-4738.636879758463,-3287.9863128645798,-4024.230423477939,-5399.980294702089,-4791.074072250613,-3457.412535835807,-4039.384906218637,-5758.591682743035,-5562.76804957009,-3942.847721916166,-3970.9215129520317,-5447.611862136348,-5576.626131132381,-4050.7842958908436,-3610.5890405880264,-5150.40071611413,-5768.135877625451,-4316.9041653757295,-3517.628135398404,-4860.096259128602,-5865.58948345059,-4603.00649440366,-3481.1724401917986,-4547.775333854596,-5836.1969394918615,-4978.336987297176,-3607.437444619828,-4352.532846037489,-5829.022029521708,-5255.319804587341,-3725.633469299492,-4107.334209362771,-5694.531583134125,-5527.295831119518,-3935.8516259016546,-3861.9567587324095,-5417.437007121684,-5664.043803697086,-4129.529491606891,-3677.44310825385,-5146.39975385663,-5725.779321882645,-4263.08116472735,-3463.603969049927,-4741.207330370824,-5651.459771568749,-4412.480224666622,-3264.069946297401,-4349.850636702852,-5639.92627142981,-4761.480362591787,-3401.4661194641735,-4154.563445396834,-5675.890228258399,-5133.368686839186,-3597.3568078704848,-3933.370582267116,-5530.648592787814,-5346.023183586977,-3762.558551139659,-3711.4848150592825,-5310.014523269478,-5550.943976753232,-3957.1528383675623,-3514.2977254745633,-4950.5537689392295,-5549.289947663539,-4175.30586425136,-3865.689500056446,-5676.270207914139,-6513.566555209942,-5188.845716577258,-3994.7708242858444,-4983.857868177637,-6200.463318880001,-5289.249752670497,-3935.650460201557,-4628.286317382613,-6134.771541925853,-5614.802910662045,-4123.6062793262345,-4425.891271339807,-6048.225587394904,-5938.880853519542,-4378.639683561288,-4353.024584415506,-5845.025878551707,-6120.220556285448,-4623.771265002641,-4084.826002696276,-5445.689612113191,-6088.771651836831,-4695.989751337737,-3747.851103288067,-5055.606967879173,-6032.333497087181,-4876.703605258895,-3655.2031225208193,-4639.596300076998,-5942.5018361213015,-5096.95769512149,-3652.0068230637103,-4352.912825693229,-5887.3824342945145,-5438.134722487298,-3882.5427153757473,-4178.859791619753,-5799.830651263077,-5652.107972157953,-4057.713336671989,-4006.1478622135955,-5598.374378487394,-5959.980900285352,-4440.442256980212,-3898.233639983373,-5364.463372762606,-6093.331407705714,-4733.294812833645,-3764.45844941836,-4442.476265725644,-5051.136618988111,-4051.387792991137,-2944.127076164136,-3938.0197451138197,-5334.221462514575,-4596.837412933995,-3205.8660037357813,-3836.073438653164,-5374.186381600664,-4979.991016386869,-3471.360024375919,-3750.9579957673545,-5334.0873520478435,-5380.042538647955,-3856.5029330853145,-3694.5198410177045,-5271.6365780397155,-5680.897019016388,-4301.28029600147,-3694.8104136956235,-5069.599159908194,-5866.572960206623,-4552.089220534471,-3635.108904255498,-4920.535376135752,-5988.680540165966,-4859.045727139202,-3601.268363150163,-4584.968636628227,-5971.022662046274,-5182.609579874227,-3708.8473092135564,-4291.512583674501,-5870.260998041749,-5452.395135449784,-3876.2171716948956,-4037.3732492176596,-5634.338335315983,-5665.675481042324,-4086.256514341416,-3790.453528219882,-5255.498618542983,-5584.449241691737,-3973.715481008945,-3309.175766608211,-4726.74575170824,-5626.694038712268,-4437.201254034192,-3665.730794159269,-4997.693597995472,-6172.300120866314,-5077.019939067357,-3743.4031061414607,-4675.359091205489,-6073.7512795628645,-5302.347874921307,-3870.1151454585965,-4422.583213160421,-5973.347243469625,-5608.902050125844,-4054.3829267481483,-4211.113358868761,-5802.691674553356,-5840.913157571931,-4234.470931824557,-3982.544420068791,-5476.155039805775,-5881.883905158509,-4319.85459564383,-3699.012541653221,-5091.325055518753,-5847.126942530506,-4564.80736312954,-3554.441458516295,-4762.79911551465,-5949.2520629468045,-4888.035939697736,-3630.6832588533475,-4525.758865566118,-5961.389060186036,-5293.585991094827,-3847.2493108808176,-4412.524928155533,-5985.148964542028,-5706.646228628902,-4144.929843536597,-4256.375641390758,-5822.763541074221,-5798.377787873482,-4195.9812278725185,-3887.236581711362,-5397.3651406008175,-5801.305866397127,-4249.781876776442,-3551.8486561594796,-4920.155396480012,-5762.279720578161,-4399.359750671358,-3367.2903021920088,-4562.527485195099,-5770.862790448999,-4753.299624121145,-3485.799251294047,-4405.506480396567,-5819.589593361568,-5172.59599835825,-3696.375035807495,-4289.657388884711,-5859.755678147755,-5562.43277340326,-4052.7288976584555,-4189.834498147309,-5848.155122775451,-6650.582748720974,-5301.051473742899,-4795.857345564049,-6233.454493696034,-6626.241699009144,-5006.768406244327,-4204.854870421275,-5526.9158514637775,-6408.714521970096,-5123.176291367566,-4094.616066767701,-5163.811762787314,-6311.8867649897065,-5352.39343075674,-4059.7249936729663,-4889.019416453769,-6358.221931245557,-5737.446932488315,-4245.915024985674,-4653.163808961369,-6191.835545520252,-5935.058705217684,-4417.77758810253,-4480.094251643926,-6020.2188515924045,-6173.641225533632,-4611.187232874302,-4217.371847316247,-5712.3459234650045,-6240.249424010447,-4772.365662141521,-4011.22170820495,-5327.538290922438,-6230.8840430836735,-4902.005779982303,-3756.590635370092,-4864.052517897191,-6140.068905361761,-5178.630969361183,-3845.9976131913204,-4611.544860785587,-6096.594762396188,-5505.614638997869,-3978.588161300202,-4467.487867771133,-6052.226549652404,-5614.288820539573,-3261.5665509184064,-3355.801505541981,-5178.362748427719,-5428.590527604882,-3968.574579784224,-3658.8464568670342,-5201.921487083613,-5790.867601736499,-4386.216924931637,-3626.950517529311,-4949.100905549634,-5882.6885679588995,-4645.161884446369,-3586.337397854018,-4664.406736422388,-5900.860536201065,-4975.6771297069945,-3623.508348883194,-4399.449157649178,-5854.503018200758,-5286.098156702299,-3807.4408540059158,-4249.2230831650595,-5801.52938384168,-5677.320739903538,-4086.748252719433,-4080.914447416598,-5735.859958631988,-5977.281150493759,-4496.1651559072925,-4101.165127893106,-5538.471703347172,-6146.103876364694,-4774.936112753882,-3921.613564683624,-5274.430546096629,-6295.860564215251,-5034.193996690989,-3765.084298263109,-4835.554043716675,-6164.0299754178495,-5166.806896544325,-3707.729721990791,-4368.62610204531,-5769.231113103761,-5081.691453658516,-3468.834277252469,-3868.4387646244486,-5479.440746240705,-5425.818911292424,-4100.561630792812,-4178.971550342029,-5914.785672996721,-6189.823888519274,-4626.006439448171,-4193.678998193622,-5636.081771383497,-6272.659453470642,-4829.608479691563,-3995.262562663861,-5228.184786818599,-6190.717958297487,-4987.009464145835,-3825.7022292259016,-4860.7444597178055,-6092.929076305518,-5168.393870400652,-3809.1619383289744,-4542.075639018493,-6035.038058166273,-5524.2112903846855,-3929.9507653654537,-4224.904385197686,-5856.313509501638,-5779.043528919641,-4138.604299855745,-4114.0397326993625,-5654.477257070214,-5891.182230851917,-4404.724169340631,-3958.2480738458726,-5385.004625917033,-6049.7455060178645,-4682.422242453366,-3885.649607855035,-5153.909939993613,-6222.256269723925,-4990.384577558587,-3821.1871768459296,-4873.619064524062,-6154.150504368604,-5305.544174378416,-3941.1489893375624,-4566.059060819038,-6041.318898358214,-5537.354116124406,-3974.2966263647827,-4178.6362741752,-5741.47024649027,-5631.4549602812485,-4029.7513043584,-3909.8565471001325,-5397.856878978834,-5679.913542260354,-4160.933692566597,-3629.7444855862245,-5084.261904270877,-5838.901500570953,-4463.196332835714,-3621.787264560135,-4881.106898916591,-6049.030250195295,-5397.968637701111,-4888.125346675557,-5766.794772958133,-7003.047407036711,-6129.3400680232135,-4650.571006604553,-5247.988432406,-6715.626325085917,-6227.017191292905,-4564.136810795881,-4786.938999526382,-6365.530951682443,-6215.483691153967,-4559.577054926998,-4348.889511691274,-5884.3873005375035,-6253.951043361551,-4688.5242686896645,-4057.869798883176,-5473.137554304309,-6245.546787446355,-4975.31950179571,-4094.034921411863,-5337.574224182871,-6448.522978844998,-5339.429418972662,-4131.831721285787,-5132.116989149688,-6514.214755799146,-5754.166037340884,-4332.349220794346,-4942.5741961686845,-6480.620083882819,-6022.610488249122,-4429.3110882414685,-4607.119215383436,-6157.5703212702665,-6154.083449135238,-4505.1505571783255,-4217.5953647608,-5754.523665252169,-6155.648071247109,-4531.950298780239,-3957.5328180233028,-5370.721861210091,-6172.166010399582,-4817.873813852527,-3876.552447861725,-5109.854651672203,-5810.760654301722,-4178.658625919656,-3100.7010460735614,-4165.448744946569,-5687.9825220087205,-5049.504941642874,-3628.2245669632634,-4291.937266819152,-5923.4805015898355,-5605.3928262463605,-4018.6648391085673,-4200.920963397141,-5831.614831878524,-5819.969573017308,-4199.825727918831,-3989.9204957390425,-5595.781576130578,-6065.995224236873,-4498.377978608368,-3846.6011102916136,-5296.8716975297575,-6095.521878662334,-4780.23347618979,-3799.014246346265,-5008.936525456492,-6163.068850406272,-5057.216293479954,-3786.8101938736672,-4660.986919520727,-6076.075860986217,-5419.068684466921,-3982.0526816907745,-4510.112644447404,-6123.97564935394,-5800.545907085647,-4237.309603370381,-4405.1265007408265,-6039.508407057334,-6116.800739383786,-4573.681005678297,-4298.709845389109,-5834.699372613356,-6321.207442427569,-4765.190752171368,-4076.6229124811784,-5470.120068802842,-6256.543845718365,-4889.913486231982,-3774.6955483788906,-4816.063322551647,-5946.03341174524,-4822.522976699231,-3408.9763056011566,-4217.952992672085,-5647.21294012224,-5093.67198868656,-3834.7993892192117,-4529.379848167879,-6238.6400984096645,-6002.538621728257,-4354.589206527377,-4427.455893451678,-6024.510386527823,-6139.018373372362,-4568.160124797836,-4287.533973161456,-5821.221270706806,-6312.020875456438,-4802.09348226708,-4069.5597612333017,-5355.2768057914745,-6222.144511001648,-4936.762742610305,-3836.386363075538,-4972.614940716618,-6200.8880020246515,-5147.517341079395,-3833.7041537409013,-4671.201666736802,-6118.5441754513,-5392.11248065382,-3910.5718029227023,-4426.919451584751,-6018.09543586915,-5792.588686059557,-4220.434036306624,-4267.372699662769,-5870.439811997391,-6056.518084587823,-4469.700690472208,-4107.065988429307,-5666.770716520634,-6183.967731471984,-4714.02760911317,-3952.391916798582,-5269.0437756829,-6220.356371445224,-4953.88417886307,-3867.231770423862,-4934.348754209132,-6145.545082753311,-5195.461832936029,-3818.0355808777313,-4621.3125731125565,-6053.813523508731,-5434.625498607815,-3917.9031751040434,-4308.90224086073,-5900.5923152676005,-5684.741519062701,-4073.09133685724,-4069.0456711108295,-5681.299350416583,-5901.329922834626,-4334.2714708175035,-3929.391971754071,-5698.778414580634,-7088.54282957826,-5655.93012045981,-4753.567845054608,-5994.737862913355,-6900.184679053388,-5633.958355660243,-4481.837687711441,-5577.140221254853,-6822.244146137732,-5832.710067356833,-4461.318786301468,-5203.039074306378,-6683.909199703837,-6067.023404481817,-4483.782289479052,-4848.741572945306,-6387.681530437652,-6140.35947803968,-4534.118417992404,-4545.9424908092615,-6202.296161925336,-6341.815750815363,-4696.414434482388,-4287.265752227992,-5822.830596307587,-6443.806760764928,-4992.284475837288,-4187.129937068216,-5591.110061539419,-6578.408965874787,-5364.0163378735,-4209.325219312336,-5300.0009417535,-6597.117375983879,-5731.099037063007,-4382.551238840966,-5102.7020934465045,-6511.1749185532235,-5912.014056684263,-4385.389910386791,-4743.554263538631,-6309.405721355167,-6114.7220271494425,-4454.926187387251,-4315.205432797126,-5903.341579835604,-6173.484763322444,-4567.71308990873,-4093.7890522228545,-5588.874887093889,-6257.750839918953,-4836.135189072513,-3307.454682285152,-4320.927479377685,-5577.631959632869,-4566.95313059725,-3536.515359463139,-4670.978149292248,-6080.233285454904,-5291.686092816126,-3903.195727252451,-4651.465076382766,-6160.140771882627,-5623.609497977436,-4112.184537909572,-4420.750370115086,-6005.71256944091,-5852.44665771087,-4240.841178994319,-4130.0659334738175,-5728.215662028273,-6021.269383581804,-4423.387875960812,-3921.322992005705,-5458.921844830733,-6135.7326669374315,-4736.2452431017455,-3893.1597939920184,-5194.0313212908895,-6273.061784870838,-5124.316230334786,-4063.7483076749218,-5083.6807589150385,-6398.544478242931,-5609.237326292673,-4198.708140696066,-4900.865841015082,-6432.250908881535,-5947.6650890904775,-4368.782564256498,-4700.348341506522,-6314.8818987467175,-6148.160236854582,-4515.4770631166775,-4373.767003270031,-5884.007320881763,-6180.3467488702245,-4560.225255516202,-3884.867296799099,-5279.303226387886,-5948.3132896796815,-4488.230286625658,-3545.0760775895214,-4849.970918890348,-6034.412209321525,-5090.319227018264,-4050.3372610017377,-5220.942821615079,-6635.920004358292,-5715.4528159442925,-4260.935397259641,-4909.672428330473,-6437.771789761996,-5952.694231592922,-4388.049767976972,-4611.924840441327,-6213.963772531006,-6185.711167539498,-4477.881428942851,-4245.423286607657,-5833.112398757029,-6171.584865043744,-4627.504006326676,-4037.6638218955786,-5479.820725896446,-6271.430107525601,-4895.791995023727,-3987.2382864044057,-5213.879670367202,-6343.089800249315,-5269.5802175498275,-4039.6307754076456,-5039.916043271547,-6426.752379745529,-5637.109951628441,-4184.3583207557585,-4827.596822690585,-6319.084026704315,-5828.463235910325,-4309.751607150031,-4435.726038900142,-6010.115863098606,-5963.825400331664,-4348.107200635338,-4151.836532573287,-5681.7910887946,-6084.144840734582,-4611.455453807766,-4062.049575096318,-5522.75842699509,-6320.112206949259,-4973.285493050277,-4028.0749235242515,-5220.562841959339,-6407.194603347136,-5263.522894802439,-3963.2325128594057,-4859.023375394747,-6200.910353769106,-5457.60309190787,-3918.171396037507,-4433.692030154709,-5982.109127296106,-5560.979910013665,-3943.1159428496294,-4232.056943423384,-6632.276670012077,-6986.350653928596,-5183.7048153525375,-4848.3615932895655,-6410.07797838187,-6914.3109815491425,-5414.844204764868,-4796.0585112641475,-6241.635232166676,-7061.87719844308,-5709.574307152547,-4722.834196428561,-5945.251100689305,-7117.555393881249,-5950.347298425115,-4636.4447041088,-5427.450588637661,-6763.883741364925,-5969.9721300568735,-4404.321837940435,-4919.842472057638,-6456.033164981981,-6046.348040860658,-4429.735771386119,-4589.796613430573,-6220.646944123143,-6308.288134132402,-4709.5349084776535,-4503.831804255463,-6154.530484024344,-6665.3125483170215,-5154.804009771826,-4487.3585685919015,-5958.013946773284,-6845.311146415609,-5494.975208637144,-4456.759030432586,-5577.296683466039,-6722.980049011713,-5607.672704180802,-4223.876204952741,-5068.503924429885,-6426.618269278797,-5707.719112362756,-4160.956044311052,-4596.77035770063,-6175.518772067878,-5854.011279822741,-4226.69252475411,-4344.1956453556595,-6042.48118906989,-6163.068850406272,-4434.809617377475,-3420.53215748455,-4958.779210898782,-5675.644359069391,-4288.271580728481,-3714.9940389387657,-5259.8348569673135,-6184.593580316732,-4871.942683689915,-3860.839171509644,-5098.187041066532,-6330.997506498994,-5270.094307672299,-3908.671904644001,-4801.3335229556,-6209.89575504014,-5568.445392661738,-4110.217584397506,-4589.796613430573,-6182.268998893381,-5883.11325110355,-4343.100409877349,-4441.537492458522,-6059.289700900281,-6180.704376781509,-4570.1270783099035,-4279.375586435269,-5825.177529475395,-6348.8118468298735,-4861.236198095822,-4152.864712818231,-5509.079159388442,-6413.095463883336,-5120.114102377189,-4040.7036591415003,-5199.328684726797,-6473.199304723657,-5498.596191238903,-4133.798674797854,-4998.341798584676,-6465.465601142121,-5844.511788429236,-4352.979880926595,-4846.3052327996775,-6459.005946994537,-6160.051364904805,-4560.404069471845,-4613.176538130825,-6226.99483954845,-6374.292835508923,-4736.848740202038,-4251.502961099501,-5668.2012281657735,-6096.661817629554,-4500.0990629314265,-3700.7336259762797,-5008.6683045230275,-6016.6202207351,-4960.455591732931,-4008.4277401480367,-5248.6813364841155,-6533.906642664271,-5542.405610371306,-4170.544942682379,-4985.914228667525,-6447.204225922135,-5840.935509316387,-4383.355901641357,-4834.905843127471,-6480.2401042270785,-6321.922698250139,-4699.3201612615785,-4663.177390477346,-6301.5602590513545,-6524.228337315123,-4930.437198929453,-4413.262535722558,-5849.384468720493,-6443.829112509384,-4968.546923225752,-4137.48671263298,-5401.611972047326,-6314.188994668602,-5094.923686376058,-3940.6572509595458,-5052.298909699787,-6355.964405055572,-5446.382516191306,-4055.6346244376455,-4872.5461807902075,-6444.164388676213,-5866.796477651176,-4357.4055263287455,-4757.993490456759,-6398.857402665306,-6246.6196711802095,-4609.734369484708,-4567.288406764079,-6149.009603143883,-6376.416251232177,-4803.255772978756,-4306.644714670743,-5792.767500015199,-6408.178080103169,-4915.349771422121,-4042.6706126535673,-5335.897843348724,-6308.019913198938,-5080.6856251580275,-3843.203645134407,-4871.4285935674425,-6187.387548373646,-5237.9972026344785,-3849.5291888152587,-4635.036544208115,-6072.544285362278,-5534.269575389573,-4052.058345324796,-4546.501284420644,-6974.1913049449095,-7022.560479946194,-5268.350871604785,-5117.029561642356,-6675.951978677747,-6969.989176987312,-5398.840355734868,-4842.773657175739,-6259.158999819637,-7031.791750406236,-5589.634846405369,-4659.802277064595,-5952.917749037475,-7020.727636900859,-5822.741189329767,-4603.00649440366,-5584.516296925103,-6923.2963828201755,-6018.3413050581585,-4556.4478107032555,-5129.099503648223,-6657.847065668949,-6154.575187513255,-4535.079543003982,-4799.746549099273,-6409.049798136926,-6341.346364181801,-4724.085894118059,-4636.802332020085,-6231.7110576285195,-6540.8133317009615,-5005.472005065919,-4491.493641316133,-6016.731979457376,-6728.411522914354,-5379.036710147466,-4484.788117979541,-5792.164002914907,-6849.133294717467,-5609.952582115243,-4362.613482786833,-5403.444815092661,-6717.705037320261,-5846.165817518928,-4375.95747422665,-4939.422600200486,-6426.662972767708,-5967.938121311441,-4384.495840608578,-4598.692607723786,-6242.059915311327,-6189.108632696704,-4056.9757291049636,-3273.5694376909064,-5042.195921205988,-5582.594046901947,-4132.524625363902,-3699.9066114314332,-5303.1525377216985,-6123.193338298004,-4850.753229946284,-3949.1509138525626,-5218.104150069255,-6362.602873158798,-5292.624866083249,-4084.6918922295445,-5062.156029004577,-6441.3704206193,-5663.708527530257,-4162.766535611932,-4752.114981665013,-6316.11124469176,-5896.16666986545,-4283.287141714948,-4390.575515100421,-5953.3647839265805,-5998.6717699374885,-4378.572628327922,-4131.965831752519,-5716.793920611611,-6161.906559694596,-4684.903286087905,-4051.2760342688603,-5537.488226591137,-6387.368606015278,-5043.022935750835,-4108.071816929796,-5432.926766029211,-6641.396181749843,-5583.041081791053,-4366.010947944039,-5287.439261369617,-6737.419275929842,-5946.614557101078,-4335.165540595715,-4752.182036898379,-6220.7363511009635,-5749.47217100527,-4077.159354348106,-4258.499057114012,-5957.544560139723,-6189.555667585811,-4735.932318679371,-4525.490644632655,-6022.118749871105,-6360.568864413365,-4812.822319605627,-4085.0271683963742,-5486.8838771443225,-6344.833236316828,-5024.694505297483,-4048.973804589964,-5335.741381137536,-6553.464419062665,-5581.319997467995,-4352.734011737587,-5302.370226665763,-6803.356922072998,-6128.647163945099,-4665.25610271169,-5206.235373763487,-6842.338364403054,-6559.745259254606,-4915.238012699844,-5066.112287773167,-6685.250304371155,-6749.064534791057,-5132.496968805429,-4817.605592919063,-6330.148140209692,-6793.388044045931,-5268.797906493892,-4533.023182514094,-5914.204527640883,-6795.44440453582,-5477.585551450915,-4400.924372783229,-5594.954561585732,-6754.205436015777,-5790.040587191652,-4541.382734940378,-5379.550800269938,-6862.186713479366,-6180.257341892403,-4636.422352364344,-5113.095654618222,-6708.429063371309,-6421.119740142792,-4801.422929933421,-4821.047761565181,-6431.200376892135,-6515.1088255773575,-4825.674572667429,-4448.600643706399,-5933.471731361357,-6392.844783406828,-4869.707509244384,-4053.3100430142936,-5376.086279879365,-6339.334707180823,-5071.230837253433,-3993.876754507632,-5146.198588156532,-6486.0515577854585,-5551.078087219964,-4687.6972541448185,-6223.999705791439,-7631.444350653214,-6927.677324733416,-5348.750096410525,-5819.813110806122,-7390.358434958272,-7146.009164572855,-5508.676827988247,-5557.001299500621,-7168.56207472826,-7336.5354343098925,-5736.552862710102,-5309.701598847103,-6765.0460320766015,-7294.402396011638,-5790.666436036401,-4926.816216327693,-6194.875382766174,-7026.3155730146855,-5755.462438519292,-4606.426311305322,-5724.415865470871,-6957.874531492535,-5927.101484191595,-4539.080505261481,-5334.109703792299,-6837.644498067439,-6200.1280427131705,-4652.627367094442,-5113.140358107133,-6658.025879624592,-6485.805688596451,-4892.506288588797,-4882.939741961925,-6580.107698453391,-6829.508463085707,-5233.482150254506,-4807.547307914175,-6335.311393178868,-6958.075697192633,-5508.676827988247,-4729.897347676439,-6088.704596603465,-6987.579999873638,-5732.641307430424,-4609.868479951439,-5703.025246027141,-6941.960089440357,-5960.673804363466,-4630.230919150224,-5370.699509465637,-6784.000311374702,-6218.434121422068,-4669.078251013548,-5031.869415267636,-6656.707126701728,-6528.028133872525,-4922.815254070193,-4884.057329184691,-6523.222508814634,-6821.283021126154,-5285.271142157453,-4854.843599181605,-6402.232516078057,-7078.953931206934,-5653.180855891807,-4793.555115885153,-6133.028105858339,-7218.384113119139,-5985.8195168756865,-4844.785314176716,-5863.242550282783,-7146.389144228595,-6284.841154198784,-4882.179782650445,-5556.666023333791,-7056.11044837361,-6569.825896003949,-4958.443934731953,-5227.581289718305,-6759.927482596337,-6608.561469144996,-5044.028764251324,-5019.911231984047,-6616.3622279598985,-6888.785289381181,-5337.417761971684,-4794.829165319105,-6297.29107586039,-7050.209587837409,-5726.6063364274905,-4976.302978551743,-6465.085621486381,-7746.53348285359,-6633.528367701575,-5473.405775237772,-6608.941448800737,-8383.580551574296,-7318.788149212379,-5617.529823485592,-6358.199579501103,-7964.239473848281,-7374.443992906094,-5614.132358328386,-5852.759582133243,-7437.811188436889,-7298.425710013594,-5571.619340374392,-5359.635395960259,-6948.576205799128,-7293.06129134432,-5765.766592713188,-5172.059556491323,-6615.088178525946,-7282.064233072309,-5882.800326681177,-4969.84332440416,-6187.991045473939,-7263.087602029754,-6055.154628176049,-4779.361758156033,-5732.484845219236,-7115.029646757799,-6364.726288882052,-4992.9326764264915,-5677.812478281556,-7217.1994706630085,-6703.198755168767,-5058.803267336281,-5146.220939900987,-6565.243788390611,-6412.98370516106,-4684.500954687709,-4427.813521362963,-5943.753533810799,-6287.411604811145,-4740.380315825977,-4075.1700490915837,-5487.621484711348,-6250.575929948799,-4843.935947887415,-3880.016968252298,-5100.712788189982,-6294.67592175912,-5191.013835789423,-3893.696235858946,-4868.075831899147,-6298.319256105335,-5586.617360903902,-4129.618898584712,-4692.100547802514,-6267.250331312458,-5979.046938305729,-4443.347983759401,-4643.597262334498,-6298.520421805432,-6350.0411927749155,-4754.46191483282,-4513.621868326887,-6105.78132936732,-6575.279721651044,-5025.208595419955,-4399.091529737893,-5837.828616837099,-6642.290251528055,-5333.841482858835,-4346.721392479109,-5538.583462069448,-6744.52713066663,-5656.846541982477,-4342.429857543691,-5282.276008400441,-6762.833209375526,-6000.504612982823,-4460.491771756622,-5017.072560438223,-6604.627562120862,-6271.452459270055,-4650.772172304652,-4803.85927007905,-6424.427798322177,-6582.007596732092,-4996.173679372511,-4749.678641519385,-6317.720570292541,-6846.920472016392,-5355.366212769296,-4662.4621346547765,-6128.490701733912,-7077.657530028526,-5792.991017459753,-4841.320793786143,-6047.6891455279765,-7301.1973263260525,-6306.187070153603,-5063.877113327636,-5954.638833360534,-7459.38062183626,-6771.7962589021045,-5182.520172896406,-5036.160950203055,-6342.106323493282,-6261.103601587249,-4835.643450694496,-5054.310566700765,-6736.011116029158,-6894.7085016618375,-5293.518935861461,-4802.987552045292,-6362.848742347806,-6839.0079544792125,-5322.755017609003,-4599.452567035266,-6056.406325865546,-7058.613843752604,-5839.706163371345,-4838.012735606759,-6042.011802436328,-7438.258223325995,-6680.534086291085,-5397.54395455646,-6271.161886592136,-7729.523805323101,-7033.065799840188,-5416.475882110105,-5687.64724584189,-7048.712020958904,-6650.359231276421,-4870.266302855766,-4797.6454851204735,-6359.093649279314,-6473.825153568406,-4878.894076215515,-4391.089605222894,-5939.104370964095,-6485.939799063182,-5018.27955463881,-4373.767003270031,-5830.206671977839,-6886.483059702285,-5713.08353103203,-4619.367971344945,-5800.5682588301015,-7094.35428313664,-6121.986344097418,-4703.008199096704,-5404.517698826516,-6802.284038339143,-6149.009603143883,-4544.914310564317,-4891.612218810585,-6370.358928484789,-6206.967676516495,-4789.621208861018,-4924.692800604439,-6583.639274077329,-6715.000476241169,-5101.428044012552,-4738.927452436382,-6384.753451914007,-7170.730193940425,-5915.255059630283,-5297.072863229855,-6684.400938081853,-7713.3187905930035,-6559.812314487972,-5663.440306596793,-7110.782815311291,-8662.731488076626,-7886.254237443714,-6669.492324530163,-7527.642849402768,-8985.334215800074,-8215.987171648405,-6686.792574738572,-7115.879013047102,-8599.252533823554,-8336.753646940428,-6668.575903007496,-6581.471154865165,-8156.643290119564,-8275.599274110707,-6618.619754149885,-6231.934575073073,-7717.990305184163,-8273.274692687357,-6832.525948587174,-6036.848549467153,-7375.226303962029,-8355.46205704952,-7143.818693616235,-6036.446218066957,-7054.098791372632,-8302.980161068459,-7304.415977527617,-5894.4232337979365,-6666.921873917803,-8188.561581201742,-7611.305428898982,-6102.361512465658,-6501.206040526157,-8047.4326667109335,-7904.761481852709,-6202.60908634771,-6064.609416080644,-7506.989837526065,-7640.630917624345,-6030.701819741943,-5537.622337057869,-7005.751968115803,-7620.804920292488,-6130.904690135085,-5250.894159185191,-7009.015322806278,-8593.955170387646,-7219.993438719922,-5806.6702850664005,-6687.3290166054985,-7853.0842486720385,-6825.7980735061265,-5396.091091166865,-6150.8200944447635,-7678.09244133144,-7145.830350617212,-5598.508488954126,-5978.890476094542,-7607.639742808312,-7483.520505847991,-6007.277191552782,-6050.5054653293455,-7664.591987680435,-7976.86820946553,-6428.406408835222,-5981.840906362642,-7471.092935930841,-8114.487900076855,-6666.676004728795,-5665.742536275689,-6934.427551558919,-7909.544755166145,-6634.69065841325,-5416.744103043568,-6410.145033615236,-7733.189491413772,-6812.029398921657,-5279.23617115452,-5817.421474149403,-7168.137391583609,-6448.27710965599,-4784.122679725013,-4954.286510263266,-6506.3022382619665,-6405.920553913183,-4845.679383954929,-4814.968087073336,-6485.515115918532,-6933.667592247438,-5493.745862692102,-5063.586540649717,-6712.005342484158,-7479.4077848682155,-6107.368303223647,-5225.9049088841575,-6458.044821982959,-7436.09010411383,-6125.853195888186,-4850.015622379258,-5703.606391382979,-6959.863836749058,-6102.137995021105,-4612.2154131192465,-5170.517286123906,-6732.94892703878,-6227.553633159832,-4622.363105101956,-4786.670778592918,-6366.939111583128,-6379.545495455921,-4728.623298242485,-4436.128370300337,-5967.759307355798,-6270.1560580916475,-4006.550193613791,-3114.2909067023884,-4620.016171934149,-5563.595064114937,-4173.584779928301,-3051.4154495496095,-4183.911285866652,-5239.740638701992,-4014.6415251066123,-2719.089712988104,-3629.208043719297,-4940.40607695652,-4120.7899595248655,-2577.3349496525466,-3092.94499074757,-4605.4651862937435,-4170.835515360298,-2490.811346866053,-2671.4134420649343,-4364.513381065533,-4422.046771293494,-2771.415146757978,-2422.102084410439,-3860.4144883649933,-4005.074978479741,-2147.1309241212516,-1259.9007797122931,-2471.4994396566676,-3218.293573652932,-2009.7571026989344,-1150.9583772371266,-2503.238916783204,-3809.0948830956086,-2783.4627370193884,-1557.9389402793577,-2520.8297396695307,-4013.523937883847,-3273.345920246353,-1894.0421216538098,-2516.0017628671844,-4235.141484158216,-3981.4044811015706,-2455.1826662042936,-2736.2111492408694,-4544.4225721863,-4779.7417378117725,-3375.2028197291875,-3253.519922914496,-4957.214588786911,-5557.738907067645,-4171.707233394055,-3557.5483509955825,-5181.8272688182915,-6184.481821594456,-5017.363133116142,-4078.388700293148,-5403.69068428167,-6761.492104708208,-5793.281590137672,-4498.266219886091,-5385.362253828318,-6894.619094684017,-6161.5042282944005,-4553.407973457333,-4980.862734420626,-6497.80857536895,-6135.129169837138,-4424.416056205757,-4362.188799642182,-5855.195922278872,-5908.2813153602265,-4196.249448805982,-3725.4770070883046,-5192.511402667928,-5704.254591972183,-4132.725791063999,-3404.7294741546484,-4767.023595216703,-5705.729807106234,-4409.082759509416,-3293.5071937450402,-4424.1478352722925,-5664.133210674908,-4655.130762473436,-3289.6626936987277,-4097.454738313525,-5676.761946292156,-5163.834114531769,-3751.0921062340867,-4438.475303468144,-6815.516271056685,-7161.3201095247405,-5521.864357216878,-5533.822540500467,-7182.733080712925,-7299.878573403189,-5672.224542167729,-5235.314993299841,-6774.344357770009,-7280.030224326876,-5720.124330535452,-4816.845633607582,-6085.463593657446,-6956.913406480958,-5555.213159944196,-4215.471949037546,-5081.713805402971,-6139.353649539191,-4977.241751818866,-3414.2066138036985,-4039.0943335407183,-5440.3922486772835,-4775.696072065362,-3205.9554107136028,-3613.695933067314,-5284.220610168053,-5184.911809553124,-3649.414020706895,-3661.796887135135,-5403.780091259491,-5746.432333759348,-4236.0132021919735,-3872.260912926306,-5525.127711907353,-6327.264765174958,-4957.616920187106,-4151.367145939726,-5537.108246935398,-6635.383562491365,-5426.1318357147975,-4279.844973068831,-5389.16205038572,-6702.505851090652,-5807.586706589068,-4360.2218461301145,-5049.527293387329,-6546.53537828152,-5963.5124759092905,-3890.9246195464875,-3720.336105863584,-5527.005258441599,-5516.9022699478,-3981.1809636570174,-3942.557149238247,-5588.740776627157,-5930.275431904249,-4391.290770922991,-3946.736925451389,-5543.09851444942,-6233.074514040293,-4883.185611150934,-4067.2128280654943,-5400.40497784674,-6504.402339983266,-5363.546951239938,-4189.409815002658,-5191.617332889716,-6488.3314357199,-5626.068189867519,-4167.415698458636,-4817.4267789634205,-6396.555172986409,-5911.5670217951565,-4307.181156537671,-4549.8763978333955,-6189.309798396802,-6070.644387083577,-4364.602788043355,-4246.8761499972525,-5881.727442947322,-6205.604220104721,-4638.3446023875,-4079.1486596046284,-5556.442505889238,-6325.789550040907,-4957.013423086813,-3984.198449158484,-5242.5793102478165,-6341.547529881898,-5180.150887984144,-3883.4814886428703,-4818.007924319259,-6126.456692988479,-5180.106184495233,-3613.628877833948,-4146.449762159558,-5650.431591323804,-5211.286868010387,-3640.33921245804,-4041.5977289197126,-5948.983842013341,-6087.877582058619,-4507.2069176682135,-4322.514453234012,-5887.963579650353,-6273.218247082025,-4732.914833177904,-4170.29907349337,-5644.083695898497,-6526.463511760654,-5206.79416737487,-4272.603007865311,-5611.651314693847,-6850.742620318249,-5765.543075268635,-4526.116493477403,-5517.394008325817,-6978.438136391418,-6193.578981587766,-4720.59902198303,-5298.056339985888,-6838.0691812120895,-6417.565812774398,-4807.279086980711,-4894.897925245515,-6473.333415190389,-6493.338226477889,-4826.121607556535,-4471.555885261999,-6020.6882382259655,-6473.333415190389,-4898.228335169356,-4241.288213883426,-5683.556876606569,-6557.1301051533355,-5185.850582820247,-4130.870596274209,-5392.805384731935,-6636.031763080569,-5564.645596104336,-4205.033684376917,-5109.787596438837,-6612.1377482578455,-5843.1259802730065,-4328.325906792392,-4824.71344765585,-6378.472611722066,-5987.294732009737,-4340.976994154095,-4389.5696865999325,-5965.479429421357,-6030.85828195313,-4316.747703164542,-3986.0312922038192,-5494.304656303484,-5952.5377693817345,-4427.813521362963,-3667.697747671336,-5090.766261907371,-6051.153665918549,-4737.027554157681,-3692.9775706502883,-5635.858253938944,-7153.586405943204,-5934.946946495408,-4501.708388532208,-5304.381883666741,-6792.829250434548,-6127.373114511146,-4559.554703182543,-5065.531142417329,-6731.160787482356,-6471.925255289705,-4865.572436520152,-4963.540132467763,-6593.295227682022,-6771.48333447973,-5234.040943865889,-4906.051445728713,-6478.362557692833,-7114.8284810577015,-5624.056532866542,-4890.338169376632,-6343.603890371787,-7295.318817534307,-5990.133403555561,-4791.722272839817,-6004.103243840128,-7347.733658282002,-6373.912855853183,-4966.311748780221,-5711.27303973115,-7211.477424082449,-6569.088288436925,-4979.65574022004,-5334.936718337145,-6929.666629989938,-6674.744984477161,-4977.88995240807,-4936.561576910207,-6543.562596268964,-6763.369651242453,-5092.0179595968675,-4597.507965267654,-6135.64325995961,-6742.224900987733,-5207.308257497341,-4400.432634405212,-5729.579118440047,-6695.733272520694,-5217.143025057677,-3201.5744688003624,-4251.704126799599,-5737.871615632966,-4882.224486139356,-3532.3802867389068,-4286.483441172057,-5856.894654857476,-5322.1738722531645,-3784.396205472494,-4126.087322960773,-5803.652799564934,-5696.453833157281,-4071.3031973008156,-4031.673554381556,-5716.480996189237,-6035.775665733298,-4412.904907811273,-3981.4491845904813,-5556.9118925227995,-6286.070500143826,-4876.703605258895,-4016.183795474028,-5352.415782501195,-6416.448225551632,-5272.351833862285,-4042.938833587031,-5116.806044197803,-6534.040753131003,-5597.189736031263,-4138.447837644558,-4802.160537500446,-6329.7905122984075,-5722.13598753643,-4009.299458181794,-4205.413664032658,-5875.245437055282,-5829.022029521708,-4299.84978435633,-4333.131531850282,-6197.7811095453635,-6667.815943696016,-5104.445529514019,-4518.673362573786,-5992.435633234458,-6712.050045973068,-5275.101098430288,-4326.135435835771,-5595.938038341766,-6733.261851461155,-5541.802113271012,-4223.74209448601,-5252.347022574785,-6667.637129740373,-5828.44088416587,-4341.513436021022,-4964.858885390626,-6559.789962743516,-6122.098102819694,-4505.284667645057,-4766.107173694036,-6469.8465430553615,-6446.153693932735,-4786.7825373151945,-4627.459302837766,-6276.950988406061,-6647.453504497231,-5100.533974234339,-4478.484926043145,-5902.872193202043,-6684.758565993138,-5311.154462236698,-4319.407560754724,-5580.470631178693,-6720.968392010736,-5580.828259089978,-4291.400824952224,-5212.695027911071,-6628.432169965765,-5859.241588025283,-4350.588244269878,-4930.101922762624,-6519.310953534956,-6164.320548095769,-4549.384659455378,-4610.784901474107,-6270.938369147583,-6321.3415528943015,-4695.721530404274,-4416.011800290561,-5973.190781258439,-6406.211126591102,-4847.556930489174,-4159.860808832742,-5596.58623893097,-6468.840714554873,-5097.091805588223,-4012.0934262387073,-5215.913679112635,-6464.884455786283,-5417.258193166041,-4092.38089232217,-5015.41853134853,-6531.693819963196,-5896.345483821093,-5002.812147475737,-6062.642462568577,-7575.430879048215,-7081.166753908009,-5384.848163705846,-5489.923714390245,-7154.3910687435955,-7260.651261884125,-5618.625058963902,-5276.263389141964,-6867.640539126461,-7416.957010860087,-5879.11228884605,-5062.446601682496,-6439.649336296241,-7363.64810033418,-5988.255857021315,-4876.122459903057,-6007.120729341595,-7228.978839990955,-6133.408085514079,-4742.906062949427,-5609.192622803763,-7070.683785758471,-6408.088673125348,-4858.084602127624,-5291.909610260679,-6917.060246117145,-6627.269879254089,-4997.470080550919,-5060.390241192608,-6706.596220325973,-6889.969931837312,-5284.645293312704,-4931.018344285291,-6453.9991562365485,-6972.872552022047,-5471.349414747884,-4681.729338375251,-6043.643479781566,-6988.38466267403,-5704.880440816933,-4551.619833900909,-5618.893279897366,-6895.624923184505,-5780.742261498244,-3615.1040929679984,-4211.02395189094,-5863.44371598288,-5335.182587526154,-3884.3532066766275,-4370.168372412726,-6013.222755577893,-5841.650765138957,-4310.4445112281455,-4274.681720099655,-5973.4366504474465,-6310.568012066843,-4738.1227896359915,-4386.39573888728,-6032.221738364904,-6757.111162794968,-5333.237985758542,-4584.700415694763,-5946.860426290086,-6953.225368645832,-5727.343943994516,-4537.6052901274315,-5632.3937335483715,-6936.238042859798,-5962.126667753061,-4461.855228168396,-5058.378584191631,-6464.549179619454,-5791.649912792434,-4150.026041272407,-4451.104039085393,-6062.061317212739,-6043.263500125826,-4633.762494774162,-4677.460155184288,-6358.177227756647,-6682.031653169591,-5175.814649559814,-4680.991730808226,-6197.55759210081,-6973.945435755902,-5603.53763145657,-4709.512556733198,-6056.160456676538,-7196.501755297394,-6021.135273115072,-4776.590141843574,-5795.740282027756,-7109.6652280885255,-6191.410862375601,-4680.008254052193,-5329.684058390148,-6877.989396809268,-6273.598226737765,-4650.816875793562,-4902.452814871409,-6544.836645702916,-6394.811736918895,-4761.3239003806,-4622.29604986859,-6254.062802083827,-6626.085236797958,-5065.151162761589,-4543.28263321908,-6067.671605071021,-6874.301358974142,-5452.439838938694,-4523.70250507623,-5836.912195314431,-6974.839505534113,-5811.162985701917,-4544.467275675211,-5474.188086293708,-6873.653158384938,-6038.636689023578,-4549.1164385219145,-5177.982768771979,-6704.472804602719,-6240.875272855195,-4595.563363500043,-4815.169252773435,-6408.178080103169,-6381.378338501256,-4732.400743055433,-4502.55775482151,-6080.9708930219285,-6446.243100910557,-4874.490782557819,-4249.915987243175,-5693.861030800465,-6555.744296997106,-5194.79128060237,-4152.082401762295,-5437.151245731264,-6721.795406555582,-5662.635643796402,-4615.948154443283,-6412.536670271954,-7881.381557152457,-7000.968694802367,-5419.493367611572,-6013.9380114004625,-7573.352166813871,-7130.228832987408,-5476.579722950426,-5623.631849721891,-7233.829168537756,-7245.116799487687,-5582.3258259684835,-5217.321839013319,-6774.567875214562,-7258.48314267196,-5699.717187847757,-4969.999786615346,-6366.693242394119,-7172.250112563385,-5749.762743683189,-4682.042262797626,-5902.402806568481,-7145.115094794643,-6089.710425103954,-4813.694037639384,-5716.436292700326,-7220.641639309125,-6559.588797043419,-5085.982988593935,-5633.936003915787,-7228.107121957198,-6897.256600529743,-5294.636523084227,-5389.452623063639,-7010.490537940328,-7085.793565010258,-5442.850940567368,-4999.6829032519945,-6562.0027854445925,-7053.249425083331,-5471.572932192437,-4698.716664161285,-6124.065056331761,-7001.438081435929,-5630.091503869475,-4322.42504625619,-4676.096698772514,-5955.309385694192,-5138.487236319451,-3905.788529609267,-4848.696869456395,-6394.744681685529,-5791.940485470353,-4330.069342859905,-4859.425706794943,-6516.9863721116035,-6335.311393178868,-4728.779760453673,-4782.759223313239,-6491.8630113438385,-6704.338694135988,-5073.734232632427,-4710.093702089036,-6271.318348803324,-6852.508408130218,-5352.348727267829,-4510.246754914136,-5908.594239782601,-6841.69016381385,-5508.743883221613,-4292.339598219347,-5378.835544447368,-6673.001548409647,-5675.353786391472,-4278.213295723593,-5037.993793248391,-6583.0804804659465,-5921.960582966874,-4274.592313121833,-4690.357111735,-6344.229739216536,-6177.396318602124,-4764.140220181968,-4915.729751077861,-6725.259926946155,-7032.171730061977,-5385.608123017326,-4866.91354118747,-6389.4920217385325,-7082.150230664043,-5614.802910662045,-4776.65719707694,-6092.280875716314,-7096.768271537813,-5846.366983219026,-4617.289259110601,-5695.917391290354,-7019.766511889281,-6045.76689550482,-4618.473901566733,-5339.1388462947425,-6906.443167500874,-6344.699125850097,-4739.106266392025,-5111.396922039619,-6767.661186177873,-6670.028766397091,-5072.750755876393,-5015.574993559718,-6662.138600604368,-7020.280602011753,-5455.591434906893,-4952.855998618126,-6473.467525657121,-7220.149900931108,-5745.918243636876,-4765.146048682457,-6096.661817629554,-7172.048946863288,-5983.6513976635215,-4669.346471947011,-5665.183742664307,-6982.729671326837,-6073.326596418214,-4564.80736312954,-5176.105222237733,-6709.032560471602,-6219.283487711369,-4608.348561328478,-4820.310153998155,-6445.8407695103615,-6390.9001816392165,-4798.427796176409,-4643.597262334498,-6276.638063983687,-6663.636167482873,-5091.593276452217,-4545.920139064806,-6035.149816888549,-6883.778498623193,-5506.933391920733,-4544.04259253056,-5858.6827944139,-7710.837746958465,-6833.621184065483,-5403.556573814938,-6284.8858576876955,-7616.7592545460775,-6725.9528310242695,-5164.8622947767135,-5730.406132984893,-7267.803820109823,-6845.601719093528,-5206.145966785666,-5349.912387122201,-7013.463319952884,-6967.888113008513,-5316.027142527955,-5080.238590268921,-6700.315380134032,-7143.863397105146,-5589.0760527939865,-4964.188333056967,-6435.536615316465,-7282.623026683692,-5894.825565198132,-4931.286565218755,-6198.205792690014,-7401.400196719193,-6261.550636476355,-4914.723922577372,-5863.756640405255,-7266.10508753122,-6467.834886054384,-4959.270949276799,-5451.121086015831,-7045.023983123778,-6668.374737307398,-4991.792737459271,-5100.757491678893,-6707.356179637454,-6781.698081695805,-5166.181047699577,-4908.621896341074,-6466.784354064984,-6989.52460164125,-5490.1695835792525,-4783.228609946801,-6236.315516986313,-7144.623356416626,-5332.38861946924,-3656.9018550994224,-5012.177528402511,-6395.035254363448,-5431.987992762089,-4150.58483488379,-5040.452485138475,-6565.735526768628,-5917.5572893091785,-4405.238259463103,-4868.478163299342,-6536.924128165738,-6268.345566790768,-4673.7274138602515,-4724.532929007164,-6412.067283638392,-6607.399178433321,-5026.504996598363,-4715.45812075831,-6278.448555284567,-6835.297564899632,-5366.117401852299,-4572.295197522068,-5965.010042787796,-6956.242854147298,-5646.385925577393,-4465.856190425896,-5628.079846868497,-6932.840577702592,-5951.397830414514,-4564.382679984889,-5369.581922242871,-6918.758978695748,-6307.304657376369,-4653.722602572751,-4976.101812851645,-6576.263198407078,-6319.016971470949,-4670.017024280671,-4665.7478410897065,-6389.559076971898,-6779.1499828279,-5330.265203745986,-4987.7694234573155,-6564.953215712692,-7149.719554152436,-5631.231442836695,-4752.696127020851,-6057.501561343856,-7056.199855351431,-5787.447784834836,-4593.641113476886,-5648.799913978567,-6964.401240873485,-5993.240296034849,-4556.693679892263,-5323.447921687117,-6880.470440443807,-6347.4036869291895,-4760.899217235949,-5132.675782761072,-6788.649474221405,-6622.620716407385,-5036.786799047804,-4949.100905549634,-6600.537192885541,-6893.74737665026,-5303.823090055357,-4803.814566590138,-6312.8925934901945,-6972.872552022047,-5521.707895005691,-4614.785863731607,-5904.436815313914,-6969.385679887018,-5757.652909475913,-4506.804586268018,-5572.491058408148,-6951.303118622675,-6024.599793505645,-4596.949171656272,-5335.8531398598125,-6908.119548335022,-6360.680623135641,-4792.057549006647,-5108.960581893991,-6753.065497048557,-6664.038498883069,-5008.601249289662,-4830.927232614426,-6426.551214045431,-6756.507665694674,-5137.280242118864,-4530.475083646189,-6066.308148659247,-6810.218907620777,-5376.600370001837,-4418.291678225002,-5738.117484821973,-6954.342955868597,-6123.416855742557,-5612.366570516417,-6539.986317156115,-7817.947306388296,-6927.5208625222285,-5385.49636429505,-5949.162655968983,-7527.285221491483,-7080.630312041082,-5436.480693397605,-5543.031459216054,-7179.067394622254,-7199.85451696569,-5570.769974085089,-5359.076602348877,-6979.220447447354,-7376.165077229152,-5813.91225026992,-5164.63877733216,-6646.671193441295,-7494.67402633119,-6100.305151975769,-5096.935343377036,-6305.807090497862,-7431.552699989403,-6308.086968432304,-5032.763485045849,-5933.918766250464,-7351.399344372671,-6608.673227867273,-5067.498095929396,-5643.122570886919,-7245.139151232142,-6870.792135094659,-5269.066127427355,-5397.029864433988,-7067.152210134532,-7163.264711292352,-5511.157871622786,-5226.642516451182,-6826.312163628598,-7264.33929971925,-5709.328437963538,-4996.665417750528,-6453.261548669523,-7295.944666379055,-5887.918876161441,-4823.685267410907,-5997.576534459178,-7230.05172372481,-6030.791226719764,-3900.714683617912,-4634.589509319009,-6276.705119217053,-5720.5043101911915,-4247.859626753286,-4804.798043346173,-6491.058348543447,-6274.380537793701,-4717.715646948296,-4770.063432462625,-6425.7689029894955,-6585.092137466924,-4989.423452547008,-4602.335942070001,-6089.5986663816775,-6709.56900233853,-5258.069069155344,-4511.967839237194,-5922.139396922516,-6923.564603753639,-5626.023486378609,-4466.45968752619,-5591.490041195159,-6954.499418079784,-5970.821496346176,-4588.388453529889,-5426.936498515189,-6970.61502583206,-6320.894518005195,-4754.976004955292,-5194.612466646728,-6840.97490799128,-6637.283460770066,-4983.097908866156,-4950.084382305668,-6599.196088218223,-6808.743692486727,-5180.352053684242,-4713.3123532906,-6239.467112954511,-6811.090625654534,-5274.989339708011,-4308.276392015981,-5682.618103339446,-6721.035447244102,-5465.292092000495,-4436.30718425598,-5762.1232583669735,-7308.506346762937,-6428.495815813043,-4971.7432226828605,-5635.455922538748,-7152.17824604252,-6558.873541220849,-4908.68895157444,-5237.170188089632,-6860.219759967299,-6685.56322879353,-4977.487621007875,-4865.371270820055,-6477.75906059254,-6768.421145489353,-5168.729146567482,-4692.2793617581565,-6231.129912272681,-6921.687057219393,-5461.805219865468,-4602.805328703562,-5973.414298702991,-7120.148196238065,-5942.010097743285,-4710.317219533589,-5777.434203318859,-7192.813717462268,-6332.360962910768,-4839.3761920185325,-5554.564959354992,-7122.070446261221,-6611.914230813293,-4903.928030005459,-5139.247195630932,-6839.723210301782,-6735.832302073515,-5025.208595419955,-4832.67066868194,-6419.242193608546,-6779.4852589947295,-5184.800050830848,-4545.204883242236,-6071.225532439415,-6918.1331298509995,-5467.2143420236525,-4494.756996006608,-5806.424415877392,-6989.837526063625,-5876.340672533593,-4638.657526809875,-5641.3791348194045,-7094.913076748023,-6296.285247359901,-4818.633773164007,-5440.928690544211,-7069.3426810911515,-6648.280519042078,-5049.326127687232,-5476.1997432946855,-7887.930618277863,-7821.992972134706,-6043.978755948396,-5673.677405557323,-7118.494167148372,-7513.851823073844,-5974.107202781106,-5267.8814849712235,-6714.598144840974,-7515.6846661191785,-6113.760902137864,-5058.266825469354,-6251.805275893841,-7483.542857592447,-6368.503733694999,-5067.386337207119,-5971.089717279639,-7485.398052382237,-6783.597979974506,-5266.652139026182,-5792.253409892727,-7388.167964001652,-7046.990936635845,-5401.343751113863,-5553.112095965397,-7203.766072245368,-7247.597843122226,-5566.9478257832325,-5168.036242489367,-6738.76038059716,-7214.941944473022,-5586.751471370634,-4792.683397851396,-6221.250441223436,-7110.02285599981,-5739.145665066918,-4606.113386882947,-5772.002729416219,-7079.177448651487,-6063.424773624512,-4722.5659754950975,-5597.659122664824,-7170.4172695180505,-6523.714247192651,-5001.7392637418825,-5510.464967544672,-7177.391013788107,-6981.992063759812,-5292.311941660874,-5288.2439241700085,-6655.2766150565885,-6093.845497828186,-4484.408138323801,-4211.336876313314,-5799.405968118425,-6479.435441426688,-5016.670229038028,-4140.034811500885,-5542.807941771501,-6582.54403859902,-5329.840520601335,-4162.095983278273,-5315.62481112776,-6740.928499809325,-5827.926794043397,-4472.539362018033,-5275.548133319394,-6870.903893816936,-6276.459250028044,-4765.771897527206,-5231.962231631545,-6895.669626673416,-6739.073305019535,-5103.43970101353,-5056.098706257189,-6655.388373778865,-6855.235320953766,-5256.482095299018,-4718.74382719324,-6277.24156108398,-6929.621926501028,-5464.8897606003,-4565.7237846522075,-5887.158916849961,-6948.509150565762,-5737.491635977225,-4559.219427015713,-5622.11193109893,-7019.3865322335405,-6149.970728155462,-4702.136481062947,-5426.64592583727,-7058.323271074685,-6562.025137189047,-4991.658626992539,-5262.13708664621,-6911.025275114212,-6817.483224568752,-5098.522317233363,-4851.870817169049,-6443.985574720571,-6673.023900154102,-4931.510082663308,-4265.450449639613,-5787.872467979488,-6538.309936321966,-5224.8543768947575,-4508.413911868801,-5966.775830599765,-7135.705010378959,-5975.113031281595,-4721.113112105502,-5666.9718822207315,-7103.45144312995,-6244.362144990224,-4727.595117997542,-5350.784105155958,-6989.85987780808,-6514.90765987726,-4897.4907276023305,-5139.269547375387,-6803.066349395079,-6789.320026555065,-5087.279389772343,-4802.5181654117305,-6405.093539368337,-6818.556108302607,-5307.578183123849,-4659.087021242025,-6048.650270539555,-6857.448143654841,-5515.672924002758,-4518.829824784973,-5808.972514745297,-7021.822872379169,-5897.485422788313,-4616.194023632291,-5575.687357865258,-7017.57604093266,-6229.162958760615,-4725.69521971884,-5311.646200614715,-6946.877473220525,-6561.376936599843,-4890.58403856564,-5007.997752189369,-6658.383507535877,-6656.751830190638,-4956.991071342358,-4675.157925505391,-6294.966494437039,-6675.03555715508,-5089.872192129158,-4400.097358238382,-5867.377623007014,-6729.66322060385,-5375.125154867787,-4396.431672147712,-5635.344163816472,-6874.815449096614,-5834.29704121316,-4523.680153331775,-5436.748914331069,-6947.346859854086,-6220.132854000671,-4687.160812277891,-5208.761120886937,-6849.759143562215,-7125.669077118526,-5898.111271633062,-5810.023046734696,-7297.933971635577,-7297.308122790829,-5597.457956964727,-5216.65128667966,-6746.38232545642,-7234.522072615871,-5743.236034302239,-4925.631573871562,-6315.507747591466,-7354.55094034087,-6058.283872399792,-4995.41372006103,-6186.851106506719,-7499.278485688983,-6498.1438515357795,-5110.9722388949685,-5980.142173784038,-7491.768299552,-6843.59006209255,-5278.342101376307,-5663.753231019167,-7246.7261250884685,-6969.586845587117,-5275.905761230679,-5231.8951763981795,-6854.028326753179,-7040.1065993436105,-5350.560587711405,-4890.896962988015,-6464.61623485282,-7069.141515391054,-5570.501753151626,-4783.407423902443,-6215.729560342975,-7228.218880679475,-5974.308368481204,-4784.189734958379,-5933.918766250464,-7267.692061387546,-6325.5660325963545,-4916.579117367162,-5753.182560584851,-7265.479238686471,-6627.672210654285,-5013.451577836464,-4849.970918890348,-5949.229711202349,-5905.129719392028,-4329.309383548425,-4375.175163170715,-6131.128207579638,-6426.864138467806,-4852.094334613602,-4402.444291406189,-5997.241258292349,-6657.467086013208,-5203.0167225619225,-4396.498727381078,-5797.953104728831,-6868.735774604771,-5640.105085385452,-4421.219756748647,-5525.217118885174,-6873.317882218109,-5984.746633141832,-4585.818002917529,-5339.34001199484,-6910.7347024362925,-6389.380263016255,-4816.912688840948,-5183.458946163529,-6892.205106282843,-6771.371575757454,-5128.428951314563,-5045.392220663098,-6656.662423212818,-7012.859822852591,-5454.920882573233,-4921.7870738252495,-6396.175193330669,-7128.775969597813,-5675.756117791667,-4713.357056779511,-5967.893417822531,-6887.153612035944,-5628.6386404798795,-4388.921486010729,-5417.369951888318,-6786.861334664981,-6043.039982681273,-4851.6472997244955,-5710.356618208482,-7348.068934448831,-6797.478413281252,-5169.444402390051,-5357.9813668705665,-6963.954205984379,-6917.328467050608,-5299.911534775679,-5118.705942476505,-6759.636909918418,-7141.494112192883,-5606.018675091109,-5027.689639054494,-6557.443029575709,-7347.577196070814,-5947.396868157014,-4994.60905726064,-6193.735443798953,-7316.508271277938,-6080.657968599555,-4751.466781075809,-5753.026098373663,-7144.265728505341,-6310.29979113338,-4796.147918241968,-5353.980404613067,-6974.280711922731,-6545.753067225584,-4951.090210806156,-5121.142282622133,-6785.743747442216,-6823.182919404855,-5218.84175763628,-5061.910159815569,-6699.398958611365,-7151.0383070753,-5653.918463458832,-5021.632316307106,-6430.172196647191,-7292.010759354921,-5998.224735048382,-4988.618789746617,-6147.199111843003,-7328.064123161331,-6200.977409002472,-4862.8008202076935,-5729.3108975065825,-7147.3502692401735,-6429.591051291353,-4867.137058632024,-5353.153390068221,-6940.350763839575,-6609.455538923209,-4941.546015923741,-5013.473929580919,-6663.524408760597,-6810.040093665135,-5204.916620840624,-4885.912523974482,-6533.839587430905,-7097.930562249489,-5666.368385120438,-4938.729696122372,-6516.00289535557,-8369.364842100722,-7283.9194278621,-5995.341360013647,-7114.627315357604,-8353.115123881713,-7322.16326262513,-5927.83909175862,-6693.699263775261,-8160.331327954689,-7494.852840286832,-5829.469064410814,-6181.039652948339,-7777.177724501816,-7535.197739028662,-5866.72942241781,-5743.727772680256,-7345.252614647462,-7509.493232905059,-5906.604934526078,-5424.522510114016,-6902.218687798821,-7586.316178597949,-6135.978536126439,-5312.674380859659,-6646.559434719019,-7700.7571102091215,-6501.09428180388,-5366.475029763584,-6450.825208523895,-7775.099012267472,-6822.691181026838,-5374.387547300762,-6109.894050347096,-7636.182920477739,-7037.15616907551,-5444.817894079434,-5782.105717910018,-7369.280739936918,-7172.495981752394,-5506.262839587073,-5409.725655284603,-7023.633363680049,-7280.544314449348,-5595.3568929859275,-4422.15853001577,-5618.669762452813,-6496.0874910458915,-5189.963303800024,-4372.1353259247935,-5742.699592435311,-6899.759995908737,-5773.14266838344,-4554.816133358018,-5647.525864544615,-7053.517646016794,-6173.7753360003635,-4718.766178937695,-5443.812065578945,-7087.805222011236,-6718.062665231546,-5124.8303204572585,-5435.02783000801,-7091.225038912898,-7038.676087698471,-5380.266056092508,-5214.706684912048,-6850.07206798459,-7222.7203515434685,-5652.800876236067,-5010.881127224103,-6520.652058202274,-7367.4702486360375,-5971.402641702014,-4994.586705516184,-6242.261081011425,-7373.214646961052,-6225.005534291928,-4945.368164225598,-5911.522318306246,-7356.070858963831,-6577.470192607665,-5083.43488972603,-5682.416937639348,-7283.9194278621,-6943.032973174211,-5321.81624434188,-5489.856659156878,-7125.870242818623,-7071.622559025594,-5358.9648436266,-5028.606060577162,-6551.810389972972,-6947.078638920622,-5367.033823374966,-4760.116906180013,-6341.234605459525,-7391.096042525297,-6095.343064706692,-5001.024007919313,-6141.678230962543,-7280.812535382812,-6126.099065077194,-4742.324917593589,-5657.360632104949,-7130.452350431961,-6357.417268445167,-4796.505546153253,-5314.618982627271,-6981.366214915063,-6731.09373224899,-5149.7748672693815,-5265.981586692523,-6969.698604309393,-7081.613788797115,-5493.187069080719,-5192.869030579213,-6810.263611109688,-7347.487789092993,-5816.661514837923,-5047.38152591962,-6470.85237155585,-7411.547888701903,-6137.051419860294,-5005.159080643544,-6119.661762674065,-7419.728627172545,-6422.594955276842,-4961.617882444606,-5758.211703087295,-7270.508381188915,-6578.811297274983,-4961.774344655793,-5416.744103043568,-7081.323216119196,-6799.199497604311,-5169.824382045792,-5198.702835882049,-6815.315105356587,-6984.808383561181,-5350.359422011307,-4951.537245695263,-6572.508105338587,-7211.209203148986,-5722.158339280884,-4926.033905271757,-6316.312410391857,-7320.196309113063,-6031.148854631049,-4868.254645854789,-5958.170408984472,-7296.883439646178,-6306.052959686871,-4822.970011588337,-5606.599820446947,-7197.529935542338,-7152.290004764796,-6086.91645704704,-6226.32428721479,-7864.88596974444,-7569.820591189932,-5787.224267390284,-5732.686010919334,-7387.0727285233415,-7669.978758094163,-6038.904909957041,-5540.282194648051,-7105.865431531123,-7806.7714341606425,-6353.30454746539,-5515.494110047115,-6897.278952274198,-7918.217232014804,-6652.9296818887815,-5438.090018998387,-6500.200212025668,-7855.922920217863,-6908.32071403512,-5406.6411145497705,-6046.012764693829,-7587.45611756517,-7022.940459601934,-5383.261189849519,-5656.824190238022,-7319.391646312672,-7201.061511166276,-5539.254014403107,-5426.26594618153,-7041.738276688848,-7419.125130072252,-5850.367945476526,-5282.834802011825,-6794.527983013151,-7579.342434327893,-6152.138847367626,-5174.630007103683,-6474.495705902065,-7621.36371390387,-6457.620138838308,-5151.250082403431,-6090.20216348197,-7549.547558968969,-6366.805001116396,-4193.723701682532,-4961.573178955696,-6633.349553745932,-6369.151934284203,-4806.899107324971,-5092.643808441617,-6795.48910802473,-6803.3122185840875,-5161.263663919409,-4926.570347138685,-6523.937764637204,-6906.89020238998,-5383.887038694267,-4732.646612244441,-6218.478824910978,-7050.947195404434,-5660.623986795425,-4623.43598883581,-5956.672842105966,-7204.3472176012065,-6156.385678814135,-4857.43640153842,-5841.986041305786,-7344.537358824892,-6671.883961186882,-5190.231524733487,-5789.839421491554,-7443.37677280626,-7097.505879104839,-5521.529081050048,-5711.764778109166,-7367.425545147127,-7459.984118936553,-5820.997753262252,-5497.947990649699,-7124.88676606259,-7676.483115730658,-6115.884317861119,-5427.69645782667,-6873.139068262466,-7779.547009414078,-6509.319723763433,-5483.687577687214,-6681.539914791574,-7935.226909545292,-6853.469533141796,-5508.56506926597,-6354.01980328796,-7955.656403977443,-7335.462550576038,-5792.4098721039145,-6331.221023943547,-8072.533675734244,-7759.452791148758,-5970.150944012516,-5934.03052497274,-7642.597871136412,-7785.380814716914,-6152.943510168017,-5876.631245211512,-7673.957368607208,-8329.154053825623,-6939.702563250371,-6144.114571108172,-7508.085073004374,-8528.710428322605,-7160.537798468805,-5926.6991527914,-7066.213436867409,-8446.858340127272,-7538.841073374877,-6216.176595232081,-6983.266113193765,-8494.176983139156,-7941.507749737233,-6367.319091238867,-6822.735884515749,-8583.159277815734,-8351.41639130311,-6752.774924370638,-6826.423922350875,-8487.739680736027,-8778.82644877749,-7232.309249914796,-6820.97009670378,-8381.121859684214,-8940.8095408451,-7463.582749793858,-6590.992998003126,-8151.480037150388,-9263.300509846273,-7979.304549611158,-6752.819627859549,-7785.760794372653,-9069.17560925193,-8010.328770915124,-6382.630036190753,-7085.860620243624,-8718.029703859056,-8283.444736414522,-6884.136126534478,-7227.302459156806,-8852.587205480004,-8665.413697411263,-7035.5244917302725,-6905.571449467117,-8617.17863287671,-9060.100801003075,-7651.315051473982,-7333.40619008615,-9092.868458374556,-9990.760384888696,-8601.599466991362,-7729.702619278743,-9705.328608194424,-11106.715930308812,-9867.266996773124,-8624.331191102408,-9492.048262601884,-10683.776221725491,-9796.36726336089,-8399.673807582118,-8824.289896999586,-9970.710870112285,-9297.521030607348,-7519.842090587866,-7530.548576181958,-8958.288605009151,-8721.784796927548,-7193.081938395731,-7174.328824797729,-8682.356319708386,-8940.273098978174,-7437.699429714612,-6905.258525044743,-8147.9261097819945,-8699.656569916793,-7443.33206931735,-6648.034649853069,-7707.28381959007,-8542.568509884895,-7343.129198924208,-6152.496475278911,-6936.528615537717,-8027.047875767694,-7315.703608477546,-5942.010097743285,-6473.288711701479,-7818.394341277402,-7349.11946643823,-5895.272600087238,-6042.771761747809,-7405.669379910158,-7372.253521949473,-5925.670972546455,-5724.415865470871,-7142.142312782087,-7514.7458928520555,-6131.239966301914,-5577.251979977129,-6869.495733916251,-7589.691292010701,-6356.076163777848,-5556.487209378149,-6700.605952811951,-7736.072866448506,-6840.125541701978,-5807.899631011443,-6622.2854402405555,-7890.366958423491,-7203.833127478734,-5823.836424808076,-6283.142421620181,-7624.60471684989,-7305.265343816918,-5911.410559583969,-6113.179756782027,-7527.419331958215,-7517.070474275408,-6104.283762488814,-5908.1025014045845,-7289.954398865033,-7729.277936134093,-6440.588109563364,-5854.860646112043,-7111.475719389406,-7854.760629506187,-6655.008394123125,-5735.1223510649625,-6730.132607237412,-7743.6277560744,-6755.457133705275,-5475.484487472116,-6180.860838992696,-7438.034705881442,-6774.72433742575,-5420.990934490077,-5818.784930561177,-7262.8640845852005,-7021.800520634713,-5545.333688894951,-5608.96910535921,-7072.516628803805,-7245.407372165606,-5910.002399683285,-5670.0787747000195,-7046.700363957926,-7638.954536790197,-6482.14000250578,-6135.799722170797,-7541.724448409611,-8448.33355526132,-7520.222070243606,-6750.539749925108,-7852.4360480828345,-8939.423732688872,-7942.513578237722,-6588.914285768782,-7074.7965067382465,-8215.540136759299,-7518.568041153913,-6088.861058814652,-6443.695002042652,-7922.911098350418,-7793.472146209735,-6436.162464161213,-6420.136263386758,-7803.485727725712,-7861.086173187038,-6356.478495178044,-5864.516599716735,-7182.621321990648,-7683.926246634275,-6390.967236872582,-5831.659535367434,-7251.19647397953,-8253.851026755694,-7165.455182248972,-6082.267294200336,-6905.772615167215,-8017.34721867409,-7143.908100594056,-5810.805357790632,-6431.356839103322,-7734.083561191984,-7254.7056978590135,-5858.928663602908,-6121.293440019303,-7527.39698021376,-7473.104592931819,-6071.605512095155,-6015.055598623228,-7438.213519837084,-7714.414026071314,-6317.474701103533,-5912.125815406539,-7236.578433105759,-7874.251350671215,-6703.534031335596,-5913.310457862671,-7050.723677959881,-8030.2888787137135,-6987.915276040469,-5923.748722523299,-6896.004902840245,-8113.75029250983,-7250.168293734586,-5279.862019999268,-5680.561742849558,-7170.484324751416,-6903.090405832578,-5636.595861505969,-5949.497932135812,-7469.796534752433,-7452.04924965492,-6006.85250840813,-5873.993739365786,-7340.782265756401,-7648.61049039489,-6236.427275708589,-5727.299240505605,-7062.950082176934,-7800.803518391075,-6587.930809012749,-5694.017493011653,-6835.990468977746,-7884.600208354022,-6892.540382449673,-5780.7646132427,-6688.223086383711,-7938.1326363244825,-7245.519130887882,-5939.953737253397,-6488.957284564649,-7901.319313206592,-7544.8536926333545,-6156.877417192151,-6343.514483393966,-7856.749934762709,-7891.931580535363,-6444.924347987694,-6237.366048975712,-7695.102118861929,-8081.429670027455,-6707.892621504381,-6154.038745646328,-7493.109404219318,-8256.890864001616,-7026.382628248051,-6130.480006990434,-7287.830983141778,-8364.223940876002,-7395.99107456101,-6253.213435794525,-7083.826611498191,-8319.900431621127,-7706.85913644542,-6414.168347617191,-6842.785399292159,-8265.473933872454,-7916.742016880753,-6463.722165074607,-6559.700555765696,-8032.25583222578,-8089.3421875646345,-6602.124166741868,-6288.0598054003485,-7726.416912843813,-8160.823066332707,-6785.5872852310285,-6119.7735213963415,-7379.070804008342,-8236.751942247385,-7093.9743034809,-6110.184623025015,-7172.160705585565,-8288.384471939144,-7266.395660209139,-6084.7259860904205,-6907.381940767997,-8257.606119824186,-7602.632952050323,-6208.331132928269,-6645.978289363181,-8083.441327028433,-7855.878216728952,-6397.382187531256,-6404.825318434873,-7881.985054252751,-7990.547477072178,-6563.902683723293,-6204.374874159679,-7588.618408276846,-8119.807615257218,-6771.729203668739,-6011.322857299192,-7180.050871378287,-8029.372457191045,-6751.165598769856,-5610.1537478153405,-6577.470192607665,-7744.678288063799,-6826.312163628598,-5510.017932655565,-6184.839449505741,-7555.202550316161,-6937.5567957826615,-5455.74789711808,-5742.23020580175,-7258.192569994041,-7100.5680680952155,-5562.38806991435,-5500.339627306417,-6974.660691578471,-7225.670781811569,-5685.412071396359,-5267.814429737858,-6713.726426807217,-7364.0057282454645,-6050.818389751719,-5242.244034080986,-6477.736708848084,-7453.90444444471,-6331.221023943547,-5181.961379285023,-6172.166010399582,-7403.121281042252,-6531.7161717076515,-5175.479373392985,-5743.593662213524,-7134.1403882670875,-6629.728571144173,-5071.811982609271,-5295.150613206699,-6793.209230090289,-6715.827490786015,-5182.922504296602,-5030.6177175781395,-6593.004655004103,