4786 
4810 
4798 
4804 
4786 
4677 
4719 
4738 
4692 
4668 
4668 
4698 
4716 
4657 
4697 
4696 
4679 
4665 
4700 
4731 
4694 
4655 
4698 
4726 
4696 
4669 
4668 
4734 
4736 
4683 
4653 
4697 
4705 
4700 
4690 
4703 
4769 
4693 
4654 
4680 
4719 
4694 
4704 
4721 
4737 
4735 
4682 
4708 
4745 
4754 
4700 
4697 
4745 
4708 
4649 
4697 
4745 
4734 
4717 
4712 
4788 
4806 
4742 
4680 
4739 
4787 
4783 
4731 
4808 
4810 
4791 
4721 
4722 
4775 
4754 
4695 
4701 
4771 
4761 
4735 
4700 
4751 
4803 
4716 
4681 
4747 
4770 
4713 
4689 
4713 
4750 
4789 
4700 
4699 
4919 
5075 
5277 
5513 
5546 
5349 
5157 
4862 
4682 
4631 
4595 
4615 
4713 
4795 
4775 
4698 
4718 
4773 
4764 
4750 
4781 
4815 
4791 
4744 
5032 
5004 
5013 
5040 
5112 
5040 
5037 
5093 
5037 
5014 
5006 
4991 
4980 
4927 
4900 
4908 
4890 
4836 
4818 
4847 
4848 
4798 
4771 
4786 
4855 
4834 
4744 
4740 
4811 
4796 
4781 
4743 
4771 
4820 
4753 
4748 
4799 
4843 
4840 
4758 
4766 
4776 
4736 
4742 
4792 
4836 
4815 
4771 
4790 
4799 
4808 
4796 
4794 
4792 
4804 
4763 
4756 
4821 
4831 
4801 
4805 
4807 
4824 
4772 
4766 
4794 
4841 
4845 
4809 
4771 
4852 
4824 
4799 
4834 
4889 
4814 
4805 
4821 
4831 
4844 
4860 
4868 
4869 
4891 
4868 
4797 
4818 
4830 
4772 
4749 
4803 
4800 
4807 
4765 
4788 
4808 
4810 
4791 
4788 
4850 
4837 
4775 
4747 
4795 
4793 
4768 
4899 
5101 
5236 
5417 
5516 
5400 
5311 
5071 
4653 
4618 
4644 
4618 
4626 
4820 
4850 
4834 
4814 
4802 
4823 
4825 
4841 
4858 
4823 
4895 
4816 
4820 
4863 
4893 
4897 
4850 
4838 
4877 
4827 
4766 
4818 
4877 
4782 
4741 
4805 
4838 
4840 
4787 
4811 
4833 
4807 
4789 
4804 
4824 
4848 
4820 
4738 
4759 
4858 
4924 
5032 
5269 
5433 
5456 
5321 
5248 
5045 
4763 
4614 
4612 
4679 
4711 
4745 
4775 
4874 
4858 
4779 
4849 
4852 
4879 
4860 
4807 
4854 
4899 
4885 
4867 
4881 
4898 
4903 
4856 
4891 
4919 
4911 
4890 
4909 
4926 
4922 
4920 
4936 
4997 
5021 
4972 
4980 
4990 
5025 
5030 
5024 
5100 
5101 
5076 
5077 
5161 
5196 
5113 
5065 
5138 
5178 
5153 
5115 
5098 
5114 
5079 
5024 
5032 
5022 
5020 
4905 
4900 
4907 
4922 
4873 
4854 
4896 
4904 
4878 
4836 
4855 
4907 
4917 
4902 
4898 
4895 
4883 
4894 
4889 
4930 
4957 
4916 
4877 
4919 
4927 
4902 
4869 
4896 
4960 
4972 
4942 
4916 
4919 
4956 
4992 
4967 
4962 
4973 
4957 
4940 
4922 
4961 
4973 
4916 
4914 
4917 
4920 
4957 
4965 
4966 
4964 
4925 
4899 
4960 
4992 
4942 
4892 
4916 
4948 
4911 
4862 
4988 
5208 
5275 
5502 
5670 
5603 
5450 
5245 
4968 
4887 
4848 
4800 
4846 
4931 
4959 
4916 
4959 
4998 
5044 
4983 
4975 
5031 
5048 
5015 
5032 
5053 
5094 
5038 
4984 
5033 
5094 
5075 
5035 
5076 
5129 
5076 
5027 
5083 
5100 
5110 
5110 
5118 
5160 
5177 
5154 
5127 
5195 
5212 
5231 
5255 
5283 
5275 
5268 
5232 
5306 
5375 
5301 
5268 
5315 
5321 
5255 
5232 
5236 
5260 
5198 
5157 
5122 
5140 
5151 
5125 
5109 
5120 
5204 
5202 
5121 
5119 
5122 
5139 
5114 
5070 
5094 
5123 
5114 
5088 
5118 
5172 
5146 
5101 
5080 
5120 
5125 
5112 
5103 
5076 
5091 
5091 
5071 
5158 
5212 
5360 
5583 
5807 
5853 
5664 
5509 
5226 
5035 
4983 
4891 
4933 
5042 
5113 
5117 
5140 
5174 
5113 
5081 
5112 
5176 
5161 
5140 
5112 
5134 
5162 
5144 
5136 
5180 
5199 
5173 
5119 
5156 
5161 
5145 
5171 
5199 
5226 
5232 
5181 
5165 
5239 
5334 
5275 
5274 
5292 
5312 
5294 
5280 
5354 
5376 
5368 
5379 
5378 
5429 
5416 
5360 
5380 
5375 
5362 
5318 
5301 
5325 
5337 
5297 
5180 
5203 
5225 
5207 
5133 
5142 
5162 
5149 
5155 
5137 
5154 
5102 
5070 
5108 
5136 
5145 
5111 
5126 
5112 
5106 
5099 
5081 
5103 
5170 
5129 
5093 
5084 
5133 
5089 
5090 
5147 
5166 
5135 
5094 
5130 
5193 
5149 
5105 
5121 
5122 
5129 
5077 
5098 
5137 
5172 
5136 
5124 
5177 
5142 
5107 
5078 
5121 
5133 
5139 
5152 
5172 
5190 
5165 
5108 
5129 
5175 
5166 
5159 
5193 
5252 
5245 
5197 
5182 
5180 
5162 
5144 
5113 
5133 
5189 
5150 
5099 
5145 
5159 
5109 
5121 
5183 
5182 
5114 
5088 
5143 
5141 
5092 
5098 
5191 
5359 
5496 
5679 
5867 
5846 
5707 
5468 
5180 
5012 
4997 
4955 
5009 
5107 
5152 
5151 
5123 
5173 
5193 
5187 
5153 
5170 
5215 
5188 
5173 
5175 
5198 
5190 
5152 
5179 
5207 
5238 
5206 
5165 
5250 
5297 
5234 
5208 
5242 
5298 
5269 
5258 
5294 
5321 
5301 
5222 
5326 
5412 
5352 
5317 
5353 
5448 
5444 
5393 
5400 
5447 
5456 
5441 
5398 
5439 
5427 
5378 
5363 
5358 
5362 
5329 
5268 
5278 
5271 
5217 
5152 
5202 
5247 
5171 
5193 
5151 
5166 
5169 
5163 
5125 
5127 
5167 
5143 
5183 
5235 
5251 
5206 
5165 
5210 
5190 
5173 
5200 
5210 
5227 
5210 
5194 
5206 
5205 
5186 
5186 
5192 
5217 
5204 
5191 
5185 
5215 
5209 
5190 
5188 
5190 
5227 
5214 
5220 
5244 
5227 
5199 
5194 
5268 
5257 
5193 
5198 
5225 
5269 
5250 
5201 
5191 
5243 
5236 
5222 
5225 
5280 
5279 
5282 
5308 
5353 
5317 
5265 
5232 
5228 
5255 
5231 
5236 
5252 
5268 
5251 
5226 
5245 
5242 
5243 
5250 
5235 
5243 
5204 
5220 
5264 
5264 
5217 
5249 
5417 
5622 
5874 
6019 
5902 
5805 
5723 
5374 
5112 
5093 
5109 
5135 
5170 
5266 
5327 
5271 
5235 
5241 
5298 
5297 
5255 
5278 
5350 
5353 
5298 
5273 
5353 
5333 
5328 
5304 
5343 
5366 
5321 
5324 
5376 
5390 
5370 
5356 
5405 
5417 
5409 
5381 
5396 
5445 
5459 
5434 
5448 
5554 
5529 
5459 
5473 
5528 
5606 
5594 
5565 
5584 
5602 
5594 
5546 
5573 
5612 
5549 
5475 
5447 
5461 
5452 
5398 
5381 
5441 
5403 
5324 
5309 
5334 
5324 
5268 
5245 
5325 
5336 
5333 
5304 
5325 
5323 
5313 
5306 
5324 
5346 
5319 
5297 
5297 
5344 
5359 
5324 
5318 
5341 
5327 
5316 
5304 
5378 
5360 
5307 
5333 
5379 
5359 
5357 
5310 
5330 
5336 
5322 
5337 
5369 
5377 
5367 
5332 
5329 
5368 
5363 
5359 
5377 
5392 
5408 
5332 
5312 
5418 
5429 
5354 
5330 
5390 
5416 
5382 
5329 
5367 
5441 
5443 
5419 
5412 
5467 
5435 
5400 
5424 
5417 
5397 
5367 
5357 
5388 
5383 
5338 
5368 
5411 
5422 
5377 
5300 
5357 
5409 
5357 
5355 
5375 
5400 
5341 
5337 
5417 
5574 
5713 
5909 
6107 
6109 
5991 
5775 
5418 
5252 
5237 
5170 
5234 
5349 
5413 
5384 
5393 
5418 
5445 
5407 
5389 
5456 
5513 
5435 
5428 
5499 
5484 
5400 
5441 
5480 
5479 
5446 
5420 
5456 
5501 
5506 
5492 
5485 
5541 
5553 
5522 
5512 
5582 
5557 
5567 
5548 
5568 
5627 
5605 
5596 
5652 
5726 
5684 
5641 
5684 
5732 
5725 
5698 
5722 
5741 
5719 
5681 
5661 
5623 
5631 
5578 
5528 
5570 
5556 
5492 
5420 
5437 
5457 
5424 
5416 
5426 
5437 
5400 
5368 
5411 
5481 
5473 
5418 
5396 
5429 
5466 
5398 
5378 
5420 
5437 
5410 
5402 
5447 
5479 
5418 
5411 
5423 
5460 
5458 
5378 
5392 
5454 
5434 
5377 
5414 
5454 
5432 
5420 
5408 
5447 
5448 
5406 
5419 
5450 
5491 
5474 
5432 
5469 
5469 
5407 
5416 
5459 
5489 
5450 
5385 
5405 
5466 
5489 
5488 
5480 
5487 
5496 
5444 
5464 
5547 
5531 
5430 
5424 
5440 
5410 
5393 
5423 
5445 
5445 
5428 
5381 
5426 
5498 
5421 
5361 
5419 
5471 
5446 
5367 
5378 
5405 
5452 
5517 
5665 
5798 
5983 
6045 
5920 
5806 
5614 
5368 
5230 
5199 
5260 
5280 
5307 
5386 
5439 
5382 
5387 
5403 
5428 
5446 
5436 
5458 
5486 
5483 
5429 
5480 
5474 
5466 
5444 
5422 
5466 
5524 
5540 
5470 
5521 
5538 
5501 
5490 
5522 
5536 
5571 
5566 
5599 
5648 
5623 
5589 
5617 
5695 
5721 
5681 
5702 
5719 
5735 
5706 
5730 
5763 
5766 
5703 
5687 
5738 
5775 
5685 
5606 
5588 
5567 
5561 
5498 
5539 
5553 
5523 
5445 
5469 
5504 
5482 
5444 
5441 
5488 
5509 
5408 
5403 
5511 
5515 
5460 
5428 
5456 
5481 
5444 
5434 
5434 
5447 
5481 
5459 
5490 
5485 
5477 
5424 
5429 
5503 
5452 
5402 
5443 
5478 
5449 
5434 
5455 
5463 
5477 
5431 
5435 
5480 
5468 
5451 
5450 
5512 
5513 
5497 
5478 
5473 
5473 
5490 
5501 
5572 
5551 
5515 
5531 
5522 
5518 
5525 
5531 
5453 
5496 
5467 
5442 
5458 
5517 
5535 
5511 
5489 
5479 
5502 
5463 
5408 
5481 
5496 
5458 
5419 
5435 
5434 
5412 
5369 
5433 
5664 
5807 
6022 
6228 
6269 
6143 
5961 
5631 
5418 
5385 
5285 
5293 
5374 
5489 
5489 
5445 
5478 
5517 
5508 
5490 
5515 
5524 
5503 
5513 
5523 
5606 
5538 
5508 
5517 
5560 
5563 
5534 
5525 
5563 
5596 
5584 
5512 
5567 
5645 
5628 
5599 
5603 
5638 
5661 
5674 
5664 
5713 
5744 
5732 
5708 
5770 
5813 
5836 
5788 
5812 
5809 
5819 
5798 
5835 
5828 
5783 
5725 
5722 
5735 
5707 
5658 
5633 
5623 
5609 
5511 
5505 
5506 
5533 
5489 
5452 
5496 
5484 
5459 
5449 
5529 
5503 
5463 
5433 
5426 
5535 
5506 
5480 
5488 
5499 
5457 
5441 
5478 
5511 
5537 
5489 
5449 
5482 
5528 
5494 
5455 
5504 
5549 
5522 
5529 
5532 
5524 
5519 
5472 
5475 
5506 
5566 
5487 
5504 
5524 
5552 
5516 
5555 
5550 
5550 
5520 
5563 
5602 
5616 
5595 
5552 
5558 
5542 
5489 
5512 
5563 
5574 
5543 
5510 
5539 
5589 
5591 
5535 
5523 
5547 
5503 
5491 
5521 
5531 
5536 
5508 
5482 
5505 
5587 
5686 
5839 
6161 
6425 
6374 
6218 
6118 
5817 
5471 
5355 
5375 
5429 
5454 
5503 
5510 
5575 
5602 
5550 
5549 
5579 
5599 
5591 
5566 
5602 
5622 
5586 
5596 
5629 
5643 
5618 
5589 
5657 
5685 
5657 
5640 
5673 
5708 
5670 
5655 
5702 
5737 
5771 
5736 
5670 
5734 
5771 
5765 
5766 
5859 
5902 
5866 
5868 
5903 
5927 
5916 
5933 
5961 
5995 
5951 
5903 
5917 
5937 
5873 
5782 
5796 
5790 
5755 
5714 
5702 
5708 
5701 
5643 
5657 
5645 
5677 
5656 
5676 
5693 
5688 
5654 
5647 
5714 
5745 
5666 
5648 
5687 
5731 
5713 
5669 
5714 
5718 
5717 
5694 
5638 
5703 
5721 
5707 
5709 
5746 
5774 
5747 
5707 
5788 
5804 
5764 
5716 
5757 
5797 
5782 
5764 
5819 
5825 
5798 
5794 
5819 
5852 
5831 
5807 
5852 
5902 
5915 
5853 
5849 
5883 
5868 
5847 
5829 
5833 
5882 
5896 
5890 
5869 
5884 
5859 
5845 
5935 
5936 
5922 
5859 
5914 
5909 
5909 
5902 
5898 
5948 
6039 
6186 
6346 
6596 
6749 
6655 
6531 
6344 
6022 
5830 
5805 
5834 
5913 
5961 
5969 
6047 
6056 
6047 
6039 
6092 
6125 
6145 
6115 
6081 
6132 
6185 
6140 
6138 
6179 
6183 
6163 
6183 
6221 
6247 
6230 
6152 
6197 
6270 
6273 
6245 
6288 
6372 
6337 
6330 
6342 
6383 
6417 
6398 
6440 
6509 
6530 
6485 
6520 
6535 
6564 
6553 
6536 
6589 
6632 
6573 
6542 
6544 
6541 
6505 
6455 
6457 
6456 
6440 
6320 
6334 
6387 
6364 
6327 
6323 
6366 
6393 
6369 
6349 
6403 
6401 
6364 
6345 
6356 
6381 
6423 
6372 
6372 
6383 
6355 
6354 
6391 
6422 
6405 
6389 
6429 
6482 
6449 
6367 
6393 
6430 
6459 
6449 
6465 
6481 
6499 
6473 
6445 
6502 
6533 
6500 
6495 
6490 
6541 
6535 
6497 
6520 
6571 
6582 
6521 
6544 
6580 
6563 
6514 
6515 
6541 
6603 
6581 
6556 
6586 
6593 
6506 
6546 
6549 
6557 
6544 
6521 
6557 
6566 
6555 
6538 
6554 
6555 
6563 
6667 
6834 
7078 
7311 
7280 
7134 
7085 
6833 
6505 
6391 
6443 
6487 
6515 
6550 
6621 
6577 
6585 
6587 
6603 
6671 
6663 
6614 
6658 
6683 
6625 
6607 
6628 
6660 
6705 
6683 
6691 
6739 
6704 
6691 
6672 
6727 
6786 
6736 
6759 
6765 
6772 
6747 
6715 
6788 
6817 
6794 
6764 
6864 
6938 
6861 
6819 
6859 
6931 
6950 
6887 
6904 
6893 
6937 
6912 
6883 
6885 
6880 
6799 
6782 
6743 
6741 
6698 
6622 
6656 
6698 
6673 
6603 
6614 
6653 
6670 
6620 
6582 
6593 
6598 
6541 
6557 
6587 
6594 
6556 
6563 
6621 
6635 
6609 
6564 
6627 
6612 
6549 
6577 
6599 
6568 
6578 
6603 
6615 
6563 
6539 
6543 
6579 
6583 
6567 
6558 
6576 
6599 
6599 
6630 
6559 
6572 
6608 
6575 
6575 
6629 
6633 
6635 
6605 
6616 
6642 
6596 
6557 
6557 
6601 
6581 
6575 
6531 
6555 
6575 
6534 
6524 
6580 
6602 
6554 
6540 
6551 
6565 
6519 
6503 
6546 
6565 
6596 
6663 
6819 
7123 
7252 
7128 
6990 
6878 
6586 
6350 
6304 
6345 
6428 
6441 
6498 
6507 
6529 
6512 
6412 
6427 
6451 
6456 
6418 
6451 
6459 
6426 
6392 
6400 
6443 
6392 
6363 
6360 
6426 
6422 
6395 
6434 
6426 
6406 
6365 
6368 
6410 
6452 
6444 
6450 
6501 
6537 
6499 
6485 
6558 
6613 
6569 
6547 
6603 
6677 
6698 
6616 
6659 
6717 
6694 
6669 
6674 
6659 
6638 
6614 
6590 
6632 
6608 
6502 
6456 
6481 
6521 
6526 
6454 
6440 
6499 
6476 
6410 
6446 
6485 
6506 
6450 
6466 
6533 
6510 
6469 
6446 
6473 
6502 
6492 
6466 
6555 
6548 
6468 
6453 
6522 
6572 
6525 
6469 
6504 
6558 
6590 
6478 
6487 
6532 
6532 
6485 
6555 
6589 
6585 
6549 
6551 
6583 
6589 
6528 
6539 
6577 
6602 
6617 
6618 
6625 
6639 
6597 
6540 
6593 
6653 
6609 
6584 
6574 
6628 
6661 
6573 
6568 
6594 
6584 
6556 
6574 
6610 
6610 
6582 
6563 
6623 
6680 
6630 
6655 
6815 
6975 
7182 
7341 
7305 
7152 
6958 
6650 
6513 
6523 
6486 
6515 
6611 
6722 
6731 
6658 
6641 
6701 
6752 
6721 
6666 
6732 
6757 
6711 
6732 
6756 
6732 
6728 
6717 
6784 
6813 
6814 
6763 
6779 
6819 
6816 
6779 
6826 
6888 
6879 
6835 
6835 
6892 
6935 
6878 
6883 
6977 
6944 
6908 
6994 
7028 
7007 
7008 
6991 
7039 
7052 
6996 
6969 
7017 
7047 
7022 
6966 
6933 
6926 
6927 
6853 
6827 
6861 
6837 
6794 
6761 
6775 
6804 
6772 
6747 
6747 
6793 
6787 
6794 
6791 
6810 
6796 
6706 
6750 
6834 
6804 
6775 
6766 
6832 
6856 
6812 
6792 
6809 
6814 
6817 
6818 
6868 
6800 
6788 
6771 
6814 
6840 
6811 
6808 
6792 
6855 
6863 
6798 
6810 
6838 
6894 
6825 
6820 
6842 
6827 
6790 
6804 
6856 
6870 
6799 
6822 
6870 
6911 
6824 
6829 
6897 
6923 
6911 
6875 
6896 
6913 
6856 
6785 
6788 
6854 
6905 
6844 
6830 
6869 
6855 
6823 
6835 
6846 
6887 
6862 
6848 
6888 
6859 
6815 
6784 
6800 
6825 
6873 
7027 
7168 
7468 
7687 
7651 
7479 
7362 
7071 
6752 
6697 
6742 
6797 
6843 
6820 
6876 
6915 
6891 
6879 
6922 
6949 
6936 
6937 
6919 
6951 
6930 
6918 
6941 
6982 
6938 
6927 
6940 
6964 
6981 
6969 
7014 
6992 
6948 
6977 
7042 
7003 
7005 
7017 
7054 
7051 
7033 
7081 
7091 
7135 
7118 
7113 
7138 
7198 
7240 
7175 
7143 
7192 
7203 
7124 
7123 
7168 
7192 
7059 
6985 
7004 
7028 
6981 
6958 
6946 
6939 
6900 
6892 
6893 
6926 
6927 
6806 
6829 
6877 
6858 
6822 
6847 
6915 
6896 
6844 
6851 
6935 
6971 
6872 
6791 
6816 
6862 
6872 
6860 
6880 
6869 
6857 
6823 
6836 
6865 
6879 
6875 
6894 
6891 
6854 
6813 
6817 
6829 
6866 
6847 
6834 
6878 
6869 
6821 
6815 
6869 
6916 
6853 
6838 
6892 
6868 
6862 
6864 
6893 
6927 
6892 
6854 
6874 
6906 
6904 
6880 
6892 
6941 
6922 
6856 
6873 
6874 
6861 
6848 
6825 
6870 
6861 
6839 
6838 
6883 
6899 
6819 
6787 
6849 
6868 
6810 
6791 
6845 
6878 
6846 
6804 
6805 
6892 
7020 
7163 
7403 
7634 
7652 
7466 
7295 
7016 
6727 
6640 
6650 
6744 
6827 
6807 
6803 
6882 
6918 
6872 
6847 
6886 
6852 
6867 
6862 
6843 
6908 
6928 
6879 
6893 
6928 
6938 
6928 
6879 
6930 
6964 
6950 
6937 
6980 
7017 
6961 
6938 
6943 
6990 
7024 
6998 
7014 
7013 
7022 
6989 
7055 
7111 
7126 
7095 
7058 
7103 
7178 
7157 
7132 
7183 
7160 
7074 
7037 
7060 
7089 
7068 
6940 
6910 
6959 
6972 
6898 
6855 
6880 
6891 
6839 
6814 
6838 
6832 
6806 
6821 
6871 
6898 
6791 
6775 
6806 
6828 
6819 
6790 
6827 
6856 
6830 
6808 
6806 
6823 
6866 
6811 
6820 
6795 
6746 
6705 
6722 
6769 
6780 
6747 
6704 
6767 
6741 
6699 
6702 
6768 
6780 
6720 
6716 
6763 
6795 
6771 
6746 
6810 
6802 
6797 
6734 
6758 
6793 
6753 
6744 
6752 
6790 
6768 
6750 
6750 
6813 
6808 
6823 
6794 
6842 
6855 
6831 
6850 
6895 
6871 
6835 
6810 
6807 
6800 
6810 
6798 
6797 
6818 
6824 
6822 
6815 
6813 
6796 
6749 
6791 
6824 
6803 
6785 
6746 
6745 
6808 
6769 
6741 
6968 
7208 
7427 
7598 
7601 
7434 
7252 
6868 
6590 
6605 
6627 
6623 
6702 
6762 
6815 
6789 
6785 
6829 
6816 
6805 
6765 
6810 
6859 
6817 
6789 
6830 
6866 
6844 
6777 
6805 
6828 
6801 
6768 
6808 
6859 
6864 
6825 
6847 
6942 
6908 
6837 
6862 
6905 
6913 
6903 
6901 
6931 
7024 
6991 
6935 
7000 
7060 
7039 
7007 
7063 
7067 
7036 
6995 
6998 
7043 
7031 
6922 
6933 
6932 
6927 
6829 
6744 
6775 
6809 
6768 
6742 
6794 
6802 
6694 
6622 
6701 
6755 
6735 
6693 
6746 
6733 
6719 
6668 
6679 
6735 
6742 
6683 
6666 
6709 
6693 
6668 
6673 
6715 
6689 
6688 
6676 
6729 
6764 
6727 
6662 
6641 
6704 
6700 
6711 
6720 
6707 
6714 
6650 
6626 
6695 
6732 
6732 
6705 
6742 
6744 
6723 
6678 
6704 
6703 
6683 
6653 
6658 
6721 
6731 
6720 
6687 
6719 
6718 
6675 
6696 
6760 
6738 
6696 
6706 
6750 
6751 
6687 
6726 
6733 
6698 
6681 
6662 
6638 
6675 
6687 
6666 
6653 
6673 
6630 
6635 
6679 
6705 
6625 
6597 
6635 
6639 
6620 
6594 
6706 
6916 
7078 
7286 
7432 
7338 
7213 
6997 
6648 
6496 
6479 
6475 
6491 
6582 
6656 
6695 
6702 
6698 
6693 
6713 
6638 
6682 
6745 
6737 
6682 
6709 
6729 
6733 
6680 
6714 
6750 
6785 
6758 
6694 
6749 
6795 
6774 
6794 
6785 
6799 
6815 
6755 
6784 
6849 
6862 
6830 
6860 
6860 
6860 
6861 
6913 
6972 
7005 
6920 
6949 
6995 
7005 
6970 
6907 
6908 
6961 
6901 
6863 
6857 
6882 
6765 
6747 
6737 
6720 
6720 
6698 
6622 
6660 
6695 
6680 
6631 
6675 
6709 
6686 
6629 
6655 
6675 
6633 
6621 
6663 
6679 
6693 
6661 
6645 
6640 
6657 
6617 
6625 
6698 
6680 
6626 
6644 
6660 
6650 
6604 
6643 
6671 
6672 
6625 
6625 
6636 
6639 
6646 
6621 
6611 
6654 
6602 
6599 
6666 
6643 
6634 
6624 
6636 
6704 
6687 
6627 
6650 
6706 
6717 
6696 
6669 
6687 
6735 
6700 
6690 
6639 
6695 
6690 
6617 
6668 
6669 
6633 
6536 
6555 
6623 
6558 
6539 
6625 
6631 
6602 
6584 
6592 
6628 
6618 
6598 
6617 
6621 
6703 
6804 
6905 
7219 
7410 
7266 
7111 
6938 
6635 
6452 
6399 
6445 
6487 
6495 
6506 
6570 
6622 
6626 
6579 
6636 
6684 
6667 
6596 
6619 
6670 
6706 
6660 
6627 
6637 
6662 
6639 
6660 
6703 
6743 
6715 
6688 
6759 
6822 
6737 
6742 
6735 
6759 
6791 
6784 
6816 
6851 
6798 
6804 
6851 
6882 
6931 
6941 
6888 
6918 
6944 
6906 
6915 
6961 
6960 
6935 
6921 
6907 
6904 
6862 
6810 
6801 
6803 
6788 
6717 
6688 
6710 
6726 
6677 
6647 
6693 
6697 
6664 
6633 
6673 
6725 
6708 
6624 
6630 
6716 
6701 
6654 
6670 
6658 
6637 
6634 
6696 
6692 
6691 
6661 
6642 
6697 
6714 
6668 
6652 
6688 
6663 
6663 
6684 
6706 
6718 
6697 
6683 
6706 
6710 
6710 
6698 
6695 
6735 
6725 
6702 
6721 
6725 
6709 
6703 
6725 
6738 
6740 
6684 
6697 
6766 
6766 
6716 
6732 
6702 
6715 
6705 
6670 
6705 
6749 
6703 
6632 
6675 
6752 
6742 
6697 
6665 
6678 
6677 
6663 
6673 
6694 
6738 
6697 
6699 
6854 
6984 
7163 
7366 
7418 
7320 
7162 
6851 
6613 
6606 
6567 
6530 
6633 
6734 
6731 
6745 
6701 
6726 
6767 
6727 
6704 
6775 
6809 
6765 
6740 
6763 
6794 
6786 
6752 
6772 
6824 
6816 
6763 
6789 
6794 
6794 
6794 
6845 
6887 
6861 
6844 
6881 
6905 
6905 
6858 
6823 
6903 
6950 
6930 
6922 
6978 
6993 
6984 
6979 
7034 
7043 
7044 
7031 
6989 
6995 
7000 
6944 
6911 
6958 
6937 
6848 
6829 
6874 
6868 
6762 
6718 
6792 
6815 
6775 
6751 
6725 
6758 
6764 
6783 
6747 
6782 
6778 
6720 
6795 
6803 
6702 
6715 
6757 
6805 
6823 
6734 
6728 
6795 
6822 
6758 
6777 
6835 
6840 
6774 
6737 
6815 
6811 
6786 
6774 
6834 
6836 
6778 
6757 
6765 
6803 
6813 
6799 
6838 
6830 
6770 
6807 
6794 
6799 
6848 
6818 
6804 
6816 
6810 
6816 
6863 
6902 
6890 
6836 
6832 
6876 
6857 
6844 
6830 
6864 
6851 
6844 
6857 
6859 
6834 
6815 
6833 
6879 
6907 
6892 
6819 
6811 
6835 
6860 
6807 
6836 
6987 
7123 
7225 
7398 
7577 
7491 
7352 
7149 
6884 
6763 
6771 
6718 
6740 
6873 
6926 
6913 
6942 
6924 
6909 
6893 
6890 
6960 
6982 
6943 
6928 
6952 
6951 
6958 
6943 
6946 
6975 
6983 
6967 
6959 
7021 
7058 
7012 
6995 
7030 
7007 
7021 
7033 
7062 
7055 
7040 
7090 
7132 
7167 
7146 
7142 
7184 
7237 
7239 
7147 
7150 
7187 
7197 
7151 
7176 
7231 
7183 
7102 
7123 
7152 
7102 
7025 
7066 
7066 
7036 
7023 
6992 
6985 
6973 
6946 
6950 
6987 
6998 
6982 
6963 
6980 
7022 
7017 
6986 
7012 
7015 
7028 
6988 
6978 
6983 
7001 
6982 
6976 
7020 
7032 
6980 
6970 
7015 
7083 
7009 
6955 
6992 
7026 
7008 
7016 
7043 
7101 
7065 
6996 
6969 
7030 
7074 
7062 
7068 
7066 
7076 
7067 
7050 
7031 
7081 
7056 
7020 
7057 
7120 
7075 
7029 
7068 
7080 
7109 
7101 
7101 
7118 
7128 
7072 
7127 
7147 
7120 
7118 
7100 
7139 
7125 
7061 
7103 
7181 
7146 
7094 
7100 
7084 
7108 
7093 
7073 
7097 
7146 
7114 
7056 
7067 
7097 
7105 
7187 
7343 
7573 
7802 
7871 
7748 
7662 
7436 
7116 
7003 
6976 
7004 
7025 
7082 
7166 
7199 
7136 
7125 
7147 
7176 
7184 
7179 
7211 
7200 
7217 
7184 
7179 
7188 
7184 
7182 
7215 
7250 
7247 
7211 
7221 
7327 
7235 
7179 
7219 
7275 
7308 
7301 
7258 
7338 
7363 
7336 
7298 
7369 
7431 
7448 
7433 
7409 
7419 
7453 
7445 
7484 
7483 
7471 
7434 
7445 
7483 
7508 
7352 
7313 
7347 
7377 
7338 
7311 
7267 
7280 
7247 
7233 
7268 
7283 
7250 
7206 
7239 
7258 
7256 
7229 
7269 
7248 
7258 
7273 
7217 
7277 
7278 
7245 
7249 
7265 
7235 
7236 
7253 
7261 
7248 
7201 
7222 
7303 
7304 
7290 
7248 
7272 
7327 
7312 
7245 
7254 
7285 
7294 
7270 
7291 
7318 
7316 
7264 
7250 
7319 
7321 
7283 
7270 
7303 
7334 
7300 
7298 
7268 
7279 
7282 
7269 
7305 
7348 
7335 
7270 
7301 
7334 
7343 
7301 
7308 
7360 
7346 
7331 
7348 
7354 
7346 
7343 
7286 
7277 
7326 
7315 
7264 
7289 
7332 
7331 
7305 
7277 
7294 
7295 
7297 
7283 
7333 
7322 
7275 
7279 
7282 
7317 
7382 
7548 
7764 
8020 
8045 
7862 
7762 
7588 
7294 
7138 
7117 
7145 
7235 
7293 
7364 
7388 
7368 
7307 
7298 
7337 
7359 
7374 
7363 
7395 
7394 
7377 
7374 
7360 
7398 
7402 
7385 
7415 
7461 
7421 
7392 
7447 
7490 
7415 
7401 
7450 
7511 
7454 
7431 
7454 
7502 
7553 
7537 
7566 
7576 
7586 
7626 
7586 
7606 
7642 
7645 
7621 
7647 
7724 
7672 
7586 
7611 
7586 
7552 
7520 
7537 
7528 
7501 
7477 
7459 
7470 
7444 
7352 
7344 
7390 
7423 
7392 
7347 
7389 
7422 
7329 
7305 
7347 
7397 
7399 
7369 
7353 
7408 
7411 
7355 
7365 
7396 
7392 
7362 
7360 
7413 
7438 
7385 
7362 
7399 
7420 
7387 
7387 
7420 
7387 
7372 
7362 
7406 
7425 
7392 
7342 
7380 
7446 
7410 
7362 
7397 
7414 
7441 
7437 
7405 
7396 
7416 
7386 
7402 
7446 
7454 
7390 
7412 
7402 
7432 
7444 
7404 
7404 
7465 
7448 
7407 
7449 
7444 
7434 
7405 
7454 
7508 
7517 
7499 
7506 
7508 
7493 
7440 
7415 
7384 
7420 
7408 
7395 
7409 
7446 
7420 
7383 
7414 
7472 
7413 
7350 
7381 
7444 
7408 
7364 
7365 
7427 
7454 
7539 
7681 
7883 
8129 
8145 
7991 
7885 
7631 
7338 
7259 
7243 
7316 
7396 
7412 
7400 
7429 
7457 
7404 
7449 
7456 
7491 
7453 
7456 
7490 
7511 
7478 
7483 
7468 
7489 
7489 
7492 
7561 
7538 
7494 
7507 
7567 
7593 
7561 
7552 
7519 
7559 
7591 
7545 
7562 
7605 
7642 
7612 
7580 
7654 
7675 
7671 
7657 
7724 
7780 
7729 
7707 
7768 
7803 
7768 
7731 
7726 
7666 
7644 
7609 
7563 
7589 
7574 
7506 
7483 
7491 
7497 
7478 
7458 
7498 
7531 
7493 
7433 
7492 
7480 
7472 
7477 
7489 
7497 
7469 
7443 
7471 
7510 
7429 
7463 
7505 
7445 
7453 
7440 
7436 
7495 
7463 
7466 
7486 
7513 
7510 
7473 
7479 
7546 
7493 
7434 
7437 
7484 
7496 
7505 
7455 
7448 
7507 
7488 
7493 
7532 
7556 
7549 
7499 
7508 
7515 
7491 
7472 
7516 
7522 
7520 
7520 
7490 
7495 
7513 
7523 
7482 
7541 
7544 
7497 
7462 
7530 
7529 
7519 
7472 
7483 
7526 
7528 
7522 
7537 
7559 
7576 
7602 
7590 
7588 
7566 
7557 
7529 
7540 
7541 
7471 
7463 
7532 
7570 
7524 
7515 
7513 
7554 
7518 
7489 
7536 
7566 
7558 
7563 
7488 
7467 
7520 
7644 
7787 
7961 
8200 
8244 
8109 
8026 
7841 
7497 
7357 
7330 
7396 
7470 
7483 
7557 
7603 
7579 
7526 
7519 
7561 
7565 
7521 
7557 
7617 
7621 
7589 
7610 
7610 
7611 
7582 
7576 
7644 
7669 
7644 
7663 
7618 
7646 
7647 
7618 
7628 
7689 
7700 
7651 
7659 
7728 
7765 
7743 
7758 
7816 
7809 
7767 
7798 
7844 
7852 
7822 
7835 
7902 
7924 
7886 
7843 
7830 
7865 
7858 
7781 
7695 
7702 
7691 
7623 
7593 
7628 
7633 
7596 
7619 
7646 
7635 
7598 
7594 
7635 
7645 
7615 
7634 
7610 
7636 
7584 
7539 
7585 
7613 
7599 
7585 
7613 
7684 
7628 
7572 
7565 
7619 
7619 
7566 
7600 
7661 
7642 
7581 
7592 
7629 
7627 
7593 
7566 
7633 
7628 
7597 
7592 
7603 
7617 
7608 
7624 
7659 
7624 
7601 
7603 
7610 
7637 
7647 
7588 
7606 
7624 
7630 
7594 
7540 
7619 
7668 
7600 
7606 
7641 
7699 
7670 
7573 
7589 
7630 
7645 
7613 
7661 
7685 
7651 
7610 
7626 
7655 
7656 
7650 
7636 
7650 
7673 
7679 
7616 
7580 
7631 
7610 
7620 
7658 
7668 
7627 
7615 
7638 
7664 
7629 
7605 
7633 
7656 
7642 
7622 
7594 
7629 
7665 
7593 
7670 
7791 
7910 
8089 
8255 
8315 
8178 
8022 
7738 
7535 
7466 
7466 
7469 
7563 
7648 
7610 
7617 
7635 
7662 
7682 
7631 
7659 
7759 
7751 
7671 
7679 
7710 
7707 
7672 
7678 
7753 
7763 
7683 
7672 
7709 
7787 
7773 
7748 
7769 
7773 
7778 
7781 
7788 
7806 
7826 
7777 
7812 
7910 
7894 
7860 
7900 
7943 
7938 
7903 
7886 
7927 
7953 
7923 
7973 
7959 
7996 
7932 
7876 
7877 
7862 
7845 
7780 
7772 
7810 
7794 
7666 
7661 
7713 
7724 
7664 
7676 
7720 
7720 
7684 
7646 
7680 
7719 
7692 
7699 
7716 
7709 
7683 
7650 
7667 
7685 
7683 
7664 
7696 
7700 
7724 
7670 
7685 
7713 
7722 
7727 
7693 
7728 
7763 
7713 
7699 
7724 
7721 
7738 
7690 
7681 
7745 
7749 
7714 
7743 
7730 
7729 
7718 
7722 
7764 
7728 
7706 
7717 
7767 
7755 
7709 
7767 
7755 
7749 
7718 
7710 
7782 
7773 
7739 
7745 
7757 
7785 
7789 
7716 
7733 
7779 
7764 
7761 
7779 
7846 
7763 
7766 
7797 
7814 
7828 
7785 
7731 
7772 
7804 
7752 
7728 
7786 
7765 
7778 
7736 
7779 
7812 
7811 
7759 
7792 
7750 
7762 
7728 
7718 
7760 
7872 
7998 
8100 
8304 
8402 
8283 
8159 
8059 
7784 
7621 
7586 
7623 
7736 
7718 
7714 
7774 
7834 
7803 
7809 
7845 
7868 
7839 
7814 
7854 
7877 
7825 
7845 
7839 
7856 
7882 
7878 
7877 
7908 
7913 
7909 
7870 
7894 
7939 
7909 
7904 
7961 
7996 
7926 
7888 
7964 
8012 
8035 
8005 
8019 
8082 
8102 
8091 
8092 
8108 
8118 
8110 
8098 
8125 
8129 
8109 
8089 
8107 
8114 
8043 
7978 
7995 
7984 
7973 
7931 
7926 
7886 
7891 
7875 
7862 
7890 
7879 
7859 
7859 
7880 
7869 
7890 
7892 
7875 
7849 
7844 
7865 
7891 
7881 
7881 
7860 
7863 
7872 
7860 
7846 
7870 
7926 
7898 
7828 
7846 
7893 
7888 
7854 
7854 
7891 
7946 
7923 
7845 
7869 
7997 
7934 
7881 
7904 
7937 
7891 
7842 
7918 
7947 
7906 
7898 
7913 
7940 
7920 
7897 
7873 
7895 
7930 
7931 
7905 
7956 
7957 
7888 
7907 
7961 
7956 
7964 
7933 
7934 
7917 
7880 
7932 
7988 
8004 
7962 
7893 
7922 
7972 
7973 
7959 
7988 
8050 
8026 
7958 
7959 
8023 
8011 
7970 
7944 
7983 
8026 
7985 
7928 
7951 
8009 
7977 
7943 
7969 
8001 
7992 
7971 
7946 
7950 
7983 
7949 
7986 
8145 
8265 
8410 
8562 
8608 
8512 
8376 
8084 
7874 
7840 
7781 
7814 
7951 
8028 
8011 
7966 
7972 
8003 
7990 
7962 
8009 
8027 
8002 
7979 
8013 
8046 
8075 
8037 
8042 
8032 
8041 
8043 
8055 
8083 
8091 
8099 
8120 
8073 
8184 
8153 
8050 
8113 
8155 
8145 
8147 
8163 
8224 
8242 
8231 
8215 
8261 
8279 
8240 
8197 
8214 
8232 
8241 
8270 
8305 
8272 
8223 
8202 
8249 
8244 
8174 
8144 
8117 
8184 
8145 
8101 
8066 
8029 
8056 
8005 
8056 
8107 
8090 
8062 
7967 
8027 
8090 
8036 
8022 
8089 
8111 
8036 
8020 
8069 
8088 
8060 
8035 
8072 
8090 
8060 
8034 
8056 
8098 
8133 
8081 
8065 
8115 
8088 
8036 
8036 
8101 
8084 
8047 
8054 
8089 
8143 
8100 
8093 
8068 
8086 
8085 
8078 
8084 
8091 
8105 
8061 
8115 
8138 
8107 
8111 
8102 
8185 
8186 
8083 
8065 
8099 
8128 
8114 
8116 
8114 
8135 
8106 
8085 
8073 
8169 
8096 
8046 
8133 
8150 
8112 
8072 
8102 
8281 
8297 
8147 
8206 
8267 
8078 
7934 
7994 
8109 
8093 
8131 
8134 
8137 
8148 
8146 
8114 
8093 
8131 
8100 
8111 
8131 
8122 
8123 
8084 
8118 
8196 
8323 
8390 
8625 
8928 
8871 
8679 
8557 
8294 
8101 
7973 
7936 
8045 
8147 
8107 
8272 
8219 
8264 
8289 
8233 
8206 
8254 
8286 
8239 
8209 
8254 
8326 
8372 
8356 
8375 
8378 
8385 
8384 
8391 
8432 
8448 
8437 
8464 
8500 
8545 
8514 
8460 
8498 
8522 
8467 
8431 
8455 
8421 
8376 
8351 
8343 
8342 
8323 
8285 
8269 
8302 
8272 
8228 
8242 
8253 
8270 
8249 
8246 
8257 
8251 
8224 
8231 
8244 
8250 
8218 
8207 
8244 
8203 
8218 
8223 
8236 
8248 
8260 
8217 
8235 
8273 
8254 
8252 
8217 
8280 
8274 
8251 
8246 
8252 
8267 
8246 
8226 
8199 
8214 
8235 
8226 
8256 
8267 
8245 
8214 
8268 
8286 
8252 
8255 
8272 
8256 
8243 
8207 
8205 
8225 
8231 
8228 
8220 
8260 
8235 
8214 
8216 
8239 
8213 
8208 
8181 
8217 
8247 
8237 
8220 
8236 
8286 
8274 
8207 
8195 
8247 
8257 
8205 
8254 
8231 
8249 
8198 
8194 
8232 
8251 
8223 
8170 
8168 
8256 
8208 
8140 
8172 
8175 
8139 
8108 
8155 
8296 
8433 
8581 
8845 
8953 
8800 
8623 
8416 
8146 
8056 
8006 
7980 
8097 
8181 
8121 
8140 
8143 
8167 
8167 
8162 
8138 
8212 
8252 
8134 
8129 
8175 
8195 
8120 
8172 
8226 
8223 
8186 
8173 
8216 
8181 
8158 
8124 
8185 
8217 
8244 
8237 
8251 
8263 
8210 
8172 
8239 
8234 
8272 
8290 
8319 
8324 
8321 
8315 
8315 
8349 
8398 
8360 
8354 
8349 
8364 
8305 
8309 
8284 
8252 
8219 
8143 
8168 
8157 
8095 
8091 
8089 
8074 
8057 
8027 
8010 
8060 
8031 
7996 
8056 
8040 
8005 
7997 
7988 
8011 
8020 
7992 
7965 
7962 
7968 
7978 
7966 
8015 
7967 
7931 
7917 
7936 
7970 
8002 
7909 
7924 
7937 
7897 
7839 
7883 
7907 
7910 
7859 
7838 
7875 
7828 
7847 
7834 
7856 
7870 
7831 
7844 
7873 
7910 
7823 
7760 
7780 
7835 
7846 
7844 
7801 
7825 
7840 
7787 
7828 
7823 
7763 
7772 
7788 
7751 
7688 
7650 
7690 
7703 
7716 
7691 
7645 
7630 
7723 
7674 
7609 
7669 
7644 
7618 
7574 
7571 
7597 
7554 
7486 
7636 
7808 
7865 
8008 
8174 
8156 
8059 
7803 
7441 
7386 
7389 
7398 
7368 
7383 
7477 
7487 
7472 
7507 
7536 
7524 
7457 
7484 
7522 
7504 
7473 
7487 
7497 
7497 
7425 
7430 
7450 
7471 
7435 
7412 
7402 
7395 
7399 
7399 
7390 
7431 
7427 
7401 
7454 
7471 
7494 
7405 
7412 
7455 
7461 
7428 
7457 
7566 
7527 
7471 
7504 
7531 
7546 
7531 
7519 
7546 
7497 
7417 
7407 
7420 
7422 
7365 
7283 
7046 
7030 
7072 
7114 
7047 
7025 
7010 
7021 
7050 
7037 
7024 
7023 
7009 
6989 
6962 
6975 
7011 
6985 
6983 
7019 
7032 
6980 
6927 
6924 
7019 
6960 
6895 
6930 
6936 
6937 
6917 
6930 
6981 
6928 
6869 
6864 
6919 
6936 
6908 
6893 
6880 
6867 
6878 
6858 
6891 
6896 
6888 
6863 
6850 
6881 
6882 
6898 
6915 
6912 
6843 
6818 
6803 
6831 
6836 
6788 
6780 
6824 
6824 
6769 
6757 
6770 
6779 
6756 
6740 
6753 
6781 
6744 
6680 
6752 
6737 
6688 
6750 
6899 
7068 
7276 
7410 
7306 
7196 
6983 
6637 
6506 
6526 
6512 
6480 
6536 
6612 
6639 
6635 
6624 
6622 
6663 
6644 
6651 
6630 
6633 
6617 
6595 
6633 
6626 
6653 
6626 
6612 
6672 
6626 
6605 
6621 
6692 
6689 
6635 
6638 
6663 
6680 
6636 
6635 
6674 
6716 
6719 
6699 
6755 
6760 
6695 
6725 
6782 
6780 
6791 
6736 
6766 
6809 
6817 
6797 
6785 
6786 
6769 
6735 
6690 
6682 
6628 
6566 
6541 
6558 
6578 
6563 
6453 
6485 
6534 
6472 
6434 
6437 
6435 
6451 
6431 
6424 
6442 
6389 
6345 
6355 
6438 
6464 
6416 
6300 
6338 
6369 
6352 
6379 
6370 
6378 
6332 
6306 
6339 
6339 
6330 
6290 
6356 
6442 
6352 
6250 
6278 
6319 
6315 
6295 
6351 
6352 
6382 
6305 
6294 
6317 
6319 
6281 
6260 
6267 
6319 
6316 
6291 
6312 
6329 
6251 
6270 
6290 
6329 
6323 
6318 
6279 
6306 
6322 
6307 
6327 
6287 
6287 
6291 
6316 
6250 
6325 
6344 
6328 
6359 
6375 
6317 
6280 
6249 
6284 
6260 
6253 
6290 
6280 
6289 
6275 
6288 
6311 
6274 
6235 
6239 
6272 
6272 
6211 
6206 
6203 
6225 
6204 
6332 
6478 
6687 
6865 
6851 
6736 
6650 
6382 
6087 
6031 
6056 
6061 
6082 
6119 
6167 
6192 
6235 
6219 
6179 
6199 
6207 
6182 
6193 
6179 
6177 
6193 
6198 
6200 
6177 
6144 
6134 
6185 
6185 
6105 
6140 
6191 
6184 
6136 
6189 
6184 
6182 
6168 
6149 
6191 
6257 
6173 
6146 
6219 
6257 
6233 
6234 
6260 
6307 
6311 
6252 
6252 
6309 
6336 
6267 
6251 
6298 
6259 
6191 
6146 
6153 
6146 
6095 
6034 
6012 
6083 
6033 
6035 
6041 
6001 
5925 
5917 
5951 
5979 
5942 
5980 
5953 
5899 
5899 
5907 
5922 
5948 
5947 
5931 
5966 
5958 
5895 
5871 
5879 
5914 
5944 
5907 
5927 
5935 
5861 
5829 
5870 
5893 
5923 
5898 
5808 
5864 
5912 
5867 
5841 
5863 
5865 
5834 
5831 
5822 
5833 
5843 
5802 
5778 
5823 
5844 
5788 
5770 
5800 
5822 
5761 
5707 
5741 
5760 
5732 
5712 
5736 
5724 
5709 
5691 
5728 
5695 
5689 
5672 
5679 
5691 
5672 
5626 
5633 
5645 
5665 
5647 
5632 
5621 
5653 
5619 
5569 
5580 
5641 
5646 
5570 
5573 
5608 
5549 
5543 
5531 
5545 
5511 
5480 
5566 
5731 
5879 
6106 
6274 
6149 
6028 
5833 
5480 
5344 
5362 
5325 
5369 
5453 
5513 
5512 
5495 
5479 
5472 
5497 
5525 
5490 
5508 
5539 
5452 
5449 
5471 
5485 
5478 
5513 
5494 
5495 
5432 
5414 
5458 
5537 
5521 
5493 
5482 
5525 
5509 
5457 
5503 
5549 
5553 
5534 
5553 
5579 
5569 
5559 
5598 
5633 
5649 
5564 
5551 
5562 
5584 
5620 
5606 
5636 
5643 
5584 
5489 
5453 
5523 
5486 
5390 
5404 
5410 
5359 
5286 
5290 
5321 
5320 
5239 
5261 
5327 
5315 
5260 
5251 
5244 
5246 
5230 
5227 
5244 
5291 
5248 
5152 
5181 
5260 
5237 
5156 
5233 
5262 
5252 
5233 
5219 
5262 
5248 
5213 
5237 
5252 
5234 
5243 
5178 
5223 
5289 
5227 
5228 
5209 
5227 
5225 
5222 
5213 
5265 
5228 
5185 
5190 
5217 
5214 
5185 
5208 
5195 
5223 
5192 
5157 
5212 
5227 
5218 
5225 
5205 
5176 
5171 
5191 
5227 
5251 
5234 
5197 
5186 
5259 
5270 
5259 
5269 
5278 
5300 
5299 
5249 
5248 
5233 
5207 
5241 
5243 
5268 
5210 
5172 
5233 
5270 
5238 
5193 
5238 
5259 
5254 
5223 
5217 
5247 
5269 
5269 
5281 
5406 
5563 
5697 
5929 
5981 
5816 
5651 
5375 
5152 
5115 
5087 
5097 
5217 
5302 
5297 
5240 
5299 
5339 
5319 
5292 
5323 
5361 
5346 
5290 
5339 
5430 
5341 
5329 
5342 
5375 
5401 
5342 
5341 
5432 
5450 
5433 
5443 
5442 
5434 
5432 
5433 
5492 
5506 
5495 
5482 
5489 
5535 
5554 
5544 
5569 
5633 
5631 
5637 
5680 
5633 
5642 
5646 
5635 
5615 
5647 
5608 
5572 
5583 
5642 
5589 
5483 
5476 
5497 
5482 
5469 
5474 
5484 
5459 
5342 
5403 
5448 
5424 
5375 
5419 
5464 
5466 
5411 
5407 
5426 
5414 
5402 
5416 
5452 
5505 
5457 
5431 
5429 
5468 
5462 
5419 
5478 
5478 
5452 
5450 
5445 
5454 
5460 
5420 
5420 
5439 
5445 
5426 
5447 
5457 
5458 
5454 
5466 
5493 
5485 
5503 
5457 
5475 
5497 
5490 
5453 
5502 
5533 
5548 
5526 
5476 
5490 
5495 
5471 
5533 
5540 
5585 
5519 
5514 
5548 
5572 
5542 
5529 
5555 
5587 
5545 
5564 
5581 
5629 
5589 
5545 
5547 
5583 
5565 
5514 
5561 
5612 
5616 
5552 
5548 
5547 
5592 
5597 
5594 
5607 
5597 
5534 
5546 
5559 
5576 
5536 
5575 
5746 
5879 
6015 
6219 
6307 
6203 
6070 
5779 
5507 
5464 
5445 
5430 
5515 
5584 
5639 
5627 
5631 
5679 
5726 
5682 
5625 
5633 
5672 
5686 
5666 
5661 
5724 
5744 
5688 
5700 
5705 
5708 
5693 
5693 
5739 
5755 
5748 
5761 
5784 
5800 
5820 
5808 
5777 
5807 
5797 
5792 
5806 
5855 
5905 
5901 
5886 
5917 
5937 
5901 
5928 
6009 
6016 
5975 
5985 
5998 
5983 
5902 
5861 
5889 
5909 
5842 
5785 
5814 
5833 
5783 
5751 
5763 
5763 
5714 
5710 
5729 
5756 
5729 
5675 
5718 
5794 
5745 
5699 
5703 
5721 
5730 
5699 
5723 
5764 
5732 
5701 
5715 
5781 
5748 
5753 
5676 
5692 
5740 
5702 
5718 
5774 
5807 
5759 
5693 
5694 
5764 
5770 
5759 
5748 
5748 
5753 
5711 
5688 
5750 
5796 
5792 
5722 
5775 
5812 
5753 
5740 
5785 
5787 
5764 
5767 
5778 
5800 
5808 
5755 
5733 
5800 
5813 
5785 
5763 
5809 
5837 
5787 
5826 
5852 
5842 
5842 
5826 
5830 
5841 
5844 
5799 
5813 
5825 
5833 
5804 
5798 
5803 
5819 
5816 
5816 
5843 
5847 
5793 
5770 
5830 
5868 
5822 
5805 
5868 
5956 
6110 
6324 
6534 
6493 
6323 
6174 
5924 
5716 
5605 
5606 
5672 
5787 
5830 
5811 
5812 
5843 
5881 
5821 
5867 
5919 
5893 
5856 
5881 
5878 
5904 
5894 
5868 
5902 
5939 
5892 
5876 
5928 
5914 
5914 
5920 
5934 
5956 
5961 
5955 
5971 
5999 
5997 
6010 
6019 
6014 
6069 
6070 
6056 
6079 
6096 
6052 
6069 
6132 
6165 
6152 
6103 
6084 
6140 
6102 
6072 
6090 
6084 
6068 
5974 
5943 
5940 
5946 
5925 
5901 
5909 
5943 
5899 
5895 
5888 
5885 
5852 
5829 
5867 
5870 
5844 
5843 
5862 
5891 
5911 
5826 
5858 
5895 
5889 
5848 
5840 
5856 
5863 
5815 
5845 
5883 
5894 
5872 
5849 
5869 
5932 
5879 
5822 
5870 
5923 
5904 
5856 
5900 
5893 
5877 
5842 
5877 
5875 
5874 
5839 
5843 
5880 
5914 
5849 
5832 
5889 
5879 
5872 
5847 
5882 
5923 
5846 
5865 
5902 
5927 
5875 
5816 
5875 
5920 
5936 
5911 
5923 
5960 
5931 
5873 
5882 
5903 
5909 
5881 
5849 
5839 
5878 
5898 
5847 
5870 
5901 
5898 
5825 
5871 
5899 
5869 
5852 
5887 
5875 
5833 
5806 
5883 
6014 
6099 
6216 
6451 
6593 
6470 
6376 
6092 
5794 
5732 
5742 
5735 
5783 
5872 
5866 
5854 
5877 
5901 
5892 
5843 
5916 
5975 
5941 
5906 
5958 
5990 
5959 
5922 
5944 
6000 
6002 
5979 
5951 
5956 
5997 
6006 
5973 
5990 
6018 
6019 
5947 
5954 
6020 
6044 
6062 
6046 
6076 
6093 
6094 
6100 
6136 
6165 
6185 
6169 
6180 
6183 
6148 
6140 
6172 
6212 
6206 
6140 
6090 
6092 
6072 
6052 
6010 
6045 
5997 
5953 
5995 
5974 
5957 
5931 
5928 
5958 
5987 
5958 
5930 
5950 
5981 
5977 
5907 
5977 
5933 
5942 
5975 
5973 
5984 
5934 
5902 
5940 
5976 
5994 
5872 
5891 
5968 
5983 
5952 
5971 
5969 
5971 
5963 
5977 
5988 
6013 
5979 
5944 
5981 
6025 
5976 
5933 
5930 
5978 
5970 
5940 
6022 
6011 
5973 
6027 
5977 
6001 
6031 
5968 
5988 
6044 
6015 
5942 
5954 
6004 
6033 
6027 
6016 
6055 
6094 
6082 
6049 
6059 
6051 
6022 
5999 
6024 
6005 
5977 
6013 
6030 
6021 
6022 
6016 
6035 
6022 
5998 
5978 
5977 
6012 
6042 
6033 
6018 
6031 
6098 
6215 
6234 
6469 
6658 
6703 
6499 
6375 
6107 
5909 
5843 
5876 
5916 
5943 
5981 
6004 
6074 
6046 
6008 
6012 
6044 
6067 
6049 
6042 
6055 
6071 
6050 
6029 
6083 
6110 
6112 
6059 
6073 
6128 
6129 
6106 
6098 
6110 
6192 
6121 
6111 
6124 
6186 
6185 
6164 
6207 
6235 
6217 
6230 
6262 
6299 
6292 
6288 
6341 
6401 
6381 
6320 
6355 
6393 
6386 
6361 
6338 
6348 
6298 
6228 
6212 
6223 
6233 
6198 
6150 
6211 
6199 
6138 
6139 
6205 
6197 
6110 
6124 
6211 
6200 
6166 
6142 
6138 
6159 
6148 
6143 
6135 
6177 
6179 
6136 
6124 
6165 
6185 
6129 
6144 
6181 
6258 
6193 
6142 
6190 
6217 
6204 
6158 
6187 
6225 
6206 
6168 
6204 
6207 
6229 
6215 
6186 
6200 
6209 
6176 
6193 
6224 
6239 
6237 
6224 
6247 
6289 
6198 
6193 
6255 
6268 
6251 
6241 
6247 
6314 
6275 
6244 
6288 
6303 
6287 
6308 
6276 
6295 
6351 
6283 
6281 
6277 
6249 
6239 
6243 
6272 
6310 
6286 
6263 
6266 
6278 
6289 
6243 
6279 
6297 
6272 
6252 
6254 
6281 
6299 
6262 
6331 
6533 
6708 
6843 
6913 
6816 
6732 
6513 
6231 
6153 
6123 
6119 
6189 
6234 
6284 
6284 
6279 
6312 
6312 
6327 
6331 
6358 
6347 
6332 
6287 
6318 
6367 
6394 
6358 
6323 
6379 
6409 
6344 
6355 
6382 
6427 
6427 
6390 
6408 
6462 
6443 
6438 
6467 
6487 
6500 
6452 
6485 
6517 
6552 
6499 
6505 
6547 
6635 
6583 
6549 
6616 
6667 
6627 
6597 
6598 
6611 
6577 
6520 
6515 
6527 
6501 
6458 
6438 
6445 
6403 
6361 
6364 
6384 
6429 
6417 
6399 
6344 
6359 
6313 
6341 
6392 
6370 
6356 
6365 
6327 
6366 
6343 
6339 
6386 
6432 
6440 
6340 
6354 
6417 
6397 
6350 
6394 
6353 
6351 
6332 
6371 
6405 
6390 
6387 
6372 
6404 
6429 
6377 
6340 
6372 
6418 
6403 
6341 
6389 
6416 
6373 
6332 
6391 
6461 
6427 
6353 
6393 
6409 
6408 
6404 
6400 
6360 
6358 
6345 
6337 
6366 
6405 
6399 
6382 
6418 
6439 
6463 
6446 
6455 
6465 
6451 
6406 
6425 
6451 
6465 
6438 
6388 
6418 
6403 
6383 
6375 
6432 
6427 
6405 
6405 
6452 
6447 
6420 
6403 
6404 
6507 
6625 
6739 
6990 
7230 
7216 
6974 
6786 
6520 
6340 
6267 
6234 
6331 
6409 
6434 
6439 
6451 
6474 
6480 
6496 
6541 
6518 
6447 
6464 
6524 
6534 
6508 
6502 
6520 
6556 
6562 
6505 
6543 
6547 
6547 
6534 
6544 
6595 
6610 
6588 
6569 
6610 
6647 
6618 
6632 
6670 
6690 
6667 
6657 
6702 
6748 
6767 
6754 
6736 
6838 
6819 
6750 
6760 
6801 
6868 
6755 
6750 
6749 
6752 
6661 
6626 
6663 
6644 
6586 
6520 
6545 
6587 
6567 
6508 
6507 
6548 
6598 
6534 
6496 
6525 
6540 
6512 
6505 
6525 
6524 
6493 
6505 
6516 
6515 
6495 
6475 
6500 
6528 
6533 
6498 
6551 
6528 
6485 
6494 
6545 
6575 
6541 
6502 
6550 
6576 
6572 
6518 
6506 
6519 
6548 
6543 
6547 
6553 
6580 
6535 
6483 
6547 
6548 
6540 
6537 
6567 
6589 
6619 
6541 
6528 
6583 
6570 
6569 
6556 
6581 
6609 
6585 
6586 
6600 
6608 
6568 
6553 
6578 
6597 
6578 
6547 
6542 
6551 
6553 
6549 
6548 
6597 
6581 
6550 
6563 
6573 
6589 
6548 
6529 
6549 
6550 
6609 
6734 
6894 
7141 
7297 
7229 
7101 
6933 
6594 
6385 
6367 
6403 
6428 
6492 
6576 
6576 
6582 
6575 
6578 
6608 
6626 
6569 
6564 
6623 
6622 
6589 
6579 
6635 
6690 
6639 
6627 
6651 
6616 
6639 
6648 
6677 
6721 
6663 
6650 
6646 
6688 
6673 
6684 
6716 
6740 
6730 
6730 
6783 
6813 
6830 
6802 
6798 
6839 
6877 
6884 
6872 
6891 
6882 
6864 
6815 
6838 
6857 
6780 
6737 
6743 
6761 
6721 
6635 
6651 
6658 
6627 
6597 
6637 
6619 
6617 
6615 
6589 
6637 
6635 
6596 
6584 
6590 
6607 
6594 
6565 
6572 
6625 
6633 
6602 
6607 
6607 
6634 
6579 
6611 
6620 
6566 
6547 
6557 
6592 
6615 
6593 
6602 
6618 
6617 
6603 
6597 
6634 
6608 
6602 
6592 
6634 
6648 
6633 
6605 
6612 
6624 
6637 
6633 
6636 
6674 
6640 
6604 
6605 
6627 
6673 
6649 
6639 
6657 
6675 
6662 
6640 
6686 
6740 
6638 
6600 
6609 
6651 
6626 
6595 
6648 
6666 
6667 
6640 
6625 
6637 
6636 
6588 
6611 
6668 
6667 
6611 
6596 
6645 
6641 
6738 
6876 
7084 
7320 
7376 
7213 
7110 
6863 
6578 
6459 
6481 
6512 
6502 
6529 
6641 
6683 
6676 
6639 
6702 
6738 
6710 
6683 
6656 
6665 
6701 
6701 
6689 
6728 
6724 
6755 
6723 
6723 
6744 
6726 
6734 
6761 
6745 
6783 
6731 
6732 
6794 
6836 
6787 
6802 
6830 
6852 
6856 
6842 
6895 
6932 
6903 
6914 
6959 
6961 
6957 
6947 
6989 
6997 
6956 
6921 
6931 
6890 
6901 
6825 
6809 
6838 
6800 
6739 
6689 
6702 
6755 
6731 
6703 
6693 
6706 
6672 
6665 
6635 
6644 
6663 
6657 
6686 
6732 
6652 
6615 
6648 
6660 
6662 
6641 
6682 
6678 
6686 
6683 
6663 
6703 
6691 
6680 
6654 
6658 
6684 
6649 
6660 
6695 
6723 
6675 
6662 
6679 
6716 
6730 
6666 
6667 
6696 
6699 
6685 
6699 
6752 
6752 
6720 
6648 
6703 
6736 
6723 
6678 
6729 
6764 
6740 
6702 
6722 
6743 
6744 
6713 
6704 
6733 
6698 
6646 
6677 
6736 
6732 
6710 
6698 
6731 
6736 
6683 
6684 
6695 
6694 
6699 
6666 
6695 
6726 
6691 
6702 
6808 
6986 
7103 
7271 
7394 
7302 
7183 
6901 
6606 
6565 
6544 
6526 
6559 
6670 
6740 
6755 
6688 
6697 
6785 
6746 
6700 
6717 
6728 
6762 
6758 
6780 
6797 
6799 
6795 
6786 
6812 
6799 
6771 
6769 
6827 
6870 
6831 
6836 
6845 
6849 
6842 
6818 
6854 
6919 
6940 
6896 
6946 
6960 
6970 
6975 
7019 
7081 
7052 
6995 
7007 
7027 
7064 
7071 
7044 
7019 
7005 
6967 
6966 
6959 
6968 
6896 
6851 
6852 
6852 
6817 
6811 
6831 
6803 
6793 
6756 
6786 
6813 
6816 
6777 
6796 
6826 
6782 
6786 
6779 
6813 
6858 
6748 
6755 
6792 
6804 
6814 
6793 
6850 
6813 
6787 
6757 
6794 
6789 
6798 
6800 
6807 
6848 
6851 
6779 
6786 
6817 
6842 
6813 
6797 
6833 
6830 
6827 
6815 
6838 
6843 
6793 
6780 
6832 
6888 
6858 
6818 
6844 
6829 
6794 
6774 
6809 
6854 
6848 
6836 
6878 
6925 
6880 
6836 
6836 
6850 
6870 
6838 
6794 
6805 
6834 
6854 
6836 
6829 
6866 
6831 
6792 
6837 
6844 
6814 
6751 
6788 
6830 
6831 
6813 
6805 
6947 
7107 
7185 
7389 
7595 
7477 
7319 
7115 
6796 
6699 
6661 
6645 
6717 
6758 
6841 
6868 
6850 
6882 
6866 
6871 
6856 
6881 
6906 
6868 
6879 
6898 
6913 
6923 
6896 
6868 
6893 
6925 
6903 
6913 
6938 
6909 
6903 
6929 
6996 
6958 
6912 
6935 
6965 
6974 
6997 
7037 
7045 
7053 
7036 
7071 
7139 
7142 
7116 
7099 
7120 
7163 
7170 
7157 
7159 
7158 
7079 
7043 
7029 
7067 
7042 
7018 
7027 
7010 
6958 
6886 
6915 
6912 
6929 
6880 
6891 
6952 
6918 
6885 
6870 
6884 
6919 
6895 
6857 
6897 
6962 
6965 
6898 
6884 
6942 
6883 
6862 
6903 
6908 
6913 
6945 
6884 
6905 
6929 
6872 
6930 
6909 
6899 
6902 
6906 
6920 
6924 
6891 
6894 
6944 
6962 
6948 
6919 
6911 
6949 
6945 
6906 
6954 
6931 
6976 
6963 
6952 
6938 
6955 
6955 
6989 
6958 
6922 
6909 
6921 
6983 
6973 
6970 
6990 
7019 
7084 
7027 
6967 
6978 
7003 
6972 
6982 
6976 
6971 
6965 
6942 
6918 
6962 
6980 
6935 
6952 
6960 
6980 
6986 
6988 
6954 
6942 
6928 
6900 
7024 
7216 
7373 
7564 
7718 
7684 
7535 
7307 
6971 
6863 
6845 
6804 
6865 
6989 
7011 
6964 
6990 
7019 
7053 
7050 
7027 
7016 
7046 
7058 
7020 
7047 
7074 
7073 
7001 
7017 
7061 
7073 
7061 
7097 
7110 
7159 
7115 
7104 
7121 
7138 
7126 
7136 
7178 
7198 
7195 
7177 
7240 
7279 
7280 
7285 
7274 
7292 
7301 
7314 
7333 
7346 
7357 
7341 
7334 
7393 
7345 
7314 
7298 
7266 
7275 
7229 
7176 
7172 
7170 
7135 
7131 
7162 
7172 
7127 
7101 
7120 
7138 
7128 
7092 
7100 
7178 
7159 
7120 
7146 
7127 
7141 
7125 
7108 
7165 
7197 
7163 
7152 
7180 
7166 
7167 
7183 
7170 
7203 
7170 
7140 
7198 
7210 
7217 
7182 
7186 
7204 
7239 
7251 
7202 
7220 
7229 
7200 
7213 
7270 
7276 
7264 
7231 
7234 
7255 
7256 
7259 
7258 
7300 
7283 
7241 
7221 
7258 
7279 
7288 
7326 
7331 
7315 
7283 
7319 
7343 
7312 
7318 
7344 
7387 
7397 
7343 
7325 
7400 
7403 
7329 
7296 
7306 
7331 
7335 
7327 
7321 
7352 
7336 
7331 
7342 
7346 
7359 
7344 
7313 
7339 
7358 
7391 
7522 
7739 
7905 
8067 
8124 
7991 
7858 
7596 
7310 
7256 
7297 
7305 
7305 
7374 
7439 
7444 
7450 
7465 
7492 
7500 
7483 
7474 
7534 
7545 
7517 
7502 
7525 
7562 
7603 
7583 
7590 
7595 
7592 
7602 
7623 
7683 
7630 
7607 
7628 
7642 
7702 
7678 
7691 
7734 
7753 
7741 
7768 
7839 
7857 
7852 
7850 
7923 
7929 
7885 
7880 
7906 
7963 
7939 
7913 
7936 
7934 
7931 
7863 
7830 
7876 
7793 
7731 
7742 
7760 
7773 
7739 
7693 
7727 
7769 
7735 
7724 
7736 
7739 
7687 
7690 
7757 
7769 
7736 
7654 
7711 
7794 
7790 
7735 
7735 
7744 
7762 
7718 
7717 
7794 
7831 
7734 
7729 
7779 
7797 
7764 
7719 
7781 
7797 
7812 
7732 
7746 
7795 
7780 
7771 
7792 
7825 
7802 
7789 
7813 
7813 
7801 
7775 
7765 
7811 
7854 
7836 
7790 
7834 
7844 
7804 
7755 
7813 
7859 
7805 
7783 
7823 
7830 
7801 
7796 
7867 
7858 
7856 
7858 
7875 
7903 
7904 
7865 
7812 
7863 
7887 
7810 
7816 
7857 
7811 
7832 
7857 
7866 
7860 
7850 
7844 
7855 
7842 
7841 
7780 
7800 
7814 
7858 
7922 
8080 
8280 
8511 
8617 
8509 
8389 
8179 
7860 
7702 
7735 
7760 
7727 
7780 
7870 
7921 
7902 
7898 
7891 
7903 
7929 
7904 
7918 
7983 
7974 
7962 
7982 
7986 
7957 
7971 
7942 
7986 
8034 
8024 
7988 
7986 
8023 
8047 
8021 
8010 
8042 
8083 
8076 
8023 
8050 
8091 
8074 
8111 
8176 
8185 
8155 
8169 
8197 
8220 
8183 
8185 
8227 
8270 
8255 
8207 
8229 
8208 
8150 
8098 
8086 
8089 
8032 
7963 
7980 
8002 
8006 
7936 
7928 
7930 
7889 
7878 
7874 
7878 
7906 
7885 
7877 
7896 
7920 
7882 
7877 
7880 
7879 
7869 
7829 
7875 
7915 
7848 
7839 
7872 
7860 
7866 
7838 
7815 
7866 
7911 
7840 
7834 
7890 
7888 
7840 
7831 
7861 
7905 
7881 
7863 
7881 
7902 
7884 
7865 
7875 
7884 
7900 
7892 
7899 
7888 
7885 
7879 
7857 
7882 
7888 
7868 
7874 
7921 
7905 
7881 
7867 
7916 
7916 
7895 
7846 
7887 
7928 
7930 
7911 
7920 
7953 
7917 
7894 
7935 
7940 
7897 
7857 
7873 
7903 
7946 
7918 
7866 
7869 
7874 
7861 
7850 
7875 
7905 
7856 
7797 
7828 
7887 
7940 
8070 
8218 
8471 
8662 
8542 
8392 
8254 
7921 
7745 
7723 
7734 
7806 
7852 
7823 
7870 
7932 
7923 
7896 
7905 
7933 
7917 
7883 
7902 
7931 
7890 
7913 
7922 
7909 
7962 
7934 
7894 
7933 
7959 
7970 
7943 
7958 
7986 
7946 
7945 
7984 
8000 
8008 
8008 
8016 
8034 
8021 
8011 
8067 
8096 
8110 
8111 
8112 
8112 
8126 
8131 
8136 
8124 
8139 
8119 
8081 
8098 
8108 
8077 
7984 
7959 
7937 
7928 
7881 
7897 
7929 
7904 
7867 
7832 
7836 
7838 
7832 
7848 
7882 
7865 
7854 
7813 
7861 
7840 
7785 
7806 
7843 
7831 
7815 
7793 
7810 
7821 
7813 
7832 
7834 
7837 
7817 
7806 
7855 
7892 
7827 
7776 
7799 
7846 
7852 
7810 
7815 
7861 
7818 
7804 
7829 
7846 
7865 
7832 
7788 
7832 
7859 
7838 
7805 
7808 
7844 
7831 
7792 
7825 
7853 
7875 
7826 
7787 
7862 
7841 
7829 
7836 
7815 
7862 
7863 
7861 
7877 
7852 
7847 
7824 
7861 
7886 
7852 
7810 
7825 
7775 
7770 
7806 
7848 
7850 
7882 
7824 
7813 
7856 
7835 
7739 
7745 
7786 
7785 
7791 
7789 
7805 
7872 
7961 
8055 
8293 
8577 
8534 
8322 
8213 
7960 
7660 
7632 
7665 
7742 
7762 
7776 
7787 
7779 
7822 
7782 
7754 
7763 
7782 
7806 
7769 
7804 
7866 
7792 
7780 
7815 
7826 
7808 
7758 
7774 
7829 
7833 
7800 
7832 
7853 
7857 
7839 
7834 
7832 
7851 
7797 
7842 
7909 
7880 
7804 
7772 
7771 
7809 
7831 
7756 
7817 
7898 
7940 
7992 
7986 
7951 
7957 
7976 
7965 
7953 
7900 
7801 
7752 
7755 
7754 
7711 
7687 
7703 
7736 
7668 
7658 
7670 
7679 
7687 
7608 
7628 
7664 
7640 
7618 
7615 
7688 
7731 
7691 
7674 
7678 
7731 
7677 
7641 
7673 
7666 
7599 
7517 
7516 
7548 
7557 
7588 
7622 
7576 
7584 
7597 
7617 
7598 
7620 
7594 
7650 
7721 
7728 
7615 
7654 
7709 
7700 
7648 
7636 
7670 
7675 
7647 
7634 
7713 
7705 
7674 
7691 
7683 
7690 
7714 
7681 
7679 
7757 
7754 
7692 
7724 
7749 
7748 
7756 
7747 
7778 
7803 
7759 
7718 
7732 
7739 
7722 
7692 
7721 
7766 
7719 
7685 
7709 
7739 
7726 
7699 
7708 
7749 
7750 
7711 
7732 
7732 
7774 
7823 
7929 
8126 
8376 
8488 
8363 
8230 
8043 
7724 
7600 
7610 
7654 
7692 
7692 
7737 
7779 
7788 
7735 
7736 
7765 
7775 
7762 
7777 
7818 
7812 
7815 
7792 
7778 
7815 
7789 
7799 
7826 
7844 
7814 
7783 
7819 
7855 
7837 
7827 
7824 
7870 
7889 
7821 
7862 
7920 
7961 
7947 
7961 
7941 
7954 
7939 
7973 
8025 
8043 
8018 
7958 
8010 
8011 
7984 
8004 
8008 
8007 
7979 
7914 
7894 
7901 
7870 
7802 
7787 
7793 
7777 
7746 
7754 
7781 
7788 
7726 
7746 
7741 
7771 
7789 
7745 
7706 
7738 
7701 
7667 
7726 
7762 
7741 
7735 
7753 
7752 
7749 
7703 
7706 
7731 
7745 
7717 
7706 
7730 
7763 
7731 
7674 
7741 
7750 
7712 
7686 
7721 
7734 
7734 
7730 
7751 
7736 
7707 
7723 
7708 
7738 
7725 
7718 
7721 
7721 
7731 
7681 
7672 
7721 
7725 
7695 
7707 
7735 
7740 
7710 
7672 
7687 
7699 
7662 
7675 
7727 
7762 
7789 
7766 
7739 
7731 
7750 
7694 
7687 
7687 
7690 
7667 
7713 
7724 
7710 
7694 
7696 
7703 
7690 
7644 
7614 
7676 
7685 
7664 
7627 
7637 
7654 
7688 
7732 
7869 
8036 
8272 
8402 
8276 
8147 
7990 
7673 
7545 
7542 
7564 
7580 
7610 
7680 
7728 
7697 
7675 
7696 
7707 
7724 
7664 
7677 
7758 
7756 
7661 
7717 
7731 
7714 
7679 
7720 
7754 
7752 
7743 
7757 
7759 
7758 
7747 
7747 
7765 
7784 
7751 
7746 
7844 
7851 
7812 
7819 
7849 
7884 
7909 
7862 
7903 
7943 
7944 
7924 
7940 
7962 
7977 
7980 
7941 
7938 
7920 
7884 
7850 
7858 
7852 
7794 
7735 
7733 
7759 
7740 
7673 
7657 
7704 
7693 
7681 
7686 
7691 
7691 
7639 
7664 
7690 
7692 
7676 
7653 
7671 
7629 
7611 
7603 
7651 
7676 
7659 
7635 
7681 
7684 
7644 
7630 
7659 
7724 
7704 
7619 
7631 
7663 
7683 
7682 
7645 
7680 
7691 
7672 
7648 
7670 
7717 
7690 
7661 
7686 
7711 
7681 
7613 
7651 
7691 
7720 
7704 
7707 
7703 
7662 
7639 
7659 
7684 
7705 
7700 
7695 
7690 
7688 
7675 
7704 
7728 
7734 
7759 
7709 
7716 
7709 
7681 
7649 
7669 
7715 
7699 
7663 
7662 
7702 
7744 
7682 
7664 
7686 
7676 
7663 
7682 
7715 
7728 
7722 
7659 
7641 
7706 
7786 
7957 
8200 
8453 
8499 
8300 
8167 
7943 
7676 
7590 
7544 
7568 
7590 
7645 
7702 
7739 
7758 
7736 
7736 
7757 
7799 
7786 
7771 
7748 
7825 
7808 
7784 
7800 
7794 
7830 
7779 
7779 
7838 
7821 
7822 
7819 
7852 
7853 
7827 
7855 
7853 
7891 
7887 
7867 
7933 
7923 
7925 
7898 
7936 
7992 
8015 
7980 
8012 
8026 
8016 
8029 
7996 
8012 
8025 
7993 
7990 
8004 
8004 
7945 
7896 
7903 
7858 
7777 
7783 
7802 
7814 
7772 
7728 
7746 
7825 
7743 
7703 
7713 
7710 
7745 
7715 
7691 
7732 
7739 
7733 
7693 
7701 
7688 
7687 
7709 
7740 
7763 
7748 
7714 
7725 
7747 
7742 
7716 
7737 
7771 
7729 
7722 
7721 
7722 
7733 
7708 
7693 
7739 
7744 
7731 
7744 
7761 
7771 
7723 
7729 
7762 
7758 
7770 
7755 
7759 
7764 
7708 
7708 
7732 
7768 
7754 
7680 
7726 
7809 
7777 
7728 
7740 
7818 
7829 
7796 
7773 
7787 
7765 
7698 
7723 
7777 
7785 
7772 
7720 
7716 
7764 
7746 
7714 
7742 
7761 
7731 
7703 
7685 
7753 
7746 
7747 
7825 
8006 
8178 
8372 
8567 
8492 
8280 
8095 
7778 
7643 
7630 
7629 
7643 
7725 
7788 
7803 
7775 
7805 
7824 
7806 
7816 
7807 
7808 
7806 
7795 
7808 
7852 
7896 
7851 
7797 
7856 
7916 
7898 
7860 
7863 
7882 
7875 
7863 
7914 
7951 
7935 
7903 
7951 
7969 
7989 
7996 
7979 
8012 
8050 
8055 
8057 
8114 
8171 
8148 
8093 
8117 
8148 
8139 
8095 
8093 
8137 
8109 
7999 
7990 
8014 
7979 
7916 
7913 
7889 
7880 
7850 
7835 
7828 
7821 
7821 
7823 
7822 
7805 
7803 
7792 
7802 
7824 
7790 
7780 
7770 
7824 
7847 
7820 
7811 
7780 
7790 
7788 
7818 
7846 
7838 
7747 
7763 
7779 
7813 
7788 
7804 
7793 
7811 
7797 
7823 
7798 
7821 
7802 
7768 
7768 
7841 
7880 
7864 
7826 
7821 
7825 
7803 
7810 
7801 
7804 
7813 
7829 
7866 
7831 
7812 
7833 
7880 
7878 
7801 
7805 
7790 
7827 
7847 
7834 
7825 
7799 
7806 
7818 
7805 
7807 
7808 
7797 
7777 
7784 
7828 
7824 
7791 
7785 
7754 
7817 
7937 
8107 
8270 
8427 
8478 
8390 
8256 
7929 
7667 
7592 
7637 
7670 
7659 
7710 
7770 
7782 
7798 
7819 
7816 
7841 
7829 
7843 
7847 
7851 
7832 
7814 
7821 
7798 
7829 
7823 
7822 
7848 
7871 
7851 
7831 
7836 
7855 
7842 
7897 
7919 
7930 
7932 
7940 
7930 
7961 
7972 
7980 
8021 
7998 
8006 
8045 
8042 
8049 
8064 
8034 
8035 
8062 
8066 
8096 
8051 
7989 
7986 
7951 
7935 
7933 
7905 
7882 
7837 
7825 
7847 
7824 
7798 
7785 
7827 
7748 
7724 
7756 
7816 
7781 
7728 
7782 
7809 
7792 
7755 
7752 
7776 
7798 
7750 
7724 
7769 
7790 
7784 
7818 
7809 
7750 
7735 
7757 
7797 
7800 
7803 
7802 
7775 
7816 
7780 
7775 
7783 
7835 
7812 
7794 
7838 
7862 
7831 
7840 
7834 
7819 
7835 
7866 
7870 
7870 
7845 
7842 
7843 
7865 
7864 
7812 
7809 
7841 
7844 
7803 
7823 
7806 
7857 
7813 
7822 
7811 
7805 
7794 
7770 
7780 
7793 
7771 
7765 
7758 
7763 
7833 
7948 
8044 
8181 
8387 
8412 
8244 
8105 
7814 
7635 
7603 
7622 
7632 
7698 
7749 
7815 
7805 
7819 
7814 
7826 
7839 
7813 
7796 
7828 
7839 
7836 
7839 
7767 
7783 
7806 
7809 
7791 
7800 
7812 
7803 
7813 
7821 
7832 
7821 
7805 
7818 
7844 
7846 
7842 
7877 
7878 
7842 
7827 
7869 
7898 
7906 
7897 
7888 
7856 
7858 
7902 
7903 
7888 
7892 
7865 
7887 
7888 
7837 
7852 
7804 
7778 
7802 
7838 
7772 
7736 
7733 
7770 
7786 
7744 
7749 
7809 
7763 
7736 
7769 
7782 
7746 
7746 
7783 
7800 
7792 
7774 
7834 
7860 
7797 
7783 
7777 
7860 
7805 
7750 
7777 
7848 
7853 
7807 
7804 
7775 
7846 
7834 
7795 
7822 
7879 
7836 
7828 
7852 
7838 
7847 
7854 
7861 
7865 
7867 
7874 
7888 
7913 
7930 
7921 
7873 
7866 
7892 
7913 
7914 
7889 
7890 
7864 
7896 
7909 
7851 
7847 
7871 
7895 
7936 
7898 
7848 
7842 
7858 
7896 
7889 
7872 
7912 
7900 
7861 
7963 
8103 
8277 
8487 
8630 
8557 
8389 
8166 
7862 
7717 
7729 
7715 
7770 
7842 
7896 
7878 
7863 
7891 
7906 
7896 
7914 
7938 
7892 
7888 
7881 
7891 
7900 
7926 
7924 
7921 
7955 
7961 
7985 
7993 
7997 
7996 
7960 
7986 
8067 
7937 
7941 
7971 
7995 
8026 
8050 
8087 
8075 
8066 
8101 
8094 
8137 
8164 
8206 
8180 
8198 
8208 
8154 
8150 
8161 
8186 
8160 
8109 
8085 
8078 
8045 
8055 
8049 
8027 
7992 
7975 
7932 
7939 
7936 
7988 
7955 
7916 
7923 
7913 
7906 
7939 
7946 
7974 
7970 
7963 
7919 
7914 
7920 
7907 
7911 
7942 
7980 
7937 
7864 
7935 
7915 
7908 
7896 
7945 
7969 
7901 
7882 
7932 
7947 
7960 
7954 
7935 
7938 
7938 
7897 
7956 
7993 
7951 
7952 
7958 
7976 
7969 
7977 
7961 
8006 
8002 
7958 
7978 
7999 
7989 
7981 
7958 
7928 
7937 
7943 
7942 
7947 
7994 
7993 
7967 
7963 
7977 
7966 
7957 
7966 
8001 
7989 
7965 
7959 
7957 
7987 
8095 
8250 
8487 
8763 
8777 
8563 
8426 
8121 
7863 
7810 
7810 
7874 
7937 
7992 
8022 
8043 
8014 
7979 
8019 
8021 
8018 
8026 
8056 
8061 
8071 
8052 
8062 
8059 
8068 
8065 
8052 
8078 
8122 
8113 
8108 
8086 
8110 
8159 
8173 
8112 
8131 
8187 
8192 
8192 
8175 
8209 
8211 
8231 
8253 
8296 
8303 
8308 
8330 
8376 
8348 
8340 
8353 
8374 
8360 
8316 
8296 
8293 
8264 
8220 
8172 
8182 
8224 
8179 
8137 
8126 
8108 
8063 
8101 
8103 
8115 
8103 
8062 
8110 
8118 
8122 
8092 
8075 
8086 
8051 
8044 
8061 
8091 
8126 
8112 
8080 
8089 
8096 
8072 
8049 
8075 
8038 
8045 
8095 
8111 
8131 
8123 
8134 
8132 
8083 
8060 
8093 
8103 
8148 
8131 
8079 
8075 
8093 
8129 
8094 
8096 
8144 
8172 
8176 
8192 
8148 
8124 
8109 
8140 
8139 
8139 
8086 
8089 
8083 
8100 
8097 
8092 
8093 
8111 
8152 
8123 
8101 
8123 
8121 
8121 
8106 
8077 
8101 
8028 
8044 
8154 
8273 
8405 
8664 
8816 
8812 
8670 
8509 
8200 
7969 
7917 
7900 
7939 
8043 
8121 
8121 
8100 
8129 
8148 
8073 
8093 
8148 
8145 
8119 
8117 
8189 
8198 
8187 
8155 
8165 
8186 
8173 
8171 
8218 
8239 
8209 
8190 
8185 
8234 
8244 
8248 
8228 
8256 
8264 
8270 
8269 
8291 
8318 
8292 
8300 
8358 
8364 
8388 
8383 
8408 
8406 
8417 
8402 
8371 
8405 
8404 
8360 
8320 
8267 
8288 
8272 
8230 
8206 
8141 
8152 
8169 
8126 
8133 
8102 
8093 
8074 
8092 
8096 
8095 
8099 
8093 
8098 
8093 
8096 
8076 
8073 
8055 
8058 
8089 
8090 
8045 
8049 
8071 
8094 
8079 
8056 
8091 
8108 
8106 
8063 
8036 
8048 
8058 
8050 
8089 
8134 
8098 
8038 
8040 
8105 
8098 
8050 
8085 
8075 
8086 
8106 
8096 
8064 
8090 
8088 
8119 
8163 
8126 
8083 
8066 
8043 
8058 
8067 
8026 
8045 
8041 
8071 
8041 
8034 
8063 
8052 
8064 
8037 
8031 
8059 
8044 
7998 
8001 
8041 
8031 
8061 
8207 
8381 
8533 
8668 
8681 
8585 
8426 
8076 
7878 
7858 
7852 
7873 
7940 
7995 
8052 
8059 
8091 
8051 
8087 
8056 
8046 
8086 
8091 
8101 
8091 
8128 
8139 
8063 
8090 
8095 
8096 
8102 
8083 
8142 
8153 
8154 
8149 
8180 
8167 
8197 
8208 
8221 
8235 
8244 
8227 
8235 
8249 
8294 
8285 
8289 
8325 
8328 
8349 
8324 
8355 
8402 
8402 
8354 
8348 
8348 
8315 
8259 
8257 
8241 
8240 
8191 
8124 
8110 
8163 
8121 
8075 
8082 
8124 
8096 
8067 
8034 
8093 
8110 
8072 
8069 
8087 
8100 
8072 
8070 
8078 
8054 
8037 
8049 
8064 
8085 
8149 
8067 
8051 
8072 
8050 
8068 
8107 
8131 
8062 
8052 
8043 
8056 
8083 
8094 
8107 
8152 
8075 
8072 
8068 
8101 
8117 
8131 
8115 
8122 
8162 
8134 
8163 
8163 
8126 
8122 
8139 
8169 
8174 
8080 
8066 
8107 
8119 
8121 
8115 
8111 
8116 
8107 
8086 
8070 
8138 
8131 
8099 
8076 
8106 
8138 
8127 
8073 
8096 
8141 
8249 
8340 
8584 
8808 
8758 
8572 
8486 
8223 
8006 
7925 
7941 
7977 
8021 
8056 
8092 
8105 
8140 
8145 
8106 
8142 
8151 
8138 
8133 
8132 
8153 
8155 
8165 
8156 
8154 
8146 
8128 
8146 
8185 
8221 
8193 
8185 
8171 
8146 
8160 
8167 
8224 
8245 
8231 
8236 
8248 
8294 
8306 
8272 
8320 
8361 
8317 
8309 
8326 
8385 
8348 
8349 
8373 
8371 
8365 
8324 
8274 
8277 
8240 
8205 
8199 
8200 
8199 
8161 
8135 
8155 
8183 
8140 
8077 
8114 
8129 
8113 
8148 
8147 
8061 
8049 
8050 
8040 
8065 
8061 
8019 
8001 
7994 
8022 
8028 
8017 
8010 
8067 
8030 
8025 
8048 
8059 
8061 
8077 
8102 
8099 
8097 
8073 
8097 
8110 
8070 
8099 
8089 
8067 
8112 
8097 
8083 
8089 
8088 
8062 
8099 
8111 
8119 
8110 
8093 
8129 
8177 
8161 
8108 
8113 
8104 
8099 
8095 
8110 
8100 
8074 
8051 
8080 
8105 
8127 
8055 
8064 
8096 
8100 
8080 
8043 
8070 
8059 
8027 
8014 
8108 
8222 
8348 
8557 
8800 
8821 
8699 
8534 
8198 
7989 
7936 
7882 
7904 
8012 
8087 
8071 
8086 
8107 
8090 
8111 
8112 
8134 
8125 
8116 
8090 
8113 
8137 
8148 
8132 
8144 
8193 
8189 
8131 
8143 
8183 
8163 
8175 
8207 
8238 
8248 
8215 
8215 
8257 
8293 
8223 
8264 
8286 
8309 
8313 
8334 
8352 
8372 
8382 
8374 
8387 
8428 
8408 
8394 
8405 
8419 
8418 
8351 
8332 
8337 
8321 
8252 
8209 
8210 
8217 
8197 
8149 
8139 
8180 
8164 
8120 
8138 
8139 
8153 
8149 
8200 
8227 
8159 
8132 
8163 
8156 
8154 
8166 
8166 
8184 
8174 
8164 
8162 
8157 
8181 
8198 
8182 
8175 
8232 
8226 
8204 
8186 
8225 
8188 
8137 
8203 
8246 
8230 
8218 
8213 
8227 
8270 
8268 
8242 
8250 
8255 
8266 
8292 
8269 
8269 
8257 
8301 
8310 
8324 
8315 
8294 
8304 
8352 
8364 
8355 
8323 
8304 
8293 
8242 
8268 
8293 
8326 
8324 
8303 
8323 
8326 
8287 
8260 
8312 
8334 
8336 
8317 
8325 
8317 
8308 
8322 
8511 
8677 
8928 
9129 
9126 
8968 
8827 
8519 
8278 
8207 
8207 
8249 
8299 
8400 
8396 
8368 
8366 
8419 
8484 
8452 
8455 
8467 
8483 
8479 
8469 
8500 
8471 
8490 
8480 
8487 
8518 
8544 
8500 
8515 
8538 
8587 
8609 
8563 
8579 
8601 
8581 
8608 
8635 
8687 
8726 
8690 
8697 
8740 
8734 
8712 
8759 
8772 
8799 
8782 
8827 
8837 
8818 
8798 
8774 
8809 
8825 
8774 
8746 
8704 
8732 
8689 
8641 
8646 
8646 
8614 
8593 
8606 
8678 
8619 
8555 
8569 
8614 
8580 
8546 
8553 
8599 
8625 
8604 
8582 
8598 
8606 
8627 
8600 
8623 
8677 
8674 
8635 
8657 
8647 
8590 
8587 
8619 
8653 
8657 
8602 
8638 
8685 
8663 
8670 
8691 
8664 
8675 
8685 
8642 
8628 
8660 
8672 
8707 
8676 
8698 
8692 
8677 
8720 
8721 
8709 
8717 
8739 
8719 
8730 
8755 
8787 
8786 
8756 
8768 
8751 
8743 
8726 
8717 
8742 
8720 
8723 
8722 
8697 
8742 
8783 
8735 
8739 
8751 
8752 
8737 
8728 
8746 
8739 
8718 
8709 
8729 
8729 
8825 
8989 
9148 
9374 
9532 
9428 
9319 
9139 
8793 
8664 
8592 
8585 
8711 
8709 
8741 
8765 
8785 
8788 
8793 
8783 
8798 
8818 
8809 
8817 
8836 
8893 
8899 
8868 
8840 
8820 
8827 
8869 
8905 
8895 
8885 
8882 
8866 
8868 
8909 
8891 
8928 
8968 
8922 
8903 
8942 
8980 
9015 
9008 
9008 
9024 
9056 
9101 
9085 
9078 
9099 
9099 
9101 
9093 
9086 
9087 
9057 
9047 
9018 
9012 
8982 
8954 
8934 
8933 
8869 
8863 
8856 
8834 
8819 
8830 
8884 
8838 
8825 
8814 
8822 
8843 
8818 
8834 
8851 
8833 
8781 
8813 
8874 
8821 
8797 
8811 
8802 
8832 
8838 
8817 
8802 
8836 
8852 
8826 
8832 
8852 
8861 
8888 
8843 
8807 
8814 
8840 
8830 
8819 
8816 
8851 
8851 
8846 
8848 
8852 
8859 
8878 
8859 
8881 
8871 
8848 
8934 
8924 
8899 
8887 
8902 
8910 
8848 
8865 
8868 
8890 
8877 
8839 
8874 
8885 
8871 
8843 
8888 
8865 
8833 
8814 
8841 
8868 
8844 
8836 
8857 
8885 
8900 
8856 
8810 
8885 
9080 
9177 
9367 
9583 
9531 
9409 
9219 
8901 
8759 
8676 
8642 
8680 
8781 
8867 
8888 
8903 
8884 
8889 
8844 
8884 
8907 
8913 
8907 
8891 
8885 
8915 
8900 
8867 
8871 
8906 
8913 
8922 
8954 
8958 
8971 
8959 
8959 
8940 
8961 
8945 
8958 
9011 
9044 
8997 
8980 
9044 
9082 
9049 
9048 
9091 
9121 
9087 
9088 
9122 
9129 
9149 
9124 
9129 
9099 
9106 
9069 
9050 
9030 
9004 
8975 
8974 
8961 
8902 
8888 
8874 
8857 
8854 
8833 
8822 
8878 
8896 
8852 
8859 
8832 
8854 
8845 
8851 
8848 
8835 
8827 
8817 
8846 
8864 
8849 
8848 
8822 
8832 
8820 
8832 
8830 
8837 
8862 
8823 
8875 
8857 
8808 
8803 
8807 
8826 
8855 
8838 
8822 
8830 
8862 
8890 
8846 
8810 
8815 
8828 
8844 
8854 
8872 
8906 
8833 
8813 
8818 
8870 
8891 
8854 
8902 
8911 
8904 
8852 
8855 
8878 
8883 
8845 
8813 
8818 
8834 
8872 
8879 
8871 
8864 
8837 
8808 
8833 
8831 
8818 
8807 
8838 
8855 
8796 
8748 
8774 
8800 
8921 
9046 
9210 
9454 
9624 
9476 
9380 
9163 
8846 
8675 
8677 
8707 
8743 
8782 
8798 
8806 
8821 
8826 
8821 
8849 
8840 
8807 
8809 
8848 
8885 
8844 
8858 
8866 
8883 
8880 
8849 
8857 
8873 
8877 
8917 
8920 
8883 
8898 
8906 
8932 
8919 
8891 
8926 
8936 
8948 
8996 
8998 
8986 
9015 
9038 
9035 
9042 
9062 
9087 
9099 
9099 
9104 
9079 
9097 
9067 
9050 
9046 
8977 
8952 
8953 
8938 
8944 
8901 
8849 
8838 
8829 
8804 
8799 
8801 
8821 
8817 
8808 
8839 
8837 
8860 
8834 
8790 
8781 
8804 
8807 
8807 
8827 
8830 
8802 
8840 
8814 
8789 
8761 
8771 
8790 
8819 
8834 
8840 
8825 
8814 
8797 
8833 
8832 
8817 
8812 
8841 
8846 
8822 
8832 
8824 
8837 
8829 
8821 
8831 
8827 
8809 
8818 
8867 
8871 
8833 
8866 
8868 
8836 
8842 
8868 
8874 
8871 
8878 
8885 
8936 
8948 
8911 
8890 
8817 
8813 
8847 
8794 
8834 
8821 
8850 
8861 
8825 
8815 
8809 
8823 
8816 
8817 
8802 
8818 
8811 
8810 
8756 
8775 
8973 
9123 
9288 
9569 
9643 
9446 
9314 
9080 
8771 
8675 
8666 
8689 
8718 
8767 
8800 
8791 
8792 
8850 
8877 
8857 
8890 
8865 
8858 
8839 
8857 
8875 
8871 
8853 
8838 
8836 
8883 
8890 
8880 
8897 
8925 
8881 
8846 
8886 
8932 
8937 
8914 
8958 
8997 
9011 
8979 
9009 
9010 
8997 
9008 
9003 
9025 
9042 
9061 
9101 
9115 
9128 
9112 
9080 
9095 
9079 
9049 
9016 
8954 
8947 
8934 
8890 
8892 
8870 
8818 
8791 
8799 
8810 
8792 
8781 
8782 
8801 
8782 
8783 
8748 
8772 
8771 
8815 
8760 
8734 
8747 
8775 
8802 
8803 
8813 
8811 
8802 
8811 
8815 
8788 
8795 
8821 
8807 
8828 
8847 
8844 
8853 
8878 
8787 
8787 
8829 
8861 
8826 
8802 
8777 
8799 
8807 
8804 
8836 
8838 
8838 
8835 
8820 
8892 
8873 
8770 
8825 
8847 
8859 
8854 
8852 
8892 
8889 
8841 
8875 
8908 
8874 
8874 
8872 
8872 
8839 
8817 
8793 
8807 
8834 
8797 
8801 
8829 
8866 
8843 
8773 
8825 
8842 
8837 
8836 
8764 
8807 
8732 
8720 
8868 
9038 
9224 
9442 
9565 
9487 
9341 
9058 
8714 
8609 
8598 
8614 
8666 
8725 
8775 
8809 
8802 
8775 
8782 
8791 
8786 
8818 
8780 
8770 
8776 
8780 
8796 
8842 
8837 
8812 
8834 
8851 
8850 
8829 
8822 
8882 
8887 
8860 
8864 
8908 
8892 
8865 
8896 
8891 
8929 
8940 
8954 
8968 
8995 
8990 
9032 
9030 
9051 
9085 
9028 
9066 
9074 
9048 
8999 
9040 
9048 
9012 
8999 
8943 
8898 
8882 
8866 
8839 
8845 
8860 
8794 
8787 
8807 
8774 
8757 
8741 
8770 
8769 
8726 
8729 
8758 
8769 
8762 
8738 
8755 
8812 
8777 
8708 
8698 
8735 
8761 
8730 
8748 
8728 
8746 
8747 
8745 
8746 
8760 
8735 
8747 
8769 
8774 
8739 
8736 
8760 
8804 
8729 
8714 
8759 
8732 
8747 
8728 
8744 
8760 
8761 
8760 
8772 
8810 
8815 
8752 
8746 
8796 
8822 
8788 
8778 
8794 
8797 
8772 
8779 
8789 
8784 
8749 
8752 
8768 
8790 
8752 
8719 
8724 
8752 
8782 
8765 
8732 
8756 
8760 
8721 
8720 
8760 
8756 
8771 
8841 
8944 
9143 
9347 
9445 
9376 
9264 
9074 
8774 
8619 
8597 
8587 
8603 
8659 
8747 
8744 
8769 
8811 
8812 
8785 
8788 
8772 
8794 
8832 
8827 
8831 
8843 
8865 
8843 
8817 
8823 
8854 
8859 
8841 
8865 
8898 
8862 
8870 
8891 
8891 
8920 
8902 
8879 
8960 
8974 
8985 
8974 
9033 
9051 
9040 
9040 
9040 
9024 
9015 
9050 
9097 
9111 
9114 
9066 
9061 
9067 
9034 
8984 
8991 
8967 
8952 
8924 
8909 
8907 
8860 
8861 
8864 
8870 
8826 
8781 
8749 
8781 
8806 
8815 
8802 
8786 
8797 
8798 
8783 
8777 
8829 
8833 
8811 
8805 
8794 
8847 
8829 
8802 
8801 
8789 
8793 
8811 
8790 
8795 
8832 
8799 
8824 
8828 
8815 
8809 
8826 
8851 
8849 
8839 
8858 
8855 
8838 
8809 
8827 
8842 
8847 
8892 
8845 
8834 
8857 
8831 
8796 
8832 
8888 
8875 
8892 
8906 
8919 
8908 
8883 
8888 
8871 
8855 
8846 
8812 
8817 
8861 
8853 
8841 
8864 
8861 
8880 
8857 
8811 
8842 
8819 
8798 
8801 
8826 
8820 
8778 
8888 
9035 
9166 
9387 
9587 
9566 
9457 
9264 
8995 
8742 
8679 
8703 
8726 
8771 
8821 
8862 
8885 
8886 
8890 
8890 
8885 
8919 
8946 
8888 
8864 
8891 
8931 
9001 
8999 
8979 
9007 
9019 
9000 
8999 
8972 
8999 
9000 
9004 
9014 
9058 
9067 
9046 
9021 
9031 
9032 
9076 
9105 
9125 
9109 
9125 
9171 
9137 
9176 
9196 
9192 
9211 
9185 
9177 
9180 
9184 
9187 
9139 
9116 
9100 
9119 
9078 
8990 
8971 
8990 
8962 
8970 
8973 
8945 
8959 
8952 
8903 
8892 
8855 
8864 
8912 
8944 
8920 
8846 
8841 
8882 
8890 
8897 
8899 
8918 
8931 
8861 
8851 
8874 
8919 
8882 
8853 
8854 
8883 
8899 
8871 
8862 
8867 
8874 
8856 
8889 
8921 
8881 
8901 
8858 
8846 
8865 
8878 
8899 
8916 
8902 
8880 
8877 
8883 
8891 
8894 
8882 
8901 
8946 
8937 
8919 
8934 
8941 
8942 
8944 
8932 
8918 
8962 
8900 
8836 
8869 
8891 
8915 
8901 
8911 
8893 
8876 
8864 
8885 
8903 
8881 
8859 
8888 
8915 
8867 
8884 
8855 
8858 
8892 
9007 
9142 
9376 
9608 
9645 
9512 
9388 
9112 
8830 
8769 
8737 
8728 
8761 
8807 
8897 
8918 
8933 
8919 
8922 
8905 
8910 
8884 
8858 
8908 
8919 
8907 
8957 
8987 
8978 
8939 
8963 
8969 
8970 
8952 
8972 
9016 
9020 
8987 
8981 
9017 
9047 
9053 
9042 
9047 
9075 
9093 
9113 
9133 
9131 
9161 
9144 
9183 
9207 
9221 
9219 
9230 
9217 
9188 
9181 
9226 
9194 
9146 
9134 
9057 
9043 
9045 
8983 
8963 
8932 
8941 
8915 
8898 
8906 
8913 
8911 
8895 
8874 
8864 
8864 
8873 
8881 
8883 
8918 
8841 
8838 
8895 
8899 
8838 
8878 
8852 
8849 
8855 
8891 
8882 
8908 
8899 
8874 
8826 
8858 
8888 
8874 
8875 
8862 
8881 
8882 
8865 
8882 
8889 
8906 
8860 
8866 
8920 
8926 
8912 
8895 
8929 
8956 
8921 
8915 
8942 
8953 
8979 
8964 
8944 
8969 
8982 
9001 
9023 
8985 
8999 
8963 
8983 
8972 
8946 
8906 
8951 
9007 
8996 
8967 
8983 
8960 
8968 
8958 
8945 
8942 
8946 
8946 
8947 
8956 
8947 
8942 
9027 
9173 
9296 
9556 
9768 
9674 
9541 
9304 
8974 
8794 
8778 
8803 
8819 
8904 
8946 
8955 
8941 
8916 
8952 
8991 
8975 
8983 
8975 
8964 
8958 
8979 
8998 
9001 
8974 
8971 
8997 
8988 
9001 
9024 
9047 
9037 
9012 
9006 
9030 
9038 
9034 
9043 
9060 
9113 
9132 
9056 
9078 
9116 
9137 
9145 
9112 
9144 
9177 
9186 
9206 
9194 
9199 
9171 
9151 
9133 
9162 
9143 
9116 
9081 
9059 
9002 
8971 
8989 
8980 
8961 
8939 
8948 
8942 
8919 
8865 
8855 
8875 
8933 
8868 
8872 
8894 
8876 
8877 
8866 
8861 
8897 
8920 
8891 
8875 
8892 
8917 
8890 
8881 
8893 
8898 
8918 
8883 
8907 
8896 
8863 
8860 
8920 
8936 
8951 
8973 
8912 
8962 
8973 
8937 
8984 
9024 
8984 
8942 
8936 
8999 
9017 
9016 
8968 
8987 
8998 
9003 
8988 
9027 
9064 
9042 
9048 
9063 
9040 
9061 
9012 
9014 
9027 
8994 
8992 
8991 
9019 
9018 
9017 
8993 
8983 
9009 
8979 
8989 
8997 
9011 
9012 
9003 
8995 
8965 
8963 
8999 
9067 
9185 
9355 
9572 
9736 
9700 
9548 
9352 
9012 
8853 
8834 
8812 
8877 
8958 
9008 
8967 
8969 
9014 
9049 
9017 
8998 
9011 
9049 
9029 
9041 
9048 
9054 
9063 
9015 
9020 
9061 
9082 
9067 
9060 
9050 
9084 
9046 
9090 
9120 
9102 
9104 
9133 
9130 
9156 
9161 
9147 
9150 
9243 
9222 
9240 
9257 
9276 
9270 
9271 
9294 
9270 
9275 
9269 
9253 
9257 
9296 
9284 
9231 
9207 
9163 
9124 
9103 
9095 
9095 
9062 
9051 
9044 
9051 
9052 
9058 
9052 
9036 
9013 
9002 
8967 
9031 
9049 
8966 
8978 
9013 
8994 
8998 
9011 
9053 
9036 
9017 
9006 
9007 
9029 
9070 
9052 
9018 
9012 
9018 
8988 
9011 
9049 
9067 
9045 
9036 
9094 
9074 
9030 
9054 
9076 
9051 
9021 
9016 
9061 
9043 
9044 
9059 
9034 
9053 
9060 
9036 
9065 
9090 
9077 
9110 
9113 
9035 
9053 
9061 
9027 
9030 
9037 
9042 
9058 
9069 
9073 
9069 
9041 
9095 
9075 
9088 
9041 
9079 
9156 
9110 
9098 
9089 
9086 
9082 
9104 
9238 
9415 
9623 
9817 
9909 
9734 
9613 
9352 
9060 
9001 
8984 
9001 
9084 
9053 
9121 
9103 
9139 
9156 
9162 
9158 
9147 
9189 
9196 
9210 
9191 
9161 
9148 
9225 
9196 
9227 
9213 
9184 
9194 
9188 
9241 
9177 
9176 
9190 
9212 
9232 
9223 
9255 
9288 
9294 
9298 
9284 
9316 
9364 
9313 
9336 
9359 
9414 
9409 
9374 
9386 
9416 
9396 
9378 
9387 
9413 
9395 
9365 
9335 
9318 
9308 
9242 
9197 
9207 
9201 
9154 
9144 
9196 
9161 
9138 
9122 
9143 
9175 
9186 
9139 
9142 
9143 
9142 
9129 
9152 
9176 
9157 
9151 
9159 
9206 
9177 
9143 
9124 
9135 
9148 
9153 
9155 
9193 
9142 
9142 
9145 
9172 
9173 
9169 
9168 
9192 
9200 
9208 
9197 
9214 
9201 
9242 
9207 
9194 
9222 
9251 
9206 
9193 
9233 
9277 
9261 
9252 
9237 
9255 
9213 
9182 
9214 
9219 
9191 
9156 
9195 
9230 
9236 
9242 
9296 
9207 
9159 
9168 
9175 
9221 
9209 
9149 
9161 
9162 
9240 
9362 
9476 
9662 
9904 
9939 
9758 
9616 
9338 
9082 
9003 
9001 
9047 
9152 
9215 
9194 
9193 
9196 
9184 
9202 
9240 
9255 
9283 
9244 
9240 
9271 
9262 
9241 
9237 
9301 
9324 
9221 
9261 
9271 
9291 
9284 
9281 
9313 
9336 
9365 
9353 
9339 
9342 
9351 
9373 
9404 
9433 
9442 
9433 
9423 
9450 
9438 
9470 
9466 
9500 
9510 
9501 
9470 
9476 
9484 
9475 
9441 
9423 
9406 
9376 
9342 
9312 
9324 
9323 
9291 
9223 
9241 
9201 
9211 
9251 
9237 
9177 
9170 
9193 
9212 
9202 
9165 
9177 
9240 
9231 
9197 
9153 
9189 
9223 
9203 
9193 
9198 
9202 
9212 
9157 
9155 
9181 
9179 
9190 
9173 
9175 
9228 
9221 
9207 
9188 
9204 
9191 
9189 
9216 
9219 
9264 
9246 
9192 
9220 
9225 
9187 
9208 
9230 
9230 
9211 
9210 
9238 
9249 
9220 
9227 
9269 
9175 
9166 
9189 
9208 
9193 
9175 
9218 
9225 
9179 
9162 
9179 
9186 
9183 
9178 
9153 
9175 
9188 
9169 
9168 
9269 
9419 
9563 
9762 
9941 
9890 
9703 
9446 
9129 
8993 
8995 
8992 
9061 
9151 
9192 
9207 
9198 
9173 
9161 
9229 
9196 
9217 
9223 
9172 
9153 
9176 
9217 
9196 
9165 
9216 
9271 
9231 
9230 
9211 
9255 
9239 
9241 
9267 
9298 
9331 
9330 
9296 
9334 
9348 
9313 
9304 
9369 
9445 
9445 
9414 
9430 
9454 
9462 
9432 
9479 
9511 
9484 
9476 
9462 
9476 
9493 
9502 
9424 
9419 
9422 
9359 
9341 
9328 
9328 
9305 
9255 
9253 
9302 
9284 
9216 
9263 
9262 
9226 
9173 
9223 
9266 
9250 
9229 
9259 
9247 
9222 
9219 
9240 
9245 
9248 
9262 
9250 
9197 
9246 
9276 
9246 
9270 
9283 
9249 
9206 
9198 
9253 
9236 
9263 
9276 
9238 
9222 
9231 
9232 
9315 
9307 
9247 
9263 
9246 
9258 
9296 
9304 
9344 
9360 
9294 
9247 
9229 
9261 
9282 
9293 
9234 
9256 
9263 
9211 
9210 
9209 
9219 
9241 
9257 
9284 
9240 
9197 
9231 
9277 
9254 
9225 
9236 
9330 
9475 
9606 
9752 
9923 
9848 
9708 
9458 
9147 
9058 
9016 
9025 
9084 
9182 
9200 
9224 
9223 
9250 
9321 
9302 
9269 
9316 
9332 
9277 
9280 
9310 
9325 
9294 
9286 
9341 
9362 
9320 
9288 
9321 
9373 
9401 
9351 
9338 
9399 
9403 
9407 
9374 
9412 
9445 
9417 
9412 
9459 
9480 
9487 
9521 
9557 
9556 
9537 
9552 
9546 
9605 
9605 
9532 
9520 
9539 
9537 
9506 
9469 
9455 
9429 
9400 
9370 
9349 
9361 
9316 
9270 
9319 
9325 
9260 
9268 
9314 
9321 
9410 
9331 
9257 
9296 
9336 
9353 
9351 
9308 
9297 
9314 
9309 
9321 
9336 
9350 
9338 
9354 
9326 
9322 
9257 
9282 
9321 
9360 
9345 
9435 
9560 
9729 
9970 
9963 
9781 
9706 
9425 
9196 
9167 
9186 
9214 
9240 
9290 
9333 
9342 
9341 
9360 
9382 
9355 
9375 
9336 
9363 
9402 
9395 
9365 
9339 
9362 
9377 
9387 
9438 
9480 
9414 
9397 
9430 
9496 
9450 
9405 
9463 
9519 
9474 
9440 
9435 
9483 
9522 
9527 
9544 
9623 
9546 
9471 
9518 
9558 
9587 
9546 
9537 
9574 
9627 
9609 
9513 
9541 
9546 
9510 
9455 
9440 
9420 
9399 
9375 
9362 
9384 
9368 
9344 
9320 
9351 
9338 
9311 
9284 
9309 
9342 
9337 
9266 
9251 
9287 
9307 
9309 
9303 
9251 
9297 
9289 
9316 
9317 
9304 
9277 
9315 
9376 
9317 
9262 
9420 
9462 
9487 
9469 
9507 
9486 
9491 
9522 
9530 
9538 
9576 
9615 
9582 
9584 
9606 
9578 
9558 
9585 
9605 
9521 
9456 
9454 
9493 
9442 
9403 
9414 
9397 
9371 
9358 
9389 
9377 
9341 
9304 
9324 
9388 
9323 
9349 
9331 
9325 
9323 
9323 
9324 
9335 
9332 
9342 
9372 
9412 
9409 
9400 
9351 
9380 
9358 
9377 
9355 
9371 
9410 
9415 
9388 
9414 
9387 
9370 
9337 
9394 
9433 
9471 
9428 
9374 
9390 
9424 
9428 
9435 
9467 
9530 
9508 
9393 
9417 
9436 
9446 
9403 
9384 
9395 
9449 
9466 
9488 
9497 
9492 
9473 
9461 
9442 
9537 
9496 
9423 
9455 
9469 
9447 
9397 
9436 
9577 
9699 
9831 
10027 
10195 
10106 
9949 
9803 
9544 
9379 
9368 
9351 
9445 
9488 
9530 
9564 
9589 
9640 
9631 
9587 
9571 
9891 
9867 
9910 
9938 
9931 
9891 
9887 
9985 
9993 
9919 
9896 
9933 
9940 
9943 
9940 
9981 
10012 
9956 
9946 
10011 
10027 
10004 
10001 
10029 
10067 
10045 
10025 
10068 
10103 
10128 
10104 
10079 
10101 
10123 
10099 
10104 
10151 
10133 
10137 
10160 
10189 
10204 
10181 
10117 
10136 
10172 
10168 
10172 
10193 
10197 
10206 
10199 
10183 
10253 
10268 
10246 
10260 
10230 
10212 
10173 
10208 
10310 
10456 
10608 
10757 
10944 
10876 
10735 
10542 
10264 
10163 
10161 
10128 
10172 
10273 
10344 
10340 
10333 
10368 
10348 
10319 
10336 
10415 
10416 
10392 
10365 
10406 
10480 
10434 
10385 
10414 
10466 
10481 
10443 
10441 
10482 
10473 
10446 
10444 
10484 
10493 
10489 
10488 
10548 
10546 
10476 
10484 
10581 
10562 
10613 
10583 
10604 
10643 
10617 
10587 
10633 
10673 
10610 
10597 
10174 
10216 
10183 
10143 
10141 
10144 
10126 
10125 
10101 
10167 
10163 
10125 
10063 
10061 
10083 
10054 
10061 
10036 
10080 
10031 
9987 
10049 
10080 
10075 
10109 
10072 
10056 
10038 
9958 
9973 
9981 
9930 
9911 
9881 
9892 
9918 
9895 
9858 
9870 
9854 
9798 
9767 
9788 
9772 
9759 
9749 
9707 
9732 
9737 
9815 
9888 
10010 
10230 
10377 
10272 
10103 
9954 
9656 
9469 
9376 
9383 
9414 
9484 
9535 
9556 
9565 
9533 
9513 
9531 
9544 
9521 
9509 
9516 
9489 
9434 
9421 
9430 
9446 
9409 
9395 
9410 
9426 
9415 
9377 
9423 
9421 
9394 
9359 
9388 
9445 
9344 
9337 
9333 
9335 
9359 
9310 
9350 
9404 
9420 
9389 
9359 
9395 
9389 
9337 
9332 
9351 
9375 
9313 
9253 
9253 
9223 
9158 
9103 
9116 
9114 
9098 
8979 
8981 
8977 
8948 
8922 
8909 
8863 
8876 
8832 
8833 
8909 
8901 
8777 
8753 
8765 
8767 
8796 
8765 
8742 
8733 
8688 
8646 
8631 
8640 
8659 
8614 
8597 
8593 
8590 
8531 
8535 
8535 
8591 
8563 
8519 
8509 
8521 
8479 
8469 
8493 
8477 
8415 
8428 
8428 
8456 
8436 
8410 
8404 
8415 
8416 
8381 
8382 
8382 
8395 
8350 
8338 
8338 
8341 
8313 
8290 
8264 
8278 
8276 
8234 
8234 
8256 
8216 
8203 
8191 
8186 
8150 
8105 
8117 
8145 
8119 
8099 
8156 
8298 
8423 
8589 
8761 
8738 
8604 
8356 
8040 
7853 
7811 
7782 
7809 
7937 
7931 
7947 
7904 
7976 
7953 
7899 
7854 
7892 
7917 
7917 
7870 
7876 
7922 
7909 
7882 
7859 
7865 
7918 
7881 
7837 
7854 
7863 
7843 
7815 
7820 
7830 
7840 
7859 
7873 
7872 
7871 
7869 
7874 
7884 
7895 
7884 
7878 
7913 
7923 
7895 
7883 
7901 
7919 
7878 
7812 
7844 
7857 
7807 
7762 
7732 
7714 
7696 
7642 
7556 
7555 
7524 
7488 
7502 
7530 
7511 
7450 
7438 
7454 
7502 
7454 
7379 
7365 
7359 
7362 
7351 
7366 
7356 
7346 
7309 
7327 
7284 
7229 
7199 
7208 
7230 
7274 
7230 
7227 
7244 
7214 
7217 
7172 
7167 
7175 
7168 
7111 
7110 
7134 
7111 
7108 
7101 
7079 
7112 
7101 
7084 
7041 
7016 
7034 
7059 
7043 
7066 
7052 
7080 
7071 
7023 
6994 
6987 
6990 
6977 
6967 
6924 
6942 
6957 
6896 
6912 
6921 
6908 
6899 
6919 
6927 
6887 
6860 
6846 
6877 
6895 
6891 
6886 
7019 
7182 
7401 
7574 
7525 
7332 
7143 
6803 
6580 
6589 
6566 
6537 
6558 
6655 
6712 
6714 
6705 
6726 
6756 
6712 
6661 
6670 
6718 
6746 
6703 
6711 
6759 
6726 
6708 
6714 
6706 
6735 
6747 
6744 
6731 
6758 
6771 
6788 
6773 
6776 
6767 
6759 
6788 
6822 
6820 
6776 
6807 
6857 
6868 
6863 
6843 
6880 
6898 
6884 
6886 
6925 
6903 
6864 
6832 
6847 
6833 
6777 
6737 
6742 
6727 
6674 
6649 
6635 
6638 
6648 
6619 
6597 
6632 
6644 
6573 
6580 
6575 
6575 
6583 
6556 
6563 
6576 
6560 
6553 
6559 
6576 
6561 
6537 
6548 
6564 
6545 
6560 
6555 
6609 
6640 
6567 
6527 
6524 
6520 
6511 
6560 
6540 
6503 
6496 
6518 
6541 
6570 
6553 
6543 
6550 
6536 
6522 
6538 
6549 
6569 
6528 
6522 
6543 
6589 
6582 
6555 
6559 
6590 
6584 
6561 
6564 
6571 
6558 
6552 
6537 
6528 
6536 
6528 
6529 
6526 
6523 
6523 
6544 
6575 
6548 
6539 
6511 
6515 
6534 
6532 
6499 
6586 
6754 
6912 
7108 
7283 
7202 
7058 
6872 
6530 
6423 
6409 
6384 
6410 
6486 
6531 
6547 
6559 
6565 
6576 
6577 
6552 
6582 
6598 
6635 
6599 
6601 
6620 
6625 
6603 
6628 
6675 
6586 
6616 
6588 
6605 
6608 
6651 
6663 
6700 
6730 
6717 
6698 
6754 
6759 
6745 
6782 
6791 
6796 
6773 
6783 
6793 
6855 
6881 
6882 
6903 
6906 
6929 
6895 
6889 
6884 
6875 
6857 
6809 
6795 
6783 
6703 
6651 
6642 
6669 
6605 
6608 
6623 
6626 
6620 
6608 
6611 
6630 
6634 
6634 
6650 
6644 
6648 
6679 
6662 
6688 
6697 
6656 
6653 
6660 
6662 
6645 
6647 
6697 
6708 
6709 
6700 
6668 
6681 
6733 
6752 
6664 
6692 
6724 
6723 
6697 
6725 
6734 
6693 
6714 
6760 
6770 
6773 
6750 
6745 
6812 
6845 
6795 
6777 
6816 
6845 
6818 
6854 
6893 
6867 
6833 
6786 
6825 
6799 
6830 
6823 
6813 
6829 
6823 
6820 
6794 
6840 
6839 
6838 
6833 
6837 
6826 
6822 
6820 
6811 
6842 
6881 
6969 
7129 
7332 
7492 
7477 
7354 
7215 
6884 
6703 
6676 
6664 
6681 
6747 
6857 
6882 
6865 
6851 
6862 
6892 
6935 
6907 
6913 
6948 
6929 
6960 
6950 
6970 
7006 
6967 
6967 
6979 
7000 
7014 
6997 
7023 
7044 
7038 
7062 
7062 
7091 
7071 
7093 
7123 
7111 
7127 
7155 
7175 
7196 
7199 
7201 
7223 
7243 
7251 
7264 
7250 
7301 
7317 
7264 
7244 
7268 
7242 
7208 
7180 
7175 
7172 
7149 
7113 
7112 
7083 
7043 
7051 
7073 
7074 
7079 
7063 
7069 
7064 
7071 
7075 
7064 
7028 
7072 
7065 
7079 
7090 
7098 
7072 
7068 
7072 
7119 
7143 
7043 
7045 
7096 
7078 
7098 
7134 
7138 
7112 
7119 
7138 
7131 
7130 
7088 
7102 
7150 
7177 
7147 
7109 
7142 
7172 
7157 
7152 
7135 
7142 
7166 
7161 
7138 
7176 
7168 
7188 
7183 
7247 
7258 
7249 
7225 
7203 
7187 
7174 
7173 
7173 
7206 
7193 
7164 
7189 
7196 
7148 
7158 
7203 
7207 
7207 
7181 
7199 
7196 
7212 
7171 
7207 
7307 
7416 
7507 
7781 
7945 
7906 
7761 
7587 
7252 
7089 
7064 
7034 
7088 
7203 
7250 
7241 
7238 
7248 
7254 
7252 
7246 
7271 
7292 
7255 
7281 
7288 
7327 
7332 
7312 
7336 
7334 
7298 
7302 
7341 
7353 
7350 
7346 
7348 
7372 
7377 
7375 
7379 
7390 
7391 
7429 
7449 
7464 
7465 
7484 
7501 
7578 
7573 
7481 
7497 
7544 
7559 
7570 
7574 
7555 
7553 
7516 
7435 
7455 
7500 
7447 
7413 
7421 
7402 
7355 
7345 
7327 
7332 
7347 
7308 
7299 
7326 
7325 
7307 
7351 
7346 
7347 
7306 
7316 
7322 
7330 
7358 
7319 
7294 
7376 
7370 
7301 
7314 
7356 
7365 
7322 
7309 
7347 
7401 
7353 
7369 
7385 
7378 
7386 
7378 
7338 
7334 
7376 
7373 
7364 
7370 
7368 
7367 
7390 
7389 
7370 
7371 
7372 
7410 
7406 
7414 
7410 
7425 
7409 
7421 
7433 
7420 
7435 
7434 
7446 
7473 
7467 
7423 
7455 
7459 
7435 
7375 
7364 
7410 
7437 
7416 
7410 
7421 
7414 
7409 
7394 
7415 
7439 
7397 
7355 
7386 
7388 
7432 
7512 
7653 
7886 
8150 
8182 
8013 
7902 
7672 
7379 
7255 
7254 
7285 
7344 
7392 
7425 
7416 
7456 
7462 
7434 
7457 
7410 
7431 
7449 
7503 
7495 
7483 
7449 
7490 
7502 
7490 
7517 
7520 
7535 
7542 
7503 
7557 
7599 
7583 
7541 
7577 
7621 
7611 
7592 
7593 
7656 
7662 
7684 
7665 
7728 
7745 
7725 
7715 
7743 
7753 
7772 
7761 
7763 
7813 
7765 
7722 
7716 
7752 
7677 
7656 
7656 
7672 
7601 
7575 
7549 
7533 
7523 
7501 
7512 
7535 
7545 
7532 
7512 
7496 
7496 
7545 
7541 
7530 
7549 
7534 
7547 
7550 
7541 
7533 
7508 
7524 
7559 
7484 
7513 
7529 
7575 
7565 
7558 
7583 
7531 
7527 
7542 
7521 
7570 
7591 
7529 
7533 
7550 
7569 
7587 
7560 
7585 
7604 
7584 
7551 
7597 
7600 
7613 
7578 
7557 
7600 
7625 
7569 
7555 
7591 
7631 
7632 
7650 
7665 
7647 
7624 
7625 
7601 
7577 
7550 
7572 
7591 
7616 
7609 
7571 
7568 
7580 
7587 
7606 
7585 
7598 
7597 
7573 
7563 
7566 
7559 
7562 
7676 
7858 
8070 
8326 
8372 
8228 
8089 
7841 
7547 
7438 
7424 
7456 
7509 
7553 
7586 
7595 
7574 
7580 
7605 
7604 
7598 
7607 
7660 
7656 
7668 
7641 
7675 
7671 
7664 
7646 
7645 
7694 
7687 
7663 
7697 
7684 
7723 
7728 
7738 
7744 
7773 
7754 
7765 
7810 
7816 
7803 
7837 
7854 
7854 
7838 
7868 
7896 
7935 
7962 
7902 
7878 
7895 
7921 
7911 
7895 
7886 
7839 
7778 
7812 
7794 
7767 
7716 
7685 
7674 
7690 
7653 
7639 
7649 
7640 
7599 
7617 
7655 
7644 
7637 
7661 
7653 
7645 
7625 
7605 
7615 
7663 
7656 
7614 
7604 
7622 
7623 
7612 
7642 
7643 
7637 
7621 
7654 
7656 
7628 
7599 
7613 
7621 
7638 
7636 
7612 
7666 
7652 
7626 
7623 
7639 
7656 
7689 
7654 
7614 
7636 
7653 
7641 
7644 
7640 
7696 
7653 
7625 
7680 
7689 
7669 
7675 
7695 
7700 
7679 
7668 
7677 
7727 
7710 
7654 
7657 
7636 
7660 
7645 
7656 
7650 
7628 
7628 
7627 
7630 
7633 
7638 
7625 
7618 
7653 
7652 
7671 
7633 
7626 
7725 
7875 
8110 
8340 
8356 
8217 
8119 
7857 
7560 
7454 
7462 
7503 
7535 
7563 
7619 
7660 
7676 
7673 
7632 
7649 
7686 
7659 
7648 
7681 
7703 
7704 
7681 
7665 
7691 
7716 
7696 
7693 
7717 
7728 
7699 
7729 
7763 
7742 
7740 
7749 
7785 
7840 
7806 
7798 
7803 
7811 
7853 
7870 
7878 
7904 
7873 
7866 
7912 
7946 
7937 
7938 
7950 
7940 
7968 
7897 
7860 
7854 
7859 
7830 
7794 
7785 
7780 
7737 
7703 
7716 
7698 
7616 
7654 
7707 
7720 
7669 
7665 
7643 
7672 
7669 
7656 
7660 
7674 
7649 
7621 
7641 
7668 
7676 
7638 
7657 
7680 
7706 
7688 
7663 
7691 
7685 
7658 
7647 
7659 
7677 
7695 
7688 
7692 
7723 
7681 
7640 
7660 
7688 
7716 
7712 
7688 
7679 
7683 
7659 
7667 
7673 
7705 
7706 
7684 
7709 
7728 
7694 
7709 
7732 
7730 
7747 
7737 
7722 
7717 
7726 
7745 
7771 
7751 
7706 
7688 
7664 
7705 
7724 
7706 
7687 
7699 
7697 
7689 
7692 
7727 
7746 
7734 
7690 
7694 
7677 
7682 
7706 
7865 
8012 
8233 
8417 
8399 
8258 
8126 
7810 
7605 
7617 
7595 
7576 
7634 
7728 
7788 
7742 
7717 
7732 
7788 
7740 
7729 
7769 
7762 
7759 
7741 
7730 
7769 
7811 
7796 
7814 
7824 
7824 
7812 
7841 
7833 
7852 
7859 
7861 
7836 
7853 
7845 
7852 
7883 
7915 
7880 
7888 
7903 
7951 
7991 
7992 
7988 
7996 
7991 
8009 
8054 
8054 
8008 
8014 
8011 
8006 
7998 
7920 
7902 
7896 
7892 
7868 
7825 
7850 
7815 
7776 
7760 
7790 
7802 
7779 
7730 
7713 
7756 
7758 
7736 
7760 
7779 
7766 
7758 
7785 
7787 
7768 
7759 
7772 
7800 
7772 
7756 
7740 
7753 
7760 
7745 
7740 
7763 
7803 
7818 
7787 
7789 
7834 
7797 
7741 
7748 
7786 
7815 
7803 
7791 
7764 
7807 
7779 
7777 
7800 
7759 
7755 
7767 
7786 
7797 
7773 
7786 
7805 
7812 
7814 
7802 
7828 
7829 
7840 
7865 
7895 
7826 
7835 
7801 
7788 
7799 
7795 
7761 
7784 
7796 
7797 
7789 
7801 
7829 
7798 
7782 
7784 
7811 
7808 
7788 
7764 
7731 
7756 
7903 
8066 
8216 
8436 
8556 
8412 
8293 
8073 
7781 
7646 
7619 
7657 
7770 
7836 
7833 
7806 
7801 
7826 
7818 
7824 
7835 
7827 
7837 
7832 
7877 
7834 
7842 
7833 
7818 
7825 
7826 
7853 
7853 
7850 
7844 
7809 
7784 
7908 
8088 
8320 
8558 
8661 
8538 
8427 
8165 
7798 
7702 
7692 
7693 
7762 
7806 
7844 
7885 
7855 
7864 
7912 
7883 
7900 
7874 
7860 
7938 
7883 
7871 
7925 
7930 
7926 
7919 
7943 
7951 
7955 
7901 
7933 
7998 
8014 
8010 
8001 
8029 
7989 
7997 
7987 
7993 
8044 
8036 
8025 
8055 
8073 
8094 
8107 
8123 
8173 
8134 
8146 
8136 
8147 
8142 
8161 
8147 
8112 
8074 
8062 
8026 
7999 
7993 
7964 
7943 
7913 
7890 
7891 
7872 
7876 
7859 
7855 
7844 
7828 
7855 
7843 
7847 
7851 
7875 
7903 
7865 
7882 
7867 
7837 
7834 
7846 
7835 
7849 
7831 
7836 
7830 
7869 
7897 
7870 
7854 
7868 
7859 
7861 
7871 
7905 
7866 
7861 
7848 
7868 
7869 
7905 
7889 
7876 
7859 
7822 
7901 
7899 
7871 
7860 
7869 
7878 
7861 
7865 
7861 
7863 
7861 
7870 
7885 
7922 
7889 
7892 
7895 
7923 
7920 
7892 
7879 
7911 
7866 
7861 
7873 
7847 
7838 
7853 
7877 
7894 
7838 
7832 
7845 
7835 
7858 
7879 
7861 
7825 
7798 
7798 
7810 
7919 
8061 
8256 
8496 
8591 
8475 
8338 
8150 
7847 
7702 
7670 
7660 
7705 
7777 
7816 
7849 
7860 
7859 
7859 
7876 
7868 
7856 
7835 
7823 
7884 
7903 
7895 
7909 
7919 
7944 
7908 
7938 
7936 
7909 
7899 
7958 
7986 
7978 
7918 
7958 
7976 
7957 
7979 
8012 
8032 
8056 
8061 
8065 
8087 
8079 
8085 
8125 
8140 
8161 
8129 
8129 
8156 
8145 
8131 
8115 
8123 
8121 
8073 
8007 
7984 
7979 
7956 
7951 
7925 
7915 
7894 
7877 
7870 
7866 
7842 
7831 
7842 
7872 
7858 
7832 
7834 
7840 
7809 
7784 
7812 
7826 
7843 
7857 
7833 
7839 
7840 
7816 
7810 
7816 
7822 
7831 
7850 
7823 
7805 
7829 
7850 
7864 
7863 
7849 
7856 
7858 
7858 
7865 
7897 
7869 
7840 
7854 
7882 
7870 
7865 
7869 
7881 
7882 
7865 
7886 
7909 
7884 
7897 
7897 
7885 
7866 
7883 
7914 
7904 
7874 
7843 
7879 
7839 
7822 
7816 
7829 
7865 
7871 
7854 
7846 
7853 
7864 
7845 
7837 
7839 
7860 
7810 
7818 
7829 
7828 
7854 
7982 
8112 
8307 
8456 
8509 
8390 
8261 
8010 
7746 
7677 
7666 
7654 
7700 
7769 
7820 
7859 
7866 
7916 
7879 
7834 
7824 
7867 
7890 
7909 
7948 
7937 
7923 
7955 
7892 
7858 
7895 
7922 
7933 
7960 
7963 
7958 
7935 
7948 
7997 
7974 
7955 
7948 
8006 
8059 
8032 
8011 
8078 
8048 
8045 
8100 
8119 
8130 
8181 
8187 
8141 
8118 
8137 
8124 
8132 
8132 
8071 
8071 
8016 
7987 
8036 
8014 
7953 
7918 
7918 
7896 
7886 
7885 
7890 
7875 
7830 
7810 
7888 
7929 
7803 
7798 
7833 
7859 
7890 
7866 
7844 
7830 
7859 
7829 
7858 
7831 
7828 
7835 
7809 
7850 
7864 
7853 
7870 
7845 
7826 
7833 
7816 
7820 
7886 
7900 
7819 
7835 
7890 
7890 
7853 
7771 
7833 
7877 
7856 
7842 
7844 
7848 
7849 
7864 
7822 
7843 
7849 
7854 
7876 
7861 
7856 
7835 
7854 
7883 
7893 
7875 
7851 
7878 
7837 
7831 
7856 
7863 
7872 
7849 
7850 
7870 
7853 
7806 
7810 
7817 
7848 
7812 
7824 
7831 
7850 
7966 
8015 
8165 
8362 
8491 
8481 
8364 
8216 
7870 
7685 
7677 
7681 
7798 
7850 
7851 
7842 
7886 
7895 
7888 
7831 
7838 
7864 
7881 
7819 
7808 
7832 
7858 
7952 
7885 
7895 
7936 
7882 
7849 
7835 
7830 
7855 
7902 
7911 
7935 
7912 
7894 
7893 
7893 
7924 
7916 
7947 
7969 
7953 
7946 
7898 
7977 
8037 
8065 
8054 
8034 
8058 
8034 
8017 
8012 
7992 
7988 
7992 
7949 
7915 
7899 
7897 
7847 
7825 
7822 
7817 
7810 
7793 
7775 
7795 
7762 
7788 
7810 
7801 
7833 
7762 
7777 
7726 
7737 
7798 
7814 
7793 
7761 
7797 
7778 
7777 
7766 
7777 
7800 
7817 
7850 
7805 
7757 
7709 
7782 
7817 
7830 
7824 
7801 
7802 
7837 
7813 
7793 
7800 
7811 
7787 
7764 
7767 
7844 
7854 
7883 
7870 
7830 
7816 
7859 
7892 
7838 
7786 
7776 
7845 
7887 
7864 
7831 
7837 
7864 
7827 
7788 
7725 
7736 
7749 
7751 
7743 
7722 
7713 
7666 
7690 
7726 
7734 
7686 
7622 
7620 
7639 
7652 
7667 
7809 
7882 
7966 
8244 
8438 
8323 
8122 
7922 
7672 
7435 
7442 
7406 
7449 
7492 
7545 
7526 
7506 
7512 
7475 
7449 
7442 
7440 
7463 
7469 
7472 
7450 
7459 
7455 
7418 
7434 
7408 
7426 
7482 
7468 
7455 
7485 
7499 
7519 
7489 
7504 
7506 
7513 
7554 
7561 
7584 
7609 
7551 
7538 
7589 
7583 
7631 
7669 
7665 
7670 
7682 
7676 
7639 
7619 
7675 
7718 
7707 
7680 
7600 
7567 
7564 
7550 
7530 
7528 
7501 
7468 
7435 
7430 
7429 
7437 
7429 
7464 
7489 
7467 
7446 
7438 
7431 
7452 
7491 
7469 
7419 
7429 
7433 
7449 
7475 
7475 
7466 
7488 
7521 
7523 
7504 
7487 
7511 
7507 
7520 
7566 
7533 
7542 
7523 
7517 
7540 
7543 
7541 
7530 
7548 
7604 
7569 
7514 
7537 
7590 
7624 
7598 
7588 
7595 
7551 
7549 
7572 
7587 
7597 
7585 
7604 
7640 
7615 
7600 
7600 
7619 
7620 
7584 
7511 
7505 
7522 
7545 
7541 
7554 
7558 
7534 
7508 
7480 
7498 
7485 
7475 
7468 
7491 
7462 
7515 
7676 
7798 
7999 
8262 
8269 
8081 
7904 
7604 
7326 
7254 
7239 
7291 
7354 
7438 
7439 
7442 
7441 
7447 
7428 
7450 
7466 
7449 
7449 
7451 
7474 
7465 
7451 
7468 
7421 
7413 
7441 
7459 
7468 
7471 
7446 
7443 
7455 
7458 
7460 
7456 
7477 
7517 
7522 
7527 
7525 
7554 
7600 
7589 
7577 
7586 
7634 
7675 
7650 
7646 
7703 
7742 
7736 
7735 
7711 
7666 
7638 
7625 
7601 
7597 
7563 
7542 
7557 
7562 
7520 
7519 
7503 
7490 
7489 
7466 
7459 
7523 
7515 
7539 
7501 
7474 
7470 
7498 
7559 
7544 
7497 
7472 
7490 
7562 
7569 
7549 
7522 
7497 
7532 
7566 
7566 
7576 
7558 
7526 
7572 
7599 
7594 
7582 
7572 
7550 
7601 
7611 
7578 
7548 
7567 
7570 
7552 
7575 
7613 
7588 
7548 
7558 
7578 
7609 
7617 
7578 
7593 
7575 
7628 
7655 
7581 
7588 
7612 
7635 
7598 
7576 
7574 
7549 
7527 
7531 
7549 
7575 
7574 
7569 
7516 
7525 
7516 
7510 
7507 
7518 
7534 
7522 
7492 
7467 
7492 
7632 
7817 
7990 
8231 
8320 
8148 
7984 
7716 
7412 
7336 
7329 
7304 
7378 
7457 
7532 
7529 
7501 
7508 
7512 
7503 
7517 
7541 
7572 
7560 
7545 
7543 
7551 
7533 
7526 
7547 
7554 
7570 
7596 
7626 
7601 
7549 
7554 
7591 
7657 
7671 
7665 
7689 
7687 
7662 
7671 
7703 
7699 
7715 
7758 
7795 
7821 
7823 
7798 
7817 
7833 
7828 
7835 
7810 
7811 
7819 
7771 
7741 
7717 
7672 
7642 
7639 
7620 
7604 
7580 
7589 
7589 
7524 
7509 
7521 
7550 
7495 
7459 
7491 
7501 
7512 
7529 
7468 
7467 
7491 
7496 
7503 
7491 
7474 
7481 
7506 
7510 
7472 
7465 
7464 
7476 
7483 
7478 
7482 
7447 
7463 
7451 
7444 
7443 
7483 
7483 
7476 
7477 
7470 
7482 
7443 
7481 
7485 
7462 
7492 
7505 
7503 
7515 
7515 
7496 
7521 
7510 
7504 
7489 
7449 
7415 
7462 
7488 
7502 
7466 
7426 
7435 
7446 
7500 
7508 
7456 
7457 
7441 
7425 
7429 
7454 
7465 
7440 
7418 
7400 
7500 
7645 
7812 
8022 
8168 
8086 
7984 
7761 
7418 
7292 
7284 
7275 
7235 
7329 
7409 
7470 
7478 
7478 
7473 
7450 
7452 
7452 
7469 
7485 
7486 
7498 
7497 
7503 
7539 
7516 
7475 
7504 
7531 
7505 
7526 
7540 
7561 
7539 
7537 
7521 
7537 
7546 
7640 
7637 
7598 
7590 
7640 
7671 
7712 
7734 
7698 
7705 
7731 
7728 
7710 
7755 
7762 
7729 
7733 
7702 
7674 
7704 
7698 
7635 
7589 
7585 
7525 
7471 
7448 
7467 
7468 
7459 
7457 
7456 
7418 
7423 
7412 
7446 
7442 
7435 
7418 
7378 
7365 
7385 
7367 
7386 
7407 
7403 
7409 
7370 
7392 
7391 
7392 
7408 
7403 
7410 
7410 
7386 
7374 
7415 
7419 
7380 
7386 
7382 
7385 
7389 
7439 
7417 
7415 
7392 
7415 
7442 
7442 
7399 
7425 
7436 
7442 
7429 
7435 
7468 
7432 
7429 
7386 
7384 
7381 
7350 
7347 
7386 
7392 
7427 
7401 
7401 
7353 
7391 
7379 
7369 
7370 
7343 
7333 
7321 
7307 
7321 
7424 
7559 
7681 
7883 
8102 
8105 
7956 
7804 
7481 
7265 
7188 
7209 
7223 
7270 
7302 
7357 
7389 
7399 
7398 
7397 
7382 
7369 
7395 
7380 
7384 
7402 
7411 
7442 
7436 
7440 
7436 
7425 
7450 
7415 
7428 
7472 
7427 
7423 
7438 
7477 
7490 
7479 
7474 
7477 
7534 
7548 
7543 
7572 
7641 
7595 
7586 
7607 
7603 
7637 
7634 
7672 
7704 
7689 
7632 
7615 
7609 
7600 
7581 
7527 
7486 
7517 
7499 
7418 
7416 
7402 
7411 
7387 
7377 
7405 
7386 
7361 
7330 
7350 
7377 
7400 
7410 
7408 
7406 
7382 
7403 
7429 
7410 
7385 
7392 
7410 
7397 
7351 
7384 
7393 
7371 
7404 
7399 
7408 
7440 
7442 
7380 
7353 
7359 
7391 
7413 
7421 
7407 
7432 
7413 
7397 
7396 
7410 
7428 
7417 
7421 
7437 
7435 
7451 
7487 
7465 
7463 
7424 
7443 
7443 
7431 
7442 
7422 
7416 
7402 
7397 
7408 
7405 
7409 
7403 
7429 
7430 
7428 
7419 
7391 
7379 
7412 
7410 
7346 
7413 
7494 
7637 
7815 
8070 
8233 
8117 
7966 
7729 
7436 
7316 
7317 
7311 
7307 
7349 
7407 
7441 
7419 
7495 
7440 
7424 
7482 
7471 
7458 
7450 
7480 
7486 
7511 
7476 
7466 
7487 
7502 
7509 
7524 
7487 
7485 
7495 
7485 
7525 
7575 
7698 
7679 
7632 
7607 
7568 
7615 
7645 
7628 
7648 
7645 
7648 
7686 
7674 
7702 
7710 
7707 
7695 
7668 
7690 
7721 
7693 
7654 
7640 
7595 
7566 
7565 
7552 
7499 
7483 
7459 
7437 
7394 
7392 
7437 
7463 
7420 
7423 
7406 
7444 
7442 
7412 
7400 
7412 
7427 
7416 
7408 
7430 
7430 
7414 
7427 
7434 
7460 
7416 
7383 
7426 
7424 
7376 
7356 
7354 
7391 
7444 
7495 
7483 
7435 
7412 
7384 
7445 
7482 
7436 
7423 
7444 
7418 
7386 
7359 
7398 
7412 
7451 
7415 
7406 
7434 
7472 
7468 
7477 
7493 
7486 
7525 
7516 
7510 
7473 
7463 
7466 
7440 
7437 
7445 
7406 
7415 
7443 
7432 
7427 
7423 
7411 
7431 
7426 
7409 
7448 
7397 
7410 
7573 
7731 
7913 
8196 
8263 
8094 
7946 
7690 
7372 
7290 
7274 
7296 
7358 
7408 
7441 
7461 
7482 
7438 
7448 
7421 
7446 
7507 
7556 
7509 
7483 
7518 
7525 
7516 
7539 
7478 
7497 
7533 
7628 
7590 
7511 
7528 
7572 
7572 
7614 
7647 
7641 
7645 
7663 
7673 
7694 
7697 
7734 
7752 
7721 
7768 
7759 
7762 
7791 
7761 
7775 
7775 
7801 
7811 
7770 
7768 
7794 
7733 
7713 
7706 
7704 
7720 
7696 
7599 
7540 
7518 
7499 
7494 
7490 
7479 
7486 
7506 
7505 
7536 
7543 
7491 
7486 
7491 
7488 
7497 
7503 
7539 
7538 
7458 
7480 
7501 
7501 
7516 
7529 
7520 
7537 
7496 
7453 
7462 
7502 
7544 
7512 
7542 
7532 
7525 
7494 
7476 
7549 
7583 
7460 
7448 
7507 
7546 
7512 
7467 
7538 
7547 
7521 
7515 
7506 
7500 
7477 
7453 
7476 
7474 
7514 
7537 
7528 
7491 
7517 
7505 
7513 
7511 
7476 
7478 
7470 
7472 
7492 
7496 
7493 
7499 
7527 
7485 
7475 
7531 
7561 
7489 
7467 
7425 
7439 
7465 
7660 
7821 
8045 
8285 
8274 
8136 
8000 
7708 
7394 
7336 
7326 
7358 
7441 
7506 
7536 
7483 
7487 
7509 
7529 
7525 
7475 
7499 
7507 
7517 
7547 
7564 
7558 
7562 
7563 
7558 
7571 
7593 
7571 
7595 
7625 
7606 
7626 
7583 
7594 
7615 
7627 
7617 
7642 
7615 
7592 
7597 
7637 
7650 
7675 
7693 
7693 
7715 
7730 
7752 
7772 
7762 
7800 
7802 
7769 
7759 
7749 
7738 
7663 
7599 
7626 
7611 
7588 
7540 
7542 
7549 
7497 
7503 
7502 
7492 
7507 
7469 
7492 
7485 
7514 
7421 
7420 
7487 
7474 
7398 
7420 
7489 
7478 
7455 
7477 
7502 
7455 
7374 
7427 
7486 
7476 
7434 
7417 
7409 
7469 
7486 
7472 
7429 
7441 
7446 
7425 
7443 
7469 
7443 
7412 
7432 
7407 
7439 
7418 
7395 
7456 
7467 
7474 
7505 
7453 
7503 
7518 
7502 
7512 
7500 
7502 
7501 
7474 
7537 
7502 
7396 
7425 
7490 
7454 
7395 
7436 
7491 
7439 
7382 
7405 
7456 
7436 
7410 
7402 
7385 
7394 
7431 
7414 
7431 
7513 
7662 
7815 
8001 
8122 
8018 
7855 
7655 
7319 
7205 
7186 
7196 
7296 
7380 
7364 
7394 
7414 
7450 
7448 
7432 
7410 
7405 
7424 
7404 
7482 
7493 
7424 
7401 
7425 
7497 
7486 
7463 
7471 
7473 
7497 
7486 
7456 
7502 
7512 
7497 
7496 
7514 
7501 
7515 
7536 
7585 
7600 
7587 
7545 
7589 
7620 
7641 
7616 
7616 
7661 
7687 
7656 
7593 
7590 
7598 
7541 
7537 
7555 
7537 
7434 
7422 
7428 
7371 
7343 
7333 
7344 
7340 
7348 
7321 
7283 
7286 
7290 
7300 
7280 
7257 
7302 
7278 
7296 
7273 
7279 
7268 
7224 
7261 
7267 
7273 
7266 
7280 
7237 
7256 
7214 
7236 
7283 
7240 
7254 
7246 
7246 
7273 
7267 
7293 
7280 
7248 
7203 
7257 
7259 
7197 
7166 
7142 
7173 
7234 
7156 
7113 
7130 
7191 
7212 
7231 
7278 
7270 
7242 
7235 
7266 
7249 
7193 
7207 
7206 
7250 
7211 
7205 
7194 
7197 
7239 
7208 
7197 
7240 
7206 
7229 
7213 
7204 
7226 
7212 
7210 
7353 
7505 
7632 
7785 
7779 
7734 
7577 
7251 
7071 
7079 
7023 
7013 
7072 
7156 
7210 
7227 
7241 
7241 
7237 
7161 
7190 
7196 
7200 
7184 
7196 
7259 
7255 
7262 
7231 
7241 
7248 
7256 
7273 
7340 
7236 
7265 
7278 
7278 
7266 
7293 
7253 
7316 
7365 
7366 
7335 
7340 
7377 
7444 
7404 
7390 
7404 
7451 
7449 
7459 
7438 
7429 
7433 
7416 
7424 
7465 
7440 
7344 
7297 
7320 
7322 
7248 
7210 
7227 
7201 
7169 
7170 
7183 
7198 
7209 
7152 
7157 
7169 
7173 
7157 
7130 
7171 
7171 
7157 
7159 
7157 
7138 
7133 
7177 
7142 
7147 
7169 
7150 
7156 
7184 
7175 
7139 
7128 
7159 
7185 
7166 
7166 
7195 
7129 
7112 
7120 
7157 
7148 
7168 
7171 
7169 
7189 
7151 
7145 
7156 
7186 
7146 
7136 
7264 
7252 
7212 
7201 
7159 
7153 
7168 
7133 
7210 
7154 
7124 
7143 
7167 
7191 
7190 
7166 
7160 
7191 
7142 
7181 
7148 
7167 
7186 
7161 
7101 
7154 
7224 
7265 
7378 
7601 
7810 
7776 
7646 
7525 
7300 
7042 
6940 
6972 
7045 
7105 
7122 
7122 
7140 
7153 
7138 
7156 
7166 
7129 
7168 
7199 
7211 
7181 
7175 
7159 
7186 
7223 
7210 
7178 
7197 
7267 
7263 
7186 
7223 
7254 
7278 
7279 
7282 
7277 
7282 
7287 
7273 
7297 
7322 
7309 
7316 
7366 
7381 
7396 
7391 
7365 
7420 
7357 
7382 
7408 
7379 
7375 
7317 
7353 
7340 
7301 
7278 
7250 
7234 
7218 
7167 
7157 
7158 
7159 
7162 
7117 
7116 
7109 
7114 
7121 
7142 
7149 
7137 
7110 
7109 
7140 
7112 
7131 
7169 
7194 
7399 
7383 
7413 
7418 
7439 
7423 
7445 
7487 
7434 
7395 
7424 
7454 
7463 
7463 
7448 
7468 
7473 
7467 
7489 
7476 
7465 
7491 
7454 
7417 
7441 
7450 
7428 
7432 
7471 
7446 
7432 
7434 
7421 
7419 
7443 
7473 
7438 
7422 
7417 
7417 
7426 
7502 
7642 
7777 
7995 
8196 
8074 
7885 
7738 
7449 
7284 
7251 
7253 
7330 
7416 
7450 
7470 
7421 
7443 
7417 
7394 
7448 
7473 
7442 
7392 
7433 
7452 
7437 
7426 
7421 
7456 
7431 
7418 
7442 
7430 
7459 
7416 
7441 
7456 
7459 
7430 
7439 
7497 
7463 
7435 
7444 
7476 
7508 
7495 
7493 
7482 
7501 
7494 
7505 
7517 
7492 
7510 
7505 
7514 
7533 
7485 
7450 
7436 
7425 
7349 
7291 
7307 
7299 
7298 
7248 
7236 
7222 
7185 
7135 
7103 
7130 
7147 
7114 
6985 
6984 
6993 
6990 
6977 
6951 
6931 
6980 
6972 
6923 
6935 
6887 
6930 
6929 
6882 
6878 
6895 
6887 
6907 
6902 
6871 
6893 
6835 
6813 
6854 
6837 
6810 
6794 
6805 
6831 
6798 
6797 
6788 
6785 
6741 
6712 
6760 
6780 
6754 
6801 
6811 
6775 
6759 
6727 
6701 
6694 
6686 
6703 
6622 
6644 
6609 
6544 
6562 
6596 
6576 
6550 
6535 
6529 
6526 
6480 
6449 
6466 
6482 
6426 
6454 
6573 
6766 
6938 
7080 
7100 
6912 
6773 
6490 
6223 
6150 
6113 
6142 
6218 
6325 
6342 
6299 
6290 
6260 
6280 
6288 
6286 
6258 
6287 
6284 
6261 
6331 
6289 
6289 
6240 
6243 
6305 
6324 
6272 
6243 
6239 
6257 
6270 
6299 
6303 
6268 
6257 
6265 
6305 
6291 
6281 
6291 
6366 
6377 
6355 
6299 
6352 
6399 
6440 
6377 
6387 
5591 
5537 
5539 
5563 
5564 
5556 
5543 
5542 
5550 
5540 
5530 
5544 
5548 
5515 
5519 
5434 
5477 
5487 
5465 
5426 
5435 
5466 
5426 
5390 
5408 
5418 
5376 
5336 
5396 
5413 
5391 
5403 
5361 
5356 
5399 
5456 
5555 
5705 
6004 
6193 
6032 
5883 
5702 
5388 
5220 
5215 
5193 
5261 
5286 
5379 
5454 
5426 
5371 
5393 
5411 
5436 
5421 
5437 
5467 
5459 
5456 
5475 
5471 
5440 
5437 
5430 
5418 
5465 
5425 
5382 
5394 
5442 
5457 
5426 
5468 
5482 
5444 
5458 
5509 
5564 
5536 
5492 
5552 
5576 
5536 
5520 
5590 
5587 
5600 
5606 
5621 
5604 
5605 
5576 
5553 
5615 
5583 
5480 
5465 
5501 
5465 
5409 
5369 
5354 
5381 
5357 
5316 
5324 
5319 
5317 
5300 
5296 
5301 
5288 
5286 
5309 
5325 
5312 
5278 
5255 
5273 
5305 
5317 
5312 
5307 
5310 
5300 
5276 
5321 
5333 
5355 
5323 
5364 
5347 
5325 
5281 
5316 
5337 
5325 
5337 
5312 
5340 
5344 
5311 
5341 
5348 
5363 
5355 
5320 
5355 
5360 
5341 
5334 
5369 
5356 
5414 
5373 
5382 
5386 
5381 
5364 
5368 
5392 
5409 
5417 
5381 
5391 
5410 
5406 
5361 
5344 
5363 
5356 
5341 
5360 
5346 
5320 
5347 
5366 
5404 
5388 
5322 
5322 
5367 
5383 
5321 
5319 
5365 
5509 
5605 
5714 
5933 
6077 
5942 
5813 
5621 
5337 
5242 
5181 
5177 
5266 
5360 
5340 
5336 
5380 
5411 
5397 
5439 
5470 
5454 
5362 
5399 
5449 
5459 
5479 
5514 
5457 
5467 
5485 
5488 
5516 
5553 
5570 
5527 
5508 
5556 
5591 
5584 
5585 
5615 
5617 
5642 
5628 
5649 
5674 
5689 
5695 
5682 
5754 
5740 
5736 
5795 
5818 
5806 
5754 
5756 
5813 
5807 
5787 
5694 
5697 
5687 
5618 
5647 
5667 
5617 
5551 
5532 
5520 
5560 
5542 
5549 
5582 
5599 
5547 
5515 
5535 
5523 
5524 
5539 
5565 
5567 
5556 
5586 
5623 
5525 
5548 
5522 
5545 
5568 
5641 
5627 
5592 
5612 
5600 
5593 
5646 
5622 
5607 
5624 
5616 
5637 
5671 
5654 
5639 
5657 
5673 
5657 
5606 
5651 
5664 
5705 
5752 
5729 
5717 
5732 
5730 
5698 
5715 
5741 
5737 
5786 
5786 
5778 
5755 
5736 
5756 
5766 
5737 
5670 
5758 
5801 
5718 
5693 
5761 
5758 
5765 
5747 
5753 
5788 
5772 
5760 
5780 
5787 
5786 
5789 
5774 
5862 
6000 
6123 
6303 
6499 
6393 
6255 
6029 
5787 
5721 
5645 
5657 
5717 
5780 
5846 
5834 
5833 
5835 
5868 
5883 
5910 
5903 
5932 
5885 
5909 
5937 
5903 
5896 
5938 
5995 
5984 
5906 
5912 
5962 
5970 
5966 
5971 
5981 
6027 
6026 
5983 
6048 
6083 
6065 
6043 
6043 
6106 
6125 
6088 
6082 
6122 
6167 
6148 
6162 
6194 
6215 
6245 
6187 
6164 
6165 
6158 
6127 
6066 
6072 
6058 
6016 
5992 
6016 
5965 
5915 
5947 
5983 
5949 
5926 
5909 
5934 
5917 
5924 
5916 
5956 
6027 
5941 
5877 
5920 
5920 
5929 
5953 
5931 
5930 
5935 
5930 
5952 
5926 
5931 
5968 
5944 
5963 
5980 
5939 
5966 
6011 
5975 
5964 
5969 
6002 
5982 
5956 
5957 
5982 
5974 
5992 
5995 
6003 
6043 
6007 
5964 
5951 
5992 
5979 
6018 
6029 
6078 
6070 
6061 
6061 
6052 
6039 
6030 
6036 
6050 
6015 
6049 
6047 
6055 
6058 
6065 
6024 
6043 
6091 
6051 
6071 
6079 
6063 
6056 
6047 
6047 
6080 
6209 
6296 
6476 
6746 
6826 
6662 
6511 
6289 
6074 
5949 
5943 
5945 
6000 
6091 
6104 
6127 
6136 
6103 
6101 
6160 
6231 
6223 
6175 
6143 
6171 
6232 
6183 
6166 
6187 
6198 
6194 
6242 
6262 
6260 
6218 
6198 
6237 
6276 
6267 
6248 
6256 
6310 
6311 
6275 
6319 
6357 
6373 
6405 
6387 
6411 
6443 
6437 
6403 
6428 
6445 
6445 
6458 
6474 
6430 
6428 
6368 
6383 
6404 
6374 
6284 
6272 
6262 
6246 
6233 
6199 
6226 
6202 
6173 
6165 
6222 
6235 
6175 
6156 
6170 
6235 
6218 
6173 
6204 
6185 
6175 
6171 
6162 
6180 
6183 
6176 
6149 
6190 
6220 
6207 
6186 
6197 
6221 
6188 
6161 
6175 
6245 
6157 
6176 
6202 
6178 
6217 
6197 
6198 
6213 
6239 
6226 
6184 
6176 
6205 
6205 
6208 
6216 
6255 
6225 
6239 
6239 
6280 
6264 
6211 
6243 
6257 
6280 
6292 
6259 
6227 
6234 
6185 
6267 
6247 
6189 
6215 
6205 
6206 
6208 
6217 
6251 
6258 
6245 
6234 
6213 
6218 
6232 
6198 
6202 
6207 
6226 
6294 
6452 
6644 
6918 
6986 
6852 
6746 
6602 
6236 
6045 
6071 
6131 
6201 
6208 
6215 
6292 
6292 
6282 
6277 
6306 
6283 
6269 
6312 
6351 
6360 
6318 
6312 
6335 
6333 
6320 
6341 
6381 
6395 
6378 
6351 
6388 
6379 
6392 
6412 
6423 
6392 
6420 
6430 
6461 
6505 
6494 
6423 
6467 
6516 
6534 
6505 
6500 
6563 
6640 
6636 
6532 
6566 
6632 
6590 
6544 
6526 
6479 
6463 
6420 
6416 
6439 
6422 
6342 
6328 
6353 
6376 
6344 
6305 
6299 
6322 
6319 
6307 
6311 
6299 
6283 
6316 
6373 
6341 
6315 
6298 
6304 
6336 
6337 
6295 
6326 
6345 
6357 
6319 
6314 
6366 
6378 
6362 
6363 
6376 
6370 
6403 
6403 
6412 
6436 
6430 
6378 
6384 
6421 
6458 
6438 
6507 
6492 
6460 
6494 
6482 
6534 
6534 
6536 
6473 
6493 
6547 
6521 
6512 
6500 
6522 
6521 
6551 
6579 
6602 
6593 
6623 
6630 
6612 
6553 
6528 
6555 
6574 
6569 
6572 
6564 
6557 
6581 
6548 
6607 
6589 
6543 
6473 
6551 
6624 
6633 
6558 
6552 
6547 
6546 
6662 
6773 
6898 
7134 
7318 
7329 
7198 
7064 
6758 
6518 
6496 
6499 
6546 
6569 
6592 
6662 
6701 
6698 
6677 
6677 
6668 
6686 
6673 
6673 
6655 
6651 
6654 
6636 
6682 
6668 
6693 
6708 
6721 
6686 
6675 
6678 
6744 
6760 
6733 
6724 
6759 
6783 
6778 
6767 
6789 
6820 
6780 
6781 
6819 
6830 
6846 
6839 
6848 
6871 
6878 
6871 
6892 
6951 
6931 
6904 
6862 
6845 
6814 
6782 
6732 
6751 
6741 
6694 
6674 
6675 
6673 
6623 
6622 
6633 
6650 
6612 
6588 
6669 
6688 
6649 
6659 
6669 
6718 
6719 
6710 
6717 
6729 
6766 
6756 
6729 
6735 
6744 
6751 
6749 
6709 
6746 
6751 
6723 
6785 
6783 
6733 
6746 
6759 
6759 
6763 
6771 
6756 
6769 
6741 
6726 
6700 
6749 
6732 
6721 
6717 
6720 
6725 
6701 
6688 
6725 
6731 
6714 
6726 
6777 
6686 
6675 
6684 
6685 
6718 
6715 
6693 
6683 
6755 
6751 
6712 
6745 
6773 
6773 
6736 
6731 
6730 
6740 
6721 
6724 
6740 
6711 
6671 
6670 
6726 
6716 
6690 
6688 
6703 
6725 
6749 
6717 
6685 
6678 
6664 
6678 
6790 
6952 
7156 
7372 
7547 
7388 
7258 
7058 
6682 
6575 
6608 
6624 
6634 
6657 
6747 
6736 
6722 
6737 
6770 
6790 
6764 
6763 
6791 
6799 
6779 
6773 
6821 
6831 
6802 
6784 
6819 
6843 
6864 
6822 
6763 
6823 
6802 
6824 
6878 
6871 
6867 
6860 
6838 
6870 
6909 
6913 
6887 
6927 
6955 
6942 
6995 
7010 
7003 
6975 
6999 
7001 
7046 
7051 
7012 
6982 
6959 
6932 
6920 
6898 
6888 
6858 
6800 
6776 
6772 
6755 
6730 
6745 
6770 
6776 
6746 
6695 
6742 
6750 
6713 
6697 
6727 
6725 
6735 
6736 
6739 
6746 
6728 
6691 
6725 
6718 
6710 
6716 
6736 
6745 
6743 
6716 
6726 
6741 
6738 
6725 
6729 
6750 
6768 
6763 
6762 
6781 
6777 
6751 
6775 
6760 
6773 
6768 
6769 
6769 
6773 
6833 
6802 
6802 
6770 
6769 
6763 
6795 
6820 
6748 
6751 
6750 
6765 
6792 
6803 
6770 
6782 
6818 
6786 
6760 
6800 
6804 
6825 
6843 
6844 
6819 
6809 
6767 
6762 
6784 
6821 
6770 
6761 
6786 
6817 
6762 
6751 
6789 
6788 
6752 
6761 
6771 
6761 
6731 
6733 
6765 
6825 
6954 
7082 
7288 
7525 
7533 
7346 
7165 
6934 
6723 
6618 
6596 
6642 
6730 
6739 
6732 
6770 
6785 
6772 
6803 
6808 
6800 
6756 
6779 
6812 
6854 
6809 
6803 
6815 
6829 
6819 
6832 
6867 
6864 
6872 
6799 
6841 
6873 
6875 
6875 
6830 
6902 
6900 
6880 
6926 
6925 
6986 
6943 
6935 
6973 
7026 
6996 
7000 
7069 
7081 
7062 
7005 
7057 
7073 
7051 
6977 
6961 
6944 
6938 
6910 
6875 
6838 
6809 
6832 
6799 
6794 
6822 
6777 
6741 
6720 
6779 
6751 
6713 
6713 
6745 
6745 
6717 
6746 
6775 
6781 
6709 
6730 
6772 
6749 
6731 
6750 
6787 
6782 
6756 
6733 
6751 
6759 
6700 
6706 
6747 
6772 
6731 
6722 
6755 
6753 
6748 
6726 
6734 
6759 
6774 
6780 
6772 
6739 
6752 
6721 
6738 
6747 
6761 
6736 
6742 
6770 
6770 
6751 
6749 
6769 
6780 
6739 
6736 
6740 
6756 
6752 
6736 
6741 
6793 
6808 
6786 
6803 
6844 
6774 
6737 
6737 
6740 
6734 
6755 
6695 
6704 
6733 
6728 
6766 
6799 
6749 
6733 
6702 
6707 
6716 
6705 
6690 
6743 
6766 
6738 
6826 
6957 
7140 
7349 
7409 
7313 
7204 
6947 
6654 
6501 
6504 
6541 
6569 
6618 
6706 
6704 
6734 
6722 
6730 
6760 
6750 
6737 
6716 
6733 
6789 
6797 
6772 
6787 
6774 
6762 
6777 
6803 
6828 
6806 
6800 
6808 
6775 
6774 
6753 
6787 
6794 
6816 
6827 
6836 
6870 
6884 
6885 
6915 
6946 
6961 
6953 
6983 
7011 
7029 
7032 
6989 
7023 
6985 
6984 
6956 
6951 
6932 
6882 
6872 
6900 
6879 
6814 
6768 
6766 
6713 
6692 
6692 
6690 
6669 
6700 
6677 
6698 
6710 
6687 
6668 
6686 
6723 
6775 
6722 
6676 
6659 
6689 
6667 
6649 
6676 
6690 
6656 
6634 
6637 
6676 
6677 
6661 
6702 
6720 
6705 
6639 
6661 
6726 
6697 
6682 
6659 
6735 
6703 
6643 
6645 
6674 
6692 
6658 
6655 
6706 
6711 
6742 
6732 
6673 
6711 
6689 
6687 
6754 
6766 
6721 
6722 
6703 
6721 
6733 
6720 
6738 
6744 
6762 
6735 
6695 
6715 
6702 
6683 
6659 
6670 
6696 
6669 
6696 
6717 
6695 
6674 
6660 
6675 
6686 
6744 
6688 
6704 
6683 
6683 
6620 
6662 
6829 
6960 
7117 
7365 
7395 
7241 
7111 
6835 
6606 
6540 
6539 
6535 
6574 
6649 
6672 
6651 
6694 
6692 
6700 
6697 
6717 
6760 
6759 
6700 
6704 
6725 
6757 
6742 
6730 
6766 
6796 
6713 
6711 
6771 
6804 
6800 
6755 
6774 
6795 
6809 
6801 
6801 
6825 
6829 
6814 
6797 
6875 
6914 
6896 
6888 
6921 
6963 
6952 
6950 
6937 
6947 
6972 
6939 
6939 
6925 
6883 
6858 
6853 
6870 
6845 
6788 
6760 
6744 
6741 
6723 
6708 
6689 
6726 
6735 
6694 
6704 
6703 
6686 
6684 
6687 
6698 
6670 
6683 
6684 
6682 
6690 
6673 
6671 
6692 
6721 
6723 
6681 
6670 
6672 
6686 
6685 
6688 
6741 
6697 
6683 
6702 
6703 
6699 
6663 
6711 
6671 
6668 
6697 
6671 
6676 
6681 
6687 
6708 
6715 
6693 
6684 
6678 
6727 
6713 
6721 
6706 
6725 
6717 
6709 
6690 
6713 
6713 
6707 
6729 
6699 
6734 
6757 
6695 
6717 
6752 
6754 
6727 
6711 
6749 
6730 
6747 
6737 
6730 
6696 
6687 
6693 
6691 
6680 
6671 
6704 
6707 
6705 
6691 
6679 
6679 
6685 
6660 
6665 
6662 
6764 
6910 
7051 
7316 
7432 
7362 
7217 
7042 
6698 
6575 
6540 
6534 
6600 
6652 
6685 
6714 
6711 
6749 
6720 
6682 
6706 
6699 
6699 
6707 
6690 
6720 
6736 
6746 
6772 
6777 
6753 
6753 
6746 
6766 
6735 
6727 
6756 
6784 
6797 
6797 
6789 
6822 
6823 
6842 
6815 
6849 
6909 
6941 
6888 
6913 
6930 
6923 
6928 
6937 
6993 
7001 
6969 
6955 
7000 
6977 
6903 
6887 
6908 
6873 
6793 
6802 
6795 
6780 
6746 
6745 
6712 
6723 
6725 
6722 
6714 
6710 
6714 
6708 
6713 
6722 
6739 
6682 
6688 
6703 
6671 
6638 
6635 
6665 
6683 
6688 
6703 
6717 
6703 
6693 
6669 
6722 
6761 
6690 
6648 
6644 
6658 
6669 
6673 
6673 
6659 
6668 
6688 
6691 
6721 
6740 
6672 
6679 
6699 
6716 
6673 
6625 
6692 
6706 
6700 
6653 
6686 
6680 
6678 
6717 
6727 
6699 
6664 
6683 
6654 
6699 
6688 
6665 
6669 
6692 
6705 
6686 
6697 
6740 
6717 
6701 
6718 
6763 
6786 
6750 
6704 
6684 
6676 
6665 
6677 
6683 
6674 
6693 
6706 
6696 
6701 
6686 
6633 
6620 
6651 
6680 
6670 
6618 
6610 
6687 
6882 
7009 
7237 
7448 
7383 
7234 
7074 
6754 
6538 
6482 
6521 
6568 
6620 
6638 
6670 
6693 
6659 
6649 
6653 
6686 
6674 
6661 
6703 
6707 
6688 
6675 
6671 
6713 
6686 
6667 
6677 
6717 
6718 
6709 
6715 
6680 
6697 
6701 
6716 
6767 
6766 
6779 
6766 
6813 
6796 
6795 
6771 
6787 
6850 
6876 
6871 
6862 
6883 
6901 
6919 
6894 
6911 
6918 
6868 
6841 
6859 
6861 
6789 
6740 
6708 
6724 
6732 
6690 
6672 
6648 
6630 
6630 
6616 
6687 
6588 
6558 
6570 
6658 
6676 
6590 
6549 
6568 
6584 
6597 
6590 
6611 
6616 
6625 
6613 
6578 
6600 
6620 
6578 
6606 
6601 
6602 
6579 
6580 
6617 
6624 
6583 
6611 
6635 
6617 
6589 
6592 
6602 
6590 
6552 
6580 
6617 
6585 
6597 
6610 
6602 
6604 
6621 
6610 
6595 
6637 
6602 
6578 
6566 
6581 
6609 
6616 
6573 
6555 
6602 
6570 
6575 
6608 
6609 
6590 
6553 
6560 
6598 
6609 
6601 
6594 
6616 
6608 
6595 
6603 
6613 
6624 
6576 
6541 
6601 
6571 
6557 
6533 
6559 
6576 
6632 
6574 
6499 
6509 
6544 
6543 
6572 
6575 
6518 
6463 
6513 
6621 
6758 
6901 
7123 
7328 
7273 
7045 
6918 
6658 
6421 
6364 
6350 
6428 
6492 
6512 
6519 
6569 
6518 
6532 
6549 
6574 
6537 
6519 
6516 
6548 
6555 
6559 
6587 
6579 
6574 
6538 
6537 
6540 
6606 
6597 
6565 
6578 
6597 
6607 
6616 
6585 
6579 
6648 
6669 
6653 
6646 
6643 
6680 
6693 
6671 
6724 
6769 
6756 
6744 
6790 
6748 
6771 
6728 
6739 
6768 
6752 
6696 
6713 
6706 
6637 
6553 
6566 
6536 
6527 
6528 
6526 
6488 
6467 
6476 
6496 
6531 
6422 
6392 
6441 
6511 
6463 
6410 
6423 
6458 
6438 
6410 
6421 
6478 
6461 
6442 
6451 
6442 
6460 
6457 
6407 
6421 
6454 
6426 
6420 
6433 
6457 
6431 
6415 
6426 
6454 
6449 
6438 
6389 
6421 
6437 
6421 
6391 
6416 
6455 
6429 
6421 
6436 
6460 
6446 
6452 
6434 
6454 
6433 
6425 
6420 
6455 
6430 
6395 
6465 
6515 
6463 
6435 
6460 
6435 
6446 
6454 
6418 
6433 
6441 
6416 
6368 
6433 
6448 
6436 
6409 
6406 
6458 
6479 
6443 
6406 
6461 
6452 
6422 
6406 
6442 
6563 
6621 
6759 
6964 
7070 
6938 
6839 
6659 
6386 
6313 
6276 
6303 
6334 
6376 
6426 
6435 
6448 
6473 
6428 
6449 
6438 
6445 
6409 
6469 
6507 
6533 
6524 
6485 
6517 
6567 
6556 
6498 
6530 
6530 
6507 
6491 
6533 
6568 
6541 
6531 
6569 
6598 
6577 
6594 
6578 
6610 
6627 
6625 
6634 
6705 
6726 
6689 
6679 
6708 
6705 
6698 
6704 
6706 
6680 
6667 
6651 
6631 
6638 
6582 
6545 
6522 
6512 
6489 
6493 
6478 
6446 
6457 
6453 
6438 
6425 
6454 
6429 
6438 
6433 
6441 
6442 
6462 
6420 
6430 
6449 
6462 
6448 
6435 
6417 
6403 
6405 
6427 
6449 
6426 
6470 
6456 
6442 
6417 
6441 
6426 
6459 
6452 
6435 
6468 
6492 
6475 
6427 
6448 
6463 
6476 
6470 
6456 
6481 
6429 
6420 
6447 
6479 
6436 
6387 
6421 
6457 
6464 
6419 
6408 
6474 
6511 
6497 
6480 
6475 
6468 
6495 
6481 
6479 
6514 
6474 
6423 
6431 
6463 
6469 
6438 
6423 
6440 
6459 
6413 
6425 
6459 
6451 
6417 
6419 
6437 
6432 
6415 
6417 
6420 
6506 
6612 
6730 
6930 
7092 
7028 
6895 
6703 
6463 
6323 
6291 
6272 
6332 
6439 
6461 
6466 
6454 
6420 
6408 
6469 
6487 
6473 
6502 
6455 
6486 
6485 
6487 
6468 
6508 
6504 
6495 
6457 
6473 
6468 
6464 
6473 
6538 
6518 
6525 
6520 
6536 
6560 
6566 
6532 
6562 
6599 
6594 
6618 
6569 
6589 
6604 
6642 
6644 
6672 
6663 
6637 
6622 
6697 
6705 
6653 
6632 
6628 
6621 
6577 
6517 
6547 
6527 
6520 
6439 
6441 
6491 
6509 
6473 
6454 
6473 
6478 
6444 
6437 
6437 
6447 
6466 
6444 
6447 
6493 
6461 
6423 
6444 
6451 
6459 
6423 
6459 
6493 
6461 
6453 
6431 
6451 
6452 
6463 
6432 
6455 
6479 
6445 
6456 
6443 
6455 
6454 
6431 
6431 
6437 
6479 
6463 
6465 
6514 
6524 
6397 
6390 
6484 
6467 
6428 
6409 
6476 
6487 
6452 
6434 
6503 
6481 
6468 
6428 
6462 
6488 
6466 
6459 
6506 
6518 
6494 
6499 
6514 
6496 
6452 
6449 
6482 
6508 
6459 
6422 
6441 
6469 
6470 
6485 
6457 
6460 
6501 
6472 
6459 
6424 
6453 
6447 
6397 
6497 
6665 
6801 
6978 
7106 
7036 
6905 
6775 
6550 
6390 
6310 
6300 
6345 
6412 
6458 
6489 
6464 
6511 
6502 
6462 
6460 
6499 
6536 
6508 
6513 
6521 
6537 
6550 
6523 
6503 
6498 
6525 
6550 
6557 
6529 
6528 
6528 
6555 
6623 
6639 
6579 
6566 
6574 
6621 
6614 
6596 
6628 
6666 
6665 
6652 
6670 
6687 
6713 
6716 
6724 
6759 
6758 
6714 
6718 
6702 
6700 
6688 
6665 
6616 
6618 
6629 
6605 
6604 
6602 
6569 
6551 
6539 
6562 
6516 
6505 
6522 
6533 
6558 
6536 
6508 
6607 
6545 
6503 
6527 
6551 
6541 
6498 
6486 
6528 
6554 
6526 
6507 
6508 
6506 
6509 
6496 
6526 
6542 
6521 
6520 
6527 
6531 
6532 
6489 
6519 
6545 
6553 
6472 
6479 
6521 
6514 
6498 
6525 
6458 
6456 
6505 
6512 
6493 
6479 
6510 
6503 
6495 
6510 
6513 
6493 
6489 
6523 
6498 
6471 
6460 
6550 
6509 
6459 
6541 
6568 
6511 
6560 
6553 
6551 
6514 
6494 
6466 
6504 
6516 
6555 
6518 
6491 
6481 
6485 
6464 
6493 
6493 
6438 
6433 
6458 
6495 
6461 
6392 
6452 
6555 
6713 
6864 
7099 
7204 
7102 
6919 
6737 
6453 
6363 
6349 
6311 
6385 
6426 
6418 
6464 
6470 
6446 
6463 
6476 
6481 
6492 
6511 
6511 
6483 
6496 
6503 
6519 
6499 
6509 
6538 
6550 
6446 
6486 
6538 
6511 
6525 
6529 
6520 
6550 
6544 
6556 
6565 
6615 
6629 
6560 
6617 
6595 
6617 
6625 
6636 
6663 
6642 
6651 
6665 
6675 
6650 
6656 
6677 
6690 
6646 
6620 
6601 
6620 
6602 
6503 
6433 
6468 
6446 
6423 
6389 
6399 
6405 
6389 
6385 
6400 
6388 
6394 
6383 
6430 
6456 
6397 
6354 
6350 
6378 
6384 
6340 
6389 
6420 
6408 
6354 
6392 
6405 
6429 
6333 
6355 
6416 
6392 
6369 
6356 
6409 
6404 
6339 
6333 
6374 
6365 
6329 
6343 
6390 
6370 
6370 
6361 
6362 
6344 
6380 
6346 
6364 
6376 
6383 
6370 
6366 
6344 
6325 
6400 
6383 
6325 
6335 
6321 
6329 
6342 
6376 
6353 
6346 
6384 
6390 
6384 
6367 
6333 
6335 
6354 
6353 
6284 
6294 
6296 
6289 
6293 
6302 
6302 
6287 
6273 
6288 
6293 
6236 
6292 
6284 
6311 
6375 
6477 
6647 
6868 
7008 
6961 
6803 
6636 
6303 
6128 
6109 
6112 
6167 
6198 
6220 
6240 
6231 
6262 
6268 
6247 
6293 
6258 
6224 
6278 
6285 
6295 
6300 
6253 
6260 
6310 
6265 
6273 
6328 
6314 
6265 
6262 
6266 
6298 
6297 
6320 
6317 
6348 
6335 
6319 
6323 
6349 
6369 
6399 
6435 
6426 
6387 
6367 
6464 
6491 
6446 
6467 
6470 
6467 
6467 
6427 
6377 
6384 
6371 
6336 
6294 
6313 
6304 
6263 
6237 
6207 
6212 
6160 
6189 
6171 
6131 
6143 
6130 
6152 
6157 
6134 
6146 
6132 
6144 
6166 
6113 
6122 
6126 
6135 
6134 
6094 
6085 
6132 
6130 
6123 
6153 
6133 
6101 
6091 
6135 
6128 
6098 
6068 
6115 
6121 
6089 
6089 
6110 
6128 
6113 
6099 
6095 
6096 
6107 
6106 
6065 
6071 
6124 
6104 
6094 
6119 
6120 
6071 
6056 
6066 
6090 
6116 
6114 
6071 
6096 
6095 
6064 
6111 
6140 
6160 
6121 
6099 
6131 
6151 
6085 
6062 
6107 
6084 
6074 
6066 
6113 
6103 
6074 
6049 
6057 
6087 
6097 
6056 
6061 
6071 
6050 
6022 
6019 
6028 
6123 
6208 
6376 
6665 
6870 
6786 
6633 
6453 
6129 
5898 
5861 
5898 
5933 
5982 
6047 
6102 
6092 
6074 
6057 
6094 
6093 
6094 
6063 
6092 
6109 
6107 
6124 
6094 
6092 
6130 
6140 
6124 
6127 
6159 
6119 
6141 
6190 
6202 
6167 
6157 
6171 
6201 
6212 
6195 
6230 
6249 
6226 
6263 
6340 
6300 
6309 
6323 
6364 
6407 
6342 
6322 
6336 
6370 
6339 
6332 
6317 
6296 
6305 
6254 
6233 
6212 
6212 
6182 
6149 
6141 
6148 
6112 
6057 
6090 
6120 
6124 
6092 
6069 
6082 
6102 
6092 
6076 
6077 
6093 
6086 
6090 
6118 
6139 
6086 
6086 
6102 
6080 
6093 
6104 
6103 
6113 
6105 
6064 
6057 
6080 
6111 
6109 
6141 
6142 
6091 
6092 
6128 
6156 
6125 
6116 
6111 
6112 
6091 
6105 
6122 
6131 
6158 
6148 
6090 
6118 
6148 
6143 
6111 
6133 
6145 
6177 
6157 
6119 
6144 
6166 
6180 
6156 
6182 
6211 
6198 
6149 
6164 
6163 
6168 
6167 
6138 
6120 
6151 
6167 
6118 
6149 
6143 
6151 
6124 
6146 
6147 
6109 
6149 
6159 
6218 
6210 
6177 
6165 
6222 
6230 
6215 
6197 
6204 
6240 
6215 
6203 
6232 
6289 
6259 
6233 
6235 
6242 
6254 
6297 
6345 
6345 
6310 
6279 
6335 
6384 
6371 
6409 
6395 
6406 
6426 
6455 
6451 
6461 
6468 
6437 
6417 
6454 
6461 
6451 
6406 
6382 
6387 
6362 
6328 
6317 
6288 
6254 
6237 
6228 
6241 
6216 
6200 
6176 
6209 
6245 
6236 
6227 
6192 
6179 
6175 
6178 
6198 
6228 
6190 
6190 
6218 
6209 
6191 
6164 
6175 
6230 
6214 
6199 
6217 
6200 
6193 
6199 
6234 
6187 
6182 
6213 
6177 
6205 
6215 
6211 
6181 
6201 
6200 
6182 
6193 
6216 
6193 
6166 
6145 
6175 
6196 
6193 
6188 
6185 
6227 
6268 
6209 
6198 
6223 
6202 
6198 
6184 
6227 
6253 
6237 
6257 
6262 
6262 
6243 
6216 
6200 
6213 
6213 
6196 
6223 
6202 
6201 
6194 
6193 
6161 
6223 
6243 
6209 
6224 
6275 
6250 
6228 
6229 
6218 
6256 
6274 
6269 
6258 
6247 
6231 
6226 
6259 
6260 
6257 
6288 
6309 
6343 
6328 
6332 
6328 
6345 
6337 
6364 
6396 
6409 
6465 
6468 
6496 
6574 
6559 
6528 
6439 
6355 
6311 
6293 
6284 
6272 
6262 
6278 
6279 
6211 
6168 
6186 
6195 
6210 
6187 
6204 
6195 
6131 
6126 
6140 
6146 
6191 
6176 
6167 
6148 
6173 
6200 
6192 
6231 
6211 
6189 
6199 
6195 
6178 
6101 
6095 
6136 
6174 
6195 
6180 
6171 
6172 
6216 
6213 
6180 
6196 
6202 
6166 
6185 
6172 
6192 
6150 
6160 
6198 
6201 
6182 
6166 
6178 
6170 
6119 
6153 
6183 
6235 
6219 
6205 
6216 
6194 
6233 
6187 
6203 
6225 
6197 
6194 
6203 
6208 
6141 
6221 
6161 
6202 
6196 
6190 
6217 
6157 
6181 
6241 
6227 
6244 
6239 
6252 
6254 
6250 
6268 
6285 
6306 
6324 
6364 
6385 
6316 
6302 
6306 
6357 
6402 
6354 
6416 
6392 
6382 
6357 
6371 
6364 
6381 
6364 
6287 
6273 
6235 
6248 
6221 
6147 
6150 
6125 
6113 
6165 
6202 
6182 
6129 
6115 
6142 
6119 
6110 
6180 
6143 
6128 
6107 
6091 
6080 
6122 
6128 
6133 
6146 
6136 
6133 
6118 
6157 
6164 
6068 
6096 
6121 
6111 
6064 
6067 
6110 
6106 
6138 
6145 
6153 
6138 
6123 
6097 
6112 
6126 
6132 
6101 
6094 
6110 
6102 
6096 
6118 
6148 
6148 
6106 
6074 
6081 
6107 
6171 
6182 
6170 
6168 
6154 
6105 
6117 
6111 
6063 
6055 
6057 
6103 
6141 
6086 
6051 
6079 
6098 
6081 
6060 
6063 
6106 
6049 
6021 
6084 
6062 
6075 
6086 
6097 
6088 
6105 
6080 
6054 
6128 
6145 
6147 
6136 
6135 
6168 
6210 
6144 
6119 
6120 
6147 
6160 
6143 
6191 
6241 
6280 
6269 
6256 
6257 
6282 
6306 
6289 
6281 
6278 
6265 
6245 
6287 
6248 
6185 
6148 
6142 
6131 
6074 
6082 
6088 
6040 
6021 
6061 
6063 
6033 
5996 
5974 
5959 
5957 
5982 
5983 
6027 
6026 
6007 
6006 
5982 
5974 
6022 
6038 
5981 
5974 
5967 
5955 
5919 
5967 
6025 
6005 
6000 
5942 
5970 
6007 
5994 
5972 
6027 
6019 
5964 
5990 
6012 
5997 
5964 
5943 
5981 
5944 
5944 
5964 
6011 
6066 
5961 
5921 
5979 
5990 
5999 
6012 
6010 
6043 
6043 
6005 
5944 
5974 
6021 
5969 
5977 
5990 
5971 
5915 
5911 
5918 
5947 
5892 
5904 
5910 
5928 
5913 
5946 
5929 
5995 
5948 
5969 
6003 
6000 
6029 
6031 
6069 
6082 
6092 
6079 
6051 
6145 
6138 
6140 
6153 
6139 
6134 
6126 
6136 
6105 
6086 
6079 
6077 
6108 
6096 
6058 
6068 
5998 
5944 
5933 
5948 
5952 
5942 
5856 
5809 
5819 
5809 
5826 
5850 
5866 
5910 
5897 
5842 
5815 
5842 
5869 
5899 
5879 
5782 
5817 
5834 
5852 
5860 
5833 
5851 
5812 
5795 
5854 
5916 
5863 
5830 
5832 
5848 
5885 
5867 
5869 
5823 
5802 
5824 
5829 
5865 
5832 
5798 
5814 
5830 
5826 
5858 
5925 
5876 
5828 
5780 
5843 
5887 
5908 
5884 
5893 
5899 
5860 
5822 
5854 
5842 
5834 
5832 
5863 
5802 
5810 
5836 
5840 
5835 
5818 
5784 
5748 
5795 
5876 
5807 
5723 
5745 
5843 
5845 
5767 
5784 
5957 
6124 
6411 
6637 
6598 
6421 
6228 
5813 
5835 
5809 
5766 
5811 
5796 
5804 
5783 
5829 
5866 
5806 
5797 
5820 
5866 
5884 
5824 
5792 
5784 
5825 
5828 
5831 
5873 
5889 
5902 
5898 
5902 
5948 
5954 
5880 
5913 
5983 
6001 
6013 
6015 
6018 
6010 
6044 
6031 
6059 
6040 
5999 
6008 
6017 
6033 
6019 
5921 
5906 
5902 
5874 
5894 
5843 
5803 
5768 
5765 
5760 
5755 
5697 
5696 
5739 
5777 
5764 
5728 
5750 
5792 
5827 
5753 
5701 
5713 
5788 
5744 
5692 
5700 
5721 
5726 
5736 
5754 
5761 
5733 
5729 
5755 
5723 
5724 
5664 
5691 
5735 
5735 
5709 
5713 
5750 
5771 
5768 
5723 
5717 
5708 
5717 
5735 
5708 
5698 
5702 
5663 
5656 
5681 
5672 
5680 
5729 
5771 
5754 
5780 
5798 
5830 
5780 
5739 
5700 
5680 
5696 
5728 
5698 
5676 
5701 
5669 
5600 
5599 
5652 
5695 
5663 
5655 
5679 
5649 
5621 
5619 
5638 
5594 
5700 
5892 
6151 
6415 
6534 
6368 
6158 
5864 
5542 
5431 
5434 
5412 
5466 
5545 
5593 
5622 
5563 
5557 
5569 
5558 
5535 
5547 
5558 
5510 
5517 
5528 
5533 
5520 
5565 
5549 
5504 
5519 
5551 
5526 
5485 
5511 
5525 
