45910 
45947 
45936 
45851 
45816 
45820 
45798 
45748 
45728 
45714 
45716 
45733 
45756 
45772 
45730 
45644 
45594 
45551 
45538 
45574 
45565 
45541 
45527 
45496 
45541 
45567 
45518 
45517 
45538 
45600 
45640 
45699 
45685 
45646 
45567 
45518 
45569 
45639 
45651 
45628 
45637 
45638 
45588 
45540 
45544 
45555 
45579 
45541 
45549 
45500 
45468 
45483 
45493 
45528 
45587 
45592 
45617 
45645 
45663 
45634 
45614 
45611 
45619 
45626 
45637 
45616 
45660 
45717 
45729 
45701 
45671 
45679 
45679 
45673 
45732 
45738 
45697 
45691 
45690 
45675 
45679 
45737 
45826 
45829 
45780 
45762 
45805 
45796 
45771 
45817 
45866 
45909 
45921 
45945 
45946 
45948 
45949 
45944 
45931 
45898 
45922 
46003 
46009 
46021 
46052 
46099 
46114 
46084 
46066 
46110 
46107 
46089 
46090 
46129 
46151 
46122 
46096 
46176 
46160 
46179 
46149 
46148 
46200 
46168 
46152 
46092 
46076 
46068 
46110 
46167 
46246 
46294 
46318 
46317 
46298 
46299 
46299 
46316 
46328 
46354 
46372 
46363 
46309 
46229 
46220 
46262 
46316 
46317 
46336 
46329 
46374 
46441 
46466 
46488 
46494 
46495 
46494 
46496 
46488 
46430 
46452 
46483 
46437 
46406 
46377 
46421 
46463 
46485 
46497 
46486 
46513 
46486 
46524 
46602 
46611 
46550 
46515 
46502 
46466 
46480 
46463 
46472 
46446 
46397 
46316 
46288 
46283 
46291 
46319 
46316 
46320 
46288 
46259 
46212 
46163 
46169 
46175 
46169 
46124 
46120 
46116 
46102 
46087 
46065 
46030 
46038 
46026 
45975 
45977 
45981 
45924 
45921 
45928 
45886 
45848 
45819 
45796 
45787 
45766 
45773 
45755 
45792 
45808 
45769 
45736 
45715 
45737 
45767 
45777 
45684 
45644 
45635 
45654 
45717 
45692 
45653 
45619 
45598 
45626 
45697 
45764 
45717 
45647 
45618 
45603 
45648 
45628 
45634 
45688 
45748 
45811 
45847 
45799 
45720 
45696 
45693 
45696 
45757 
45832 
45836 
45800 
45806 
45827 
45838 
45796 
45756 
45783 
45850 
45901 
45907 
45921 
45938 
45946 
45973 
45934 
45899 
45907 
45960 
46006 
45986 
45966 
45947 
45932 
45904 
45861 
45896 
45923 
45972 
46033 
46056 
46111 
46112 
46086 
46068 
46023 
46011 
46072 
46122 
46103 
46139 
46167 
46194 
46201 
46186 
46174 
46153 
46203 
46275 
46331 
46362 
46361 
46363 
46348 
46357 
46362 
46431 
46459 
46522 
46550 
46512 
46484 
46462 
46492 
46485 
46518 
46537 
46523 
46515 
46568 
46610 
46635 
46693 
46723 
46699 
46651 
46649 
46609 
46646 
46632 
46601 
46630 
46681 
46667 
46659 
46637 
46641 
46641 
46644 
46695 
46735 
46789 
46822 
46777 
46757 
46740 
46737 
46784 
46814 
46877 
46934 
46917 
46829 
46779 
46803 
46771 
46778 
46889 
46905 
46801 
46756 
46777 
46776 
46826 
46861 
46910 
46892 
46822 
46813 
46783 
46774 
46848 
46940 
46965 
46956 
46935 
46910 
46863 
46809 
46808 
46768 
46746 
46758 
46759 
46688 
46670 
46724 
46747 
46782 
46811 
46800 
46772 
46770 
46800 
46817 
46815 
46758 
46739 
46771 
46763 
46740 
46693 
46655 
46624 
46604 
46539 
46510 
46508 
46490 
46456 
46458 
46432 
46374 
46322 
46307 
46292 
46314 
46366 
46348 
46323 
46273 
46233 
46180 
46137 
46094 
46113 
46113 
46129 
46117 
46059 
46070 
46082 
46070 
46068 
46043 
46031 
46025 
46036 
46052 
46072 
46068 
46050 
46022 
45997 
45982 
46006 
46064 
46123 
46042 
45957 
45914 
45886 
45847 
45853 
45871 
45913 
45883 
45856 
45866 
45922 
45979 
45992 
45986 
45991 
45987 
45930 
45902 
45910 
45913 
45921 
45911 
45925 
45970 
45997 
46015 
46027 
46004 
46021 
45988 
45929 
45893 
45959 
46007 
45995 
46017 
46020 
46027 
46042 
46034 
46041 
46078 
46071 
46063 
46114 
46144 
46190 
46200 
46169 
46177 
46163 
46138 
46121 
46090 
46092 
46161 
46250 
46289 
46298 
46301 
46283 
46263 
46258 
46260 
46292 
46331 
46353 
46352 
46336 
46314 
46326 
46405 
46453 
46483 
46473 
46433 
46450 
46470 
46458 
46497 
46465 
46441 
46430 
46478 
46520 
46488 
46497 
46553 
46564 
46541 
46577 
46585 
46611 
46635 
46633 
46646 
46707 
46742 
46717 
46677 
46681 
46706 
46674 
46632 
46643 
46681 
46722 
46775 
46798 
46739 
46668 
46622 
46632 
46769 
46863 
46883 
46886 
46898 
46919 
46902 
46881 
46847 
46896 
46883 
46889 
46881 
46851 
46840 
46822 
46774 
46793 
46787 
46807 
46836 
46857 
46829 
46854 
46853 
46867 
46932 
46959 
46941 
46904 
46894 
46908 
46935 
46957 
46961 
47002 
47040 
47012 
46998 
46984 
46997 
47041 
47037 
47007 
47003 
47087 
47143 
47182 
47173 
47168 
47182 
47140 
47150 
47184 
47137 
47130 
47109 
47097 
47110 
47137 
47144 
47145 
47063 
47018 
47008 
47026 
47017 
46983 
46935 
46900 
46932 
46958 
46937 
46902 
46845 
46780 
46773 
46772 
46760 
46770 
46722 
46676 
46639 
46592 
46575 
46565 
46570 
46631 
46629 
46584 
46540 
46454 
46460 
46463 
46434 
46413 
46381 
46396 
46395 
46347 
46325 
46301 
46290 
46289 
46297 
46316 
46355 
46282 
46225 
46225 
46256 
46307 
46306 
46263 
46323 
46373 
46305 
46224 
46149 
46064 
46090 
46133 
46197 
46256 
46285 
46303 
46311 
46324 
46327 
46312 
46289 
46276 
46260 
46269 
46346 
46403 
46390 
46411 
46474 
46433 
46404 
46391 
46380 
46408 
46369 
46369 
46407 
46392 
46415 
46478 
46558 
46558 
46536 
46506 
46458 
46433 
46441 
46430 
46431 
46438 
46502 
46528 
46546 
46562 
46595 
46621 
46621 
46646 
46676 
46684 
46643 
46578 
46519 
46478 
46468 
46472 
46494 
46543 
46575 
46553 
46566 
46583 
46611 
46640 
46665 
46641 
46619 
46635 
46638 
46639 
46651 
46651 
46675 
46697 
46765 
46808 
46759 
46673 
46609 
46630 
46680 
46706 
46753 
46829 
46831 
46772 
46725 
46666 
46668 
46682 
46703 
46743 
46748 
46725 
46696 
46718 
46720 
46713 
46724 
46721 
46723 
46737 
46746 
46733 
46738 
46766 
46763 
46699 
46634 
46665 
46767 
46794 
46773 
46739 
46767 
46828 
46844 
46875 
46909 
46879 
46880 
46924 
46931 
46868 
46851 
46830 
46867 
46868 
46871 
46883 
46878 
46877 
46886 
46888 
46871 
46814 
46836 
46867 
46867 
46910 
46941 
46914 
46910 
46885 
46899 
46932 
46911 
46909 
46902 
46907 
46988 
46985 
46960 
46989 
46953 
46903 
46916 
46927 
46937 
46927 
46895 
46929 
46959 
46945 
46918 
46908 
46906 
46899 
46907 
46874 
46837 
46828 
46787 
46790 
46753 
46676 
46614 
46607 
46638 
46652 
46679 
46685 
46646 
46574 
46518 
46470 
46463 
46488 
46440 
46417 
46444 
46456 
46441 
46432 
46412 
46411 
46404 
46342 
46273 
46268 
46283 
46280 
46226 
46229 
46275 
46304 
46300 
46293 
46250 
46231 
46217 
46194 
46184 
46187 
46157 
46080 
46042 
46010 
46043 
46043 
46056 
46055 
45984 
45951 
45959 
46002 
46019 
46040 
46065 
46095 
46096 
46033 
45997 
46019 
46052 
46074 
46057 
46060 
46061 
46005 
46046 
46041 
45979 
45988 
45991 
46004 
45995 
45998 
46029 
46078 
46092 
46093 
46079 
46048 
46020 
46003 
46033 
46071 
46081 
46087 
46079 
46051 
46068 
46123 
46140 
46092 
46075 
46106 
46161 
46233 
46253 
46230 
46245 
46252 
46268 
46270 
46293 
46245 
46137 
46160 
46186 
46166 
46154 
46180 
46223 
46281 
46334 
46365 
46346 
46317 
46325 
46329 
46345 
46403 
46485 
46498 
46458 
46424 
46370 
46302 
46236 
46285 
46353 
46415 
46486 
46463 
46456 
46542 
46571 
46575 
46557 
46514 
46489 
46539 
46571 
46621 
46658 
46613 
46608 
46656 
46648 
46632 
46647 
46644 
46638 
46639 
46646 
46622 
46612 
46601 
46650 
46694 
46679 
46656 
46678 
46683 
46646 
46637 
46656 
46715 
46739 
46700 
46708 
46703 
46695 
46717 
46760 
46757 
46702 
46699 
46685 
46713 
46733 
46698 
46713 
46720 
46716 
46712 
46694 
46722 
46707 
46701 
46710 
46625 
46576 
46608 
46635 
46581 
46547 
46577 
46581 
46579 
46586 
46566 
46487 
46400 
46370 
46382 
46361 
46344 
46330 
46297 
46283 
46366 
46410 
46338 
46299 
46237 
46220 
46221 
46182 
46137 
46134 
46167 
46169 
46192 
46177 
46172 
46190 
46192 
46170 
46122 
46135 
46192 
46206 
46205 
46199 
46198 
46177 
46151 
46133 
46067 
46097 
46161 
46189 
46186 
46183 
46180 
46197 
46212 
46130 
46106 
46132 
46092 
46021 
46012 
46052 
46100 
46131 
46112 
46124 
46127 
46097 
46184 
46230 
46220 
46180 
46164 
46138 
46116 
46127 
46169 
46196 
46200 
46226 
46233 
46217 
46277 
46304 
46280 
46241 
46233 
46267 
46304 
46287 
46265 
46282 
46321 
46352 
46316 
46297 
46334 
46366 
46369 
46364 
46410 
46487 
46530 
46499 
46490 
46439 
46438 
46461 
46452 
46431 
46480 
46510 
46555 
46604 
46669 
46668 
46617 
46552 
46539 
46505 
46474 
46520 
46586 
46603 
46652 
46662 
46638 
46607 
46641 
46601 
46604 
46613 
46593 
46572 
46624 
46707 
46715 
46714 
46677 
46652 
46632 
46643 
46677 
46680 
46702 
46685 
46667 
46664 
46673 
46703 
46722 
46708 
46645 
46640 
46710 
46723 
46700 
46693 
46705 
46736 
46760 
46766 
46760 
46771 
46818 
46852 
46879 
46913 
46903 
46898 
46848 
46793 
46773 
46791 
46850 
46861 
46808 
46780 
46820 
46852 
46820 
46784 
46749 
46703 
46728 
46767 
46795 
46753 
46752 
46769 
46778 
46784 
46801 
46766 
46709 
46707 
46720 
46742 
46758 
46743 
46711 
46655 
46628 
46549 
46454 
46435 
46497 
46518 
46479 
46441 
46443 
46432 
46452 
46474 
46443 
46403 
46337 
46344 
46332 
46302 
46277 
46253 
46221 
46226 
46253 
46265 
46242 
46133 
46139 
46219 
46279 
46306 
46291 
46246 
46160 
46127 
46130 
46170 
46148 
46113 
46097 
46060 
46083 
46093 
46056 
46037 
46070 
46039 
46024 
45979 
45973 
45993 
46007 
46011 
46043 
46074 
46041 
46039 
46053 
46087 
46121 
46157 
46224 
46257 
46259 
46262 
46265 
46240 
46275 
46292 
46288 
46298 
46329 
46336 
46337 
46347 
46378 
46344 
46315 
46303 
46303 
46343 
46387 
46387 
46312 
46295 
46331 
46350 
46342 
46374 
46412 
46412 
46441 
46493 
46496 
46483 
46495 
46455 
46394 
46360 
46373 
46393 
46438 
46425 
46419 
46454 
46477 
46461 
46477 
46543 
46553 
46514 
46495 
46514 
46542 
46516 
46502 
46497 
46532 
46571 
46628 
46653 
46645 
46609 
46621 
46604 
46556 
46592 
46614 
46614 
46645 
46717 
46789 
46798 
46797 
46784 
46775 
46734 
46715 
46763 
46798 
46824 
46806 
46823 
46857 
46870 
46881 
46896 
46897 
46899 
46946 
47010 
47036 
47024 
47019 
47048 
47064 
47079 
47107 
47066 
47026 
46998 
47011 
47025 
47051 
47073 
47038 
47009 
47035 
47031 
47001 
46929 
46948 
47029 
47071 
47135 
47159 
47157 
47132 
47132 
47124 
47080 
47091 
47168 
47192 
47130 
47103 
47130 
47239 
47264 
47238 
47280 
47282 
47291 
47279 
47285 
47315 
47342 
47354 
47401 
47472 
47442 
47432 
47414 
47407 
47374 
47305 
47286 
47246 
47250 
47238 
47210 
47175 
47162 
47202 
47264 
47282 
47274 
47241 
47212 
47142 
47062 
47001 
46978 
46964 
46942 
46927 
46879 
46802 
46828 
46898 
46867 
46797 
46740 
46715 
46725 
46773 
46736 
46711 
46692 
46614 
46560 
46626 
46639 
46635 
46598 
46584 
46550 
46547 
46505 
46445 
46418 
46406 
46382 
46321 
46300 
46274 
46260 
46269 
46274 
46312 
46325 
46337 
46310 
46316 
46316 
46325 
46328 
46320 
46352 
46343 
46356 
46365 
46346 
46311 
46270 
46286 
46358 
46396 
46392 
46399 
46374 
46333 
46332 
46392 
46420 
46425 
46465 
46452 
46404 
46393 
46405 
46436 
46506 
46506 
46478 
46512 
46566 
46593 
46613 
46652 
46753 
46777 
46749 
46704 
46671 
46625 
46658 
46656 
46616 
46633 
46707 
46719 
46788 
46872 
46909 
46953 
46969 
46983 
47034 
47044 
46967 
46928 
46923 
46979 
47048 
47048 
47053 
47031 
47003 
47010 
47051 
47057 
47071 
47088 
47160 
47184 
47150 
47156 
47128 
47084 
47095 
47126 
47160 
47144 
47115 
47147 
47208 
47243 
47213 
47193 
47235 
47272 
47267 
47287 
47304 
47333 
47330 
47314 
47303 
47282 
47288 
47266 
47249 
47207 
47210 
47236 
47217 
47224 
47252 
47246 
47214 
47204 
47199 
47219 
47215 
47198 
47230 
47239 
47194 
47127 
47101 
47099 
47082 
47145 
47174 
47189 
47143 
47095 
47151 
47227 
47222 
47205 
47215 
47238 
47223 
47181 
47150 
47154 
47151 
47200 
47193 
47105 
47079 
47072 
47061 
47054 
47079 
47111 
47105 
47123 
47080 
47022 
47021 
47039 
47047 
47066 
47040 
46969 
46908 
46866 
46819 
46823 
46800 
46740 
46679 
46655 
46677 
46703 
46693 
46689 
46718 
46726 
46686 
46643 
46585 
46569 
46518 
46484 
46465 
46418 
46419 
46366 
46338 
46366 
46400 
46386 
46329 
46288 
46294 
46315 
46324 
46333 
46318 
46329 
46354 
46325 
46259 
46220 
46223 
46209 
46197 
46126 
46051 
46043 
46047 
46027 
45992 
45993 
46032 
46083 
46152 
46194 
46094 
46021 
46020 
45996 
46009 
45994 
45992 
46020 
45993 
46037 
46079 
46060 
46026 
46000 
46006 
45994 
45989 
46004 
46013 
46046 
46077 
46106 
46132 
46109 
46116 
46125 
46103 
46079 
46104 
46104 
46087 
46092 
46089 
46125 
46203 
46212 
46192 
46247 
46226 
46197 
46211 
46239 
46220 
46238 
46253 
46213 
46208 
46220 
46235 
46309 
46382 
46429 
46418 
46384 
46352 
46327 
46370 
46406 
46436 
46475 
46481 
46534 
46565 
46594 
46651 
46666 
46608 
46606 
46616 
46609 
46587 
46628 
46626 
46599 
46616 
46653 
46623 
46625 
46604 
46610 
46688 
46716 
46726 
46743 
46773 
46800 
46822 
46846 
46819 
46765 
46791 
46853 
46895 
46898 
46935 
46983 
46982 
46972 
46975 
46936 
46904 
46928 
46982 
47033 
47060 
47033 
47020 
47084 
47093 
47053 
46999 
46967 
46993 
47041 
47047 
47013 
47022 
47036 
47037 
47007 
46974 
46951 
46916 
46940 
46990 
47058 
47085 
47101 
47117 
47122 
47091 
47048 
47005 
46994 
46999 
46934 
46874 
46853 
46899 
46894 
46807 
46732 
46744 
46807 
46797 
46758 
46718 
46680 
46655 
46631 
46605 
46582 
46554 
46547 
46535 
46488 
46418 
46440 
46420 
46389 
46426 
46465 
46477 
46469 
46457 
46383 
46283 
46201 
46193 
46206 
46220 
46231 
46233 
46240 
46269 
46234 
46237 
46238 
46259 
46225 
46152 
46154 
46158 
46192 
46218 
46226 
46230 
46242 
46271 
46293 
46261 
46238 
46201 
46231 
46272 
46298 
46306 
46314 
46354 
46342 
46285 
46282 
46312 
46367 
46371 
46328 
46299 
46296 
46303 
46325 
46307 
46303 
46340 
46304 
46309 
46291 
46274 
46269 
46263 
46268 
46259 
46264 
46243 
46245 
46234 
46245 
46224 
46291 
46371 
46377 
46364 
46381 
46331 
46334 
46371 
46357 
46286 
46253 
46243 
46266 
46287 
46374 
46423 
46419 
46374 
46389 
46431 
46448 
46430 
46457 
46516 
46514 
46508 
46489 
46473 
46451 
46464 
46531 
46551 
46556 
46588 
46600 
46616 
46618 
46636 
46665 
46755 
46794 
46788 
46800 
46790 
46789 
46814 
46831 
46832 
46837 
46823 
46819 
46816 
46845 
46814 
46738 
46709 
46743 
46804 
46811 
46844 
46893 
46891 
46882 
46874 
46862 
46880 
46861 
46872 
46879 
46887 
46885 
46897 
46813 
46765 
46825 
46849 
46838 
46859 
46884 
46869 
46850 
46861 
46859 
46851 
46853 
46849 
46774 
46763 
46793 
46818 
46788 
46749 
46783 
46765 
46756 
46716 
46686 
46682 
46656 
46625 
46658 
46701 
46712 
46699 
46664 
46650 
46650 
46613 
46579 
46538 
46540 
46598 
46619 
46597 
46578 
46522 
46530 
46569 
46593 
46623 
46602 
46566 
46504 
46435 
46439 
46484 
46566 
46585 
46567 
46558 
46520 
46453 
46406 
46392 
46362 
46339 
46335 
46315 
46263 
46224 
46240 
46297 
46324 
46358 
46340 
46280 
46217 
46208 
46181 
46218 
46213 
46213 
46230 
46194 
46157 
46127 
46170 
46241 
46228 
46255 
46308 
46310 
46303 
46298 
46279 
46269 
46278 
46304 
46291 
46300 
46333 
46341 
46321 
46335 
46326 
46320 
46280 
46266 
46267 
46258 
46320 
46414 
46437 
46417 
46407 
46450 
46495 
46527 
46558 
46563 
46560 
46587 
46586 
46628 
46646 
46675 
46707 
46707 
46707 
46704 
46669 
46621 
46612 
46637 
46677 
46694 
46730 
46785 
46822 
46843 
46852 
46805 
46768 
46793 
46780 
46760 
46737 
46730 
46761 
46821 
46812 
46835 
46825 
46822 
46819 
46820 
46824 
46902 
46917 
46885 
46845 
46830 
46792 
46787 
46802 
46855 
46873 
46826 
46814 
46824 
46828 
46844 
46858 
46864 
46807 
46841 
46931 
46931 
46918 
46898 
46839 
46838 
46874 
46915 
46895 
46894 
46877 
46903 
46979 
46997 
46966 
46920 
46853 
46831 
46887 
46911 
46920 
46943 
46971 
46969 
46981 
46994 
46990 
46978 
46946 
46929 
46885 
46884 
46892 
46896 
46917 
46905 
46886 
46856 
46844 
46858 
46906 
46901 
46907 
46970 
47052 
47073 
47042 
47018 
47029 
47020 
47022 
47036 
47050 
46997 
46939 
46944 
46962 
47028 
47045 
47089 
47126 
47087 
47017 
46981 
47004 
47045 
47014 
46979 
47034 
47028 
47032 
47022 
47020 
47038 
46979 
46940 
46989 
47031 
47006 
47024 
47051 
47090 
47111 
47095 
47113 
47113 
47109 
47110 
47135 
47117 
47104 
47133 
47169 
47139 
47103 
47094 
47133 
47170 
47167 
47150 
47159 
47176 
47189 
47182 
47152 
47199 
47189 
47213 
47193 
47155 
47151 
47129 
47105 
47103 
47078 
47046 
47062 
47074 
47086 
47109 
47093 
47108 
47123 
47113 
47130 
47101 
47080 
47115 
47139 
47165 
47182 
47159 
47173 
47160 
47111 
47067 
47074 
47102 
47067 
47045 
47072 
47085 
47118 
47090 
46984 
46955 
46950 
46962 
46951 
47014 
47042 
47031 
47016 
47033 
47056 
47030 
47027 
47025 
47018 
47025 
47055 
47132 
47177 
47121 
47097 
47094 
47129 
47102 
47041 
47028 
47019 
47041 
47100 
47098 
47069 
47054 
47029 
47042 
47034 
47079 
47123 
47144 
47162 
47126 
47095 
47101 
47136 
47107 
47118 
47130 
47127 
47138 
47146 
47163 
47166 
47168 
47178 
47162 
47094 
47018 
47044 
47064 
47095 
47096 
47073 
47056 
47032 
47007 
46926 
46872 
46878 
46880 
46919 
46992 
46960 
46953 
46893 
46869 
46920 
46962 
46955 
46952 
46953 
46956 
46978 
46980 
46987 
46953 
46929 
46913 
46896 
46920 
46909 
46905 
46902 
46883 
46821 
46759 
46721 
46765 
46772 
46802 
46799 
46775 
46773 
46864 
46903 
46878 
46805 
46789 
46780 
46725 
46737 
46766 
46718 
46688 
46698 
46701 
46683 
46732 
46745 
46743 
46734 
46698 
46675 
46621 
46593 
46610 
46647 
46634 
46610 
46534 
46533 
46601 
46636 
46676 
46669 
46642 
46632 
46644 
46566 
46487 
46507 
46568 
46582 
46561 
46563 
46584 
46599 
46595 
46582 
46569 
46592 
46542 
46524 
46518 
46503 
46485 
46470 
46479 
46485 
46508 
46506 
46511 
46527 
46528 
46542 
46508 
46518 
46519 
46539 
46562 
46573 
46516 
46457 
46437 
46433 
46415 
46457 
46468 
46448 
46436 
46494 
46520 
46510 
46520 
46542 
46547 
46569 
46582 
46577 
46591 
46608 
46603 
46588 
46605 
46621 
46607 
46579 
46541 
46543 
46586 
46633 
46646 
46680 
46717 
46789 
46801 
46782 
46729 
46711 
46744 
46814 
46799 
46747 
46803 
46859 
46852 
46794 
46742 
46786 
46831 
46792 
46788 
46824 
46816 
46827 
46861 
46891 
46973 
46921 
46876 
46903 
46932 
46892 
46851 
46806 
46807 
46843 
46855 
46859 
46863 
46934 
47009 
46985 
46953 
46920 
46931 
46944 
46948 
46912 
46911 
46940 
46989 
47012 
47053 
47119 
47148 
47085 
47049 
47047 
47051 
47049 
47059 
47003 
46937 
46924 
46926 
46945 
47001 
47036 
47064 
47078 
47054 
47047 
47103 
47138 
47164 
47158 
47096 
47069 
47041 
47051 
47055 
47028 
47031 
47046 
47080 
47109 
47069 
47068 
47094 
47087 
47127 
47171 
47188 
47129 
47117 
47174 
47261 
47326 
47341 
47327 
47291 
47276 
47306 
47322 
47266 
47232 
47252 
47199 
47179 
47182 
47212 
47272 
47309 
47296 
47304 
47320 
47331 
47349 
47297 
47275 
47308 
47372 
47380 
47320 
47314 
47271 
47268 
47364 
47358 
47321 
47290 
47288 
47301 
47391 
47411 
47398 
47429 
47423 
47362 
47354 
47369 
47338 
47303 
47236 
47248 
47350 
47415 
47420 
47374 
47363 
47363 
47346 
47307 
47293 
47312 
47303 
47345 
47357 
47336 
47326 
47309 
47300 
47271 
47258 
47239 
47270 
47335 
47394 
47362 
47359 
47346 
47306 
47305 
47312 
47359 
47401 
47411 
47368 
47326 
47282 
47288 
47288 
47288 
47361 
47387 
47362 
47382 
47378 
47381 
47380 
47388 
47368 
47380 
47367 
47342 
47334 
47365 
47354 
47341 
47334 
47354 
47321 
47367 
47459 
47472 
47489 
47512 
47511 
47560 
47601 
47598 
47513 
47432 
47445 
47440 
47434 
47427 
47423 
47420 
47429 
47476 
47455 
47411 
47385 
47365 
47377 
47388 
47394 
47376 
47380 
47353 
47370 
47414 
47409 
47410 
47408 
47400 
47443 
47427 
47413 
47425 
47429 
47457 
47472 
47489 
47497 
47485 
47465 
47501 
47532 
47588 
47581 
47527 
47514 
47478 
47441 
47437 
47419 
47390 
47397 
47453 
47455 
47437 
47442 
47489 
47471 
47423 
47438 
47456 
47477 
47466 
47420 
47393 
47425 
47461 
47479 
47518 
47554 
47559 
47564 
47500 
47494 
47540 
47544 
47496 
47463 
47460 
47527 
47572 
47554 
47585 
47614 
47527 
47474 
47471 
47451 
47481 
47463 
47407 
47465 
47488 
47476 
47446 
47402 
47402 
47415 
47438 
47455 
47461 
47451 
47475 
47478 
47532 
47552 
47563 
47568 
47537 
47472 
47444 
47464 
47480 
47510 
47551 
47559 
47526 
47501 
47481 
47431 
47396 
47400 
47430 
47417 
47383 
47408 
47446 
47392 
47363 
47368 
47450 
47525 
47535 
47555 
47565 
47575 
47525 
47436 
47470 
47527 
47495 
47455 
47450 
47417 
47411 
47422 
47416 
47416 
47433 
47464 
47496 
47543 
47540 
47499 
47470 
47407 
47388 
47374 
47386 
47387 
47384 
47364 
47341 
47402 
47485 
47480 
47442 
47483 
47560 
47599 
47601 
47545 
47498 
47433 
47409 
47423 
47453 
47491 
47479 
47508 
47541 
47533 
47418 
47365 
47333 
47299 
47337 
47381 
47348 
47327 
47334 
47398 
47468 
47524 
47535 
47555 
47572 
47573 
47596 
47633 
47624 
47577 
47512 
47488 
47495 
47515 
47595 
47677 
47721 
47677 
47613 
47590 
47573 
47572 
47589 
47585 
47626 
47653 
47653 
47696 
47699 
47676 
47667 
47613 
47590 
47623 
47640 
47652 
47647 
47666 
47667 
47622 
47591 
47591 
47590 
47635 
47654 
47636 
47591 
47570 
47604 
47654 
47657 
47613 
47600 
47603 
47604 
47570 
47570 
47598 
47643 
47676 
47646 
47659 
47692 
47674 
47636 
47670 
47688 
47684 
47684 
47682 
47688 
47606 
47571 
47581 
47543 
47569 
47612 
47614 
47594 
47614 
47687 
47704 
47671 
47628 
47537 
47512 
47553 
47609 
47652 
47669 
47706 
47714 
47700 
47677 
47654 
47659 
47652 
47594 
47582 
47630 
47654 
47637 
47627 
47654 
47679 
47701 
47678 
47688 
47716 
47697 
47635 
47618 
47616 
47598 
47627 
47624 
47586 
47576 
47579 
47582 
47588 
47590 
47607 
47568 
47532 
47539 
47566 
47572 
47584 
47563 
47548 
47547 
47545 
47549 
47536 
47493 
47523 
47538 
47568 
47546 
47464 
47505 
47557 
47587 
47629 
47664 
47712 
47731 
47688 
47650 
47642 
47654 
47658 
47663 
47681 
47700 
47731 
47701 
47648 
47572 
47555 
47576 
47576 
47557 
47555 
47595 
47660 
47686 
47636 
47595 
47581 
47575 
47568 
47565 
47552 
47560 
47534 
47558 
47620 
47632 
47629 
47621 
47615 
47643 
47623 
47604 
47618 
47664 
47692 
47670 
47709 
47700 
47619 
47588 
47579 
47555 
47561 
47571 
47649 
47689 
47674 
47634 
47675 
47676 
47657 
47679 
47643 
47617 
47664 
47666 
47654 
47633 
47674 
47693 
47683 
47687 
47716 
47757 
47798 
47845 
47830 
47782 
47756 
47740 
47726 
47667 
47654 
47663 
47713 
47765 
47715 
47677 
47627 
47625 
47653 
47691 
47701 
47719 
47717 
47677 
47627 
47689 
47714 
47672 
47643 
47664 
47699 
47771 
47827 
47842 
47838 
47803 
47743 
47670 
47678 
47742 
47761 
47759 
47763 
47718 
47690 
47698 
47705 
47692 
47695 
47713 
47700 
47623 
47562 
47614 
47646 
47651 
47663 
47682 
47667 
47632 
47691 
47710 
47722 
47688 
47651 
47648 
47642 
47662 
47666 
47645 
47665 
47693 
47734 
47739 
47706 
47666 
47658 
47700 
47718 
47720 
47681 
47609 
47586 
47582 
47571 
47550 
47543 
47565 
47580 
47585 
47586 
47592 
47588 
47645 
47692 
47627 
47630 
47689 
47692 
47621 
47547 
47559 
47616 
47602 
47566 
47544 
47565 
47526 
47487 
47517 
47519 
47527 
47539 
47588 
47648 
47617 
47605 
47612 
47600 
47548 
47528 
47533 
47567 
47555 
47475 
47454 
47500 
47511 
47473 
47460 
47474 
47552 
47570 
47568 
47549 
47497 
47455 
47442 
47442 
47458 
47435 
47430 
47413 
47390 
47374 
47361 
47340 
47341 
47391 
47420 
47437 
47419 
47426 
47423 
47391 
47431 
47412 
47406 
47419 
47426 
47401 
47368 
47366 
47337 
47350 
47398 
47402 
47453 
47442 
47359 
47339 
47348 
47332 
47371 
47387 
47362 
47349 
47334 
47306 
47347 
47384 
47438 
47467 
47456 
47398 
47333 
47292 
47329 
47345 
47325 
47331 
47342 
47324 
47289 
47302 
47306 
47276 
47254 
47265 
47324 
47347 
47346 
47394 
47399 
47337 
47281 
47279 
47285 
47262 
47254 
47279 
47314 
47336 
47284 
47285 
47258 
47225 
47183 
47210 
47204 
47189 
47214 
47240 
47241 
47204 
47203 
47201 
47219 
47249 
47217 
47240 
47271 
47329 
47361 
47337 
47240 
47187 
47186 
47279 
47312 
47322 
47354 
47321 
47265 
47269 
47332 
47394 
47367 
47334 
47311 
47308 
47313 
47246 
47252 
47228 
47218 
47236 
47232 
47233 
47238 
47231 
47274 
47240 
47177 
47201 
47210 
47213 
47274 
47322 
47263 
47204 
47167 
47123 
47153 
47200 
47255 
47243 
47219 
47214 
47210 
47225 
47227 
47211 
47250 
47275 
47217 
47189 
47184 
47163 
47176 
47126 
47070 
47077 
47080 
47080 
47111 
47122 
47122 
47149 
47228 
47230 
47236 
47221 
47196 
47165 
47110 
47084 
47124 
47159 
47147 
47143 
47128 
47107 
47131 
47125 
47160 
47184 
47118 
47058 
47054 
47049 
47060 
47055 
47066 
47072 
47111 
47112 
47120 
47147 
47138 
47094 
47060 
47121 
47145 
47109 
47075 
47115 
47165 
47125 
47101 
47143 
47179 
47222 
47187 
47105 
47075 
47132 
47157 
47160 
47147 
47135 
47110 
47140 
47171 
47177 
47191 
47177 
47160 
47156 
47137 
47151 
47140 
47091 
47046 
47051 
47054 
47070 
47085 
47135 
47177 
47247 
47218 
47201 
47194 
47153 
47151 
47183 
47187 
47184 
47191 
47187 
47150 
47060 
47020 
47000 
47053 
47071 
46976 
47024 
47108 
47150 
47168 
47204 
47198 
47147 
47101 
47080 
47046 
47018 
47071 
47126 
47168 
47196 
47158 
47175 
47232 
47240 
47210 
47198 
47193 
47197 
47130 
47052 
47033 
47033 
47058 
47059 
47032 
46983 
46992 
47062 
47059 
47052 
47056 
47068 
47086 
47132 
47160 
47101 
47067 
47083 
47104 
47063 
47006 
46978 
46953 
46962 
46974 
47004 
46989 
47007 
47035 
46982 
46981 
46886 
46884 
46911 
46882 
46848 
46816 
46888 
46953 
46945 
46938 
46910 
46895 
46936 
46965 
46968 
46945 
46930 
46896 
46876 
46855 
46873 
46937 
47006 
47078 
47117 
47089 
46983 
46924 
46904 
46962 
46958 
46974 
47003 
47003 
46968 
46959 
46920 
46903 
46957 
47032 
47034 
47036 
47074 
47125 
47082 
47062 
47055 
47067 
47070 
47044 
47088 
47062 
47048 
47056 
47078 
47067 
47040 
47002 
46989 
46964 
46945 
46960 
46940 
46984 
46990 
46943 
46964 
47032 
47032 
46977 
46995 
46996 
46975 
46987 
46970 
46993 
47010 
47034 
47049 
47063 
47045 
47050 
47041 
47085 
47117 
47130 
47074 
47039 
47052 
47075 
47038 
47035 
47054 
47060 
47048 
47016 
47022 
46999 
47000 
47054 
47134 
47145 
47124 
47167 
47187 
47161 
47109 
47052 
47070 
47122 
47087 
47016 
47036 
47123 
47119 
47086 
47087 
47031 
47036 
47087 
47161 
47191 
47135 
47079 
47045 
47039 
47076 
47092 
47122 
47143 
47151 
47149 
47248 
47275 
47239 
47201 
47150 
47175 
47215 
47220 
47190 
47224 
47285 
47273 
47268 
47267 
47253 
47222 
47218 
47224 
47250 
47207 
47152 
47116 
47132 
47123 
47153 
47163 
47162 
47158 
47140 
47140 
47156 
47134 
47133 
47134 
47100 
47083 
47076 
47100 
47108 
47085 
47105 
47128 
47106 
47046 
47032 
47068 
47072 
47027 
46979 
47017 
47066 
47073 
47061 
47061 
47043 
46987 
46928 
46929 
46955 
46959 
46908 
46861 
46821 
46815 
46825 
46871 
46871 
46826 
46769 
46779 
46811 
46854 
46870 
46827 
46861 
46896 
46903 
46942 
46960 
46918 
46901 
46896 
46919 
46939 
46940 
46924 
46877 
46840 
46841 
46894 
46948 
46969 
47000 
47021 
46986 
46968 
46941 
46877 
46861 
46892 
46930 
46957 
46961 
46988 
47020 
47013 
46974 
47012 
47076 
47084 
47081 
47092 
47086 
47064 
47094 
47120 
47085 
47073 
47071 
47048 
47029 
47045 
47081 
47155 
47210 
47253 
47310 
47317 
47262 
47232 
47278 
47300 
47276 
47253 
47228 
47208 
47216 
47256 
47331 
47363 
47369 
47378 
47357 
47375 
47391 
47354 
47325 
47337 
47339 
47313 
47367 
47359 
47375 
47399 
47434 
47424 
47437 
47457 
47435 
47449 
47448 
47404 
47369 
47359 
47341 
47358 
47399 
47456 
47490 
47523 
47533 
47510 
47518 
47485 
47426 
47374 
47379 
47467 
47504 
47507 
47490 
47543 
47607 
47607 
47571 
47512 
47485 
47491 
47439 
47412 
47440 
47510 
47526 
47510 
47494 
47466 
47436 
47431 
47417 
47415 
47465 
47471 
47439 
47383 
47404 
47493 
47577 
47592 
47598 
47605 
47571 
47545 
47515 
47534 
47541 
47553 
47561 
47584 
47591 
47531 
47508 
47529 
47555 
47578 
47543 
47502 
47534 
47523 
47424 
47354 
47322 
47342 
47402 
47418 
47410 
47427 
47395 
47348 
47364 
47386 
47379 
47376 
47429 
47440 
47404 
47424 
47438 
47470 
47488 
47449 
47396 
47401 
47408 
47363 
47335 
47288 
47246 
47296 
47340 
47327 
47269 
47240 
47185 
47180 
47156 
47166 
47186 
47183 
47159 
47130 
47130 
47140 
47182 
47149 
47080 
47058 
47071 
47080 
47084 
47057 
47027 
47060 
47109 
47099 
47047 
47011 
46969 
46940 
47011 
47067 
47044 
47053 
47072 
46983 
46939 
46920 
46945 
46961 
46969 
47001 
46943 
46909 
46936 
46966 
47038 
47055 
47042 
47055 
47056 
47052 
47054 
47064 
47097 
47076 
47039 
47061 
47093 
47101 
47046 
47043 
47064 
47064 
47049 
47055 
47089 
47105 
47117 
47105 
47065 
47059 
47060 
47116 
47148 
47127 
47115 
47102 
47101 
47091 
47153 
47129 
47119 
47147 
47161 
47215 
47254 
47206 
47136 
47153 
47179 
47202 
47251 
47235 
47250 
47227 
47263 
47270 
47239 
47290 
47284 
47223 
47217 
47234 
47230 
47235 
47263 
47272 
47252 
47230 
47270 
47282 
47290 
47301 
47295 
47314 
47285 
47289 
47331 
47368 
47418 
47426 
47465 
47453 
47454 
47407 
47376 
47409 
47465 
47473 
47466 
47457 
47403 
47363 
47338 
47358 
47393 
47403 
47440 
47467 
47473 
47471 
47445 
47454 
47456 
47473 
47475 
47481 
47460 
47454 
47441 
47409 
47352 
47286 
47285 
47343 
47388 
47395 
47366 
47376 
47364 
47344 
47327 
47356 
47415 
47442 
47445 
47428 
47369 
47309 
47293 
47296 
47332 
47361 
47358 
47353 
47312 
47270 
47260 
47249 
47228 
47239 
47276 
47279 
47290 
47266 
47174 
47080 
47056 
47078 
47092 
47101 
47108 
47115 
47131 
47017 
46960 
47044 
47103 
47125 
47085 
47057 
47047 
46979 
46939 
46943 
46951 
46906 
46846 
46858 
46859 
46810 
46818 
46795 
46778 
46773 
46783 
46805 
46805 
46783 
46780 
46776 
46734 
46759 
46780 
46780 
46824 
46814 
46801 
46828 
46883 
46875 
46862 
46846 
46783 
46770 
46779 
46760 
46766 
46840 
46818 
46812 
46846 
46831 
46845 
46839 
46855 
46866 
46869 
46856 
46884 
46898 
46876 
46843 
46835 
46787 
46770 
46828 
46857 
46851 
46864 
46855 
46864 
46943 
46985 
46987 
46983 
46981 
46920 
46921 
46929 
46945 
46977 
46981 
47050 
47057 
47019 
46988 
46995 
46973 
46923 
46942 
46985 
47012 
47032 
47069 
47073 
47009 
47032 
47050 
47047 
47044 
47041 
47010 
47008 
47056 
47075 
47106 
47105 
47105 
47088 
47060 
47031 
47093 
47138 
47166 
47172 
47129 
47105 
47136 
47175 
47181 
47145 
47141 
47132 
47176 
47218 
47187 
47156 
47147 
47119 
47119 
47063 
47057 
47083 
47063 
47090 
47092 
47108 
47136 
47170 
47134 
47132 
47177 
47228 
47225 
47164 
47140 
47146 
47230 
47293 
47318 
47282 
47272 
47254 
47205 
47174 
47205 
47233 
47219 
47203 
47227 
47262 
47268 
47232 
47189 
47230 
47218 
47168 
47156 
47162 
47155 
47133 
47141 
47193 
47195 
47234 
47226 
47199 
47234 
47225 
47165 
47146 
47131 
47092 
47101 
47123 
47075 
47054 
47045 
47010 
46957 
46966 
46985 
46955 
46927 
46914 
46896 
46847 
46857 
46861 
46861 
46865 
46892 
46920 
46899 
46879 
46874 
46831 
46790 
46782 
46735 
46635 
46600 
46619 
46612 
46591 
46632 
46659 
46618 
46620 
46617 
46616 
46606 
46579 
46576 
46557 
46571 
46555 
46556 
46549 
46547 
46561 
46486 
46499 
46536 
46560 
46581 
46601 
46585 
46531 
46517 
46494 
46470 
46474 
46450 
46461 
46535 
46598 
46578 
46587 
46596 
46561 
46521 
46521 
46538 
46626 
46639 
46584 
46586 
46603 
46551 
46556 
46660 
46731 
46749 
46757 
46734 
46696 
46657 
46641 
46631 
46619 
46687 
46730 
46742 
46779 
46803 
46796 
46770 
46801 
46829 
46785 
46763 
46760 
46716 
46756 
46765 
46788 
46859 
46921 
46937 
46908 
46904 
46912 
46920 
46933 
46915 
46888 
46874 
46946 
47069 
47098 
47092 
47076 
47065 
47090 
47102 
47118 
47125 
47120 
47061 
47007 
47046 
47109 
47146 
47165 
47128 
47125 
47127 
47109 
47052 
47012 
47052 
47084 
47090 
47155 
47142 
47131 
47132 
47173 
47212 
47190 
47206 
47215 
47233 
47240 
47198 
47197 
47216 
47190 
47196 
47234 
47282 
47311 
47334 
47310 
47287 
47255 
47242 
47213 
47232 
47274 
47318 
47312 
47285 
47286 
47298 
47270 
47273 
47309 
47304 
47270 
47237 
47261 
47304 
47349 
47413 
47427 
47387 
47384 
47399 
47396 
47436 
47463 
47446 
47451 
47431 
47391 
47323 
47299 
47371 
47365 
47326 
47270 
47268 
47315 
47333 
47294 
47221 
47157 
47106 
47059 
47037 
47078 
47076 
47092 
47107 
47067 
46996 
46967 
46967 
47024 
47046 
47032 
47014 
46977 
46891 
46889 
46924 
46991 
46965 
46879 
46856 
46815 
46795 
46812 
46795 
46772 
46752 
46753 
46773 
46750 
46756 
46742 
46707 
46740 
46751 
46747 
46745 
46750 
46782 
46787 
46760 
46679 
46591 
46574 
46615 
46660 
46644 
46675 
46763 
46764 
46676 
46719 
46751 
46753 
46769 
46737 
46795 
46833 
46842 
46826 
46806 
46809 
46843 
46802 
46772 
46827 
46861 
46866 
46867 
46875 
46829 
46796 
46791 
46769 
46758 
46809 
46829 
46880 
46935 
46923 
46879 
46902 
47000 
47041 
47075 
47124 
47144 
47143 
47176 
47187 
47203 
47231 
47186 
47114 
47164 
47232 
47255 
47223 
47193 
47184 
47193 
47216 
47222 
47251 
47279 
47315 
47283 
47284 
47299 
47345 
47386 
47414 
47418 
47384 
47405 
47418 
47414 
47373 
47409 
47439 
47478 
47509 
47467 
47467 
47514 
47524 
47533 
47595 
47636 
47580 
47547 
47543 
47580 
47591 
47621 
47579 
47545 
47519 
47505 
47494 
47475 
47486 
47477 
47500 
47518 
47558 
47536 
47486 
47523 
47510 
47497 
47528 
47521 
47519 
47552 
47542 
47540 
47536 
47534 
47573 
47571 
47592 
47620 
47674 
47688 
47699 
47672 
47638 
47599 
47631 
47694 
47666 
47610 
47626 
47617 
47634 
47604 
47597 
47573 
47569 
47614 
47568 
47487 
47520 
47552 
47545 
47513 
47500 
47501 
47465 
47447 
47491 
47523 
47520 
47512 
47511 
47566 
47569 
47604 
47596 
47501 
47500 
47548 
47574 
47569 
47538 
47549 
47557 
47514 
47476 
47455 
47410 
47399 
47362 
47358 
47341 
47307 
47266 
47241 
47228 
47208 
47192 
47176 
47153 
47154 
47197 
47241 
47213 
47140 
47082 
47104 
47048 
46995 
46971 
46913 
46918 
46942 
46906 
46904 
46895 
46875 
46879 
46858 
46865 
46867 
46827 
46802 
46750 
46703 
46742 
46709 
46674 
46674 
46683 
46656 
46636 
46634 
46617 
46582 
46608 
46673 
46703 
46731 
46755 
46747 
46711 
46730 
46725 
46731 
46721 
46755 
46763 
46720 
46659 
46703 
46765 
46766 
46742 
46753 
46766 
46754 
46764 
46762 
46756 
46729 
46688 
46690 
46749 
46787 
46788 
46806 
46804 
46822 
46820 
46825 
46853 
46843 
46797 
46812 
46848 
46853 
46839 
46882 
46922 
46913 
46870 
46859 
46877 
46880 
46867 
46889 
46957 
46976 
46922 
46891 
46932 
46972 
47015 
46994 
46990 
46970 
46988 
47018 
47046 
47085 
47088 
47053 
47021 
47028 
47076 
47096 
47115 
47078 
47036 
47039 
47074 
47064 
47036 
47037 
47089 
47154 
47149 
47130 
47151 
47141 
47174 
47208 
47203 
47220 
47226 
47213 
47245 
47208 
47148 
47132 
47181 
47163 
47174 
47153 
47163 
47243 
47243 
47233 
47248 
47259 
47226 
47214 
47171 
47139 
47138 
47186 
47268 
47314 
47317 
47359 
47325 
47283 
47260 
47296 
47320 
47326 
47312 
47302 
47287 
47265 
47262 
47266 
47223 
47162 
47174 
47268 
47275 
47267 
47276 
47273 
47311 
47306 
47298 
47297 
47294 
47335 
47329 
47250 
47149 
47130 
47174 
47186 
47151 
47150 
47146 
47125 
47080 
47058 
47026 
47088 
47092 
47035 
47015 
46990 
46893 
46845 
46839 
46831 
46813 
46824 
46855 
46818 
46802 
46792 
46806 
46839 
46808 
46793 
46819 
46762 
46666 
46670 
46683 
46652 
46552 
46530 
46563 
46562 
46568 
46568 
46566 
46617 
46591 
46608 
46626 
46566 
46542 
46564 
46557 
46555 
46546 
46544 
46574 
46566 
46518 
46506 
46476 
46517 
46554 
46576 
46611 
46630 
46618 
46542 
46538 
46591 
46661 
46700 
46722 
46738 
46768 
46743 
46709 
46670 
46681 
46749 
46783 
46800 
46765 
46730 
46733 
46766 
46753 
46785 
46828 
46829 
46811 
46813 
46795 
46806 
46795 
46770 
46767 
46838 
46912 
46905 
46854 
46838 
46843 
46847 
46858 
46893 
46956 
46959 
46925 
46910 
46910 
46923 
46947 
46951 
46940 
46968 
46978 
46996 
46968 
46974 
46988 
46951 
46955 
46956 
46983 
47031 
47061 
47022 
46948 
46942 
47003 
47000 
46975 
46971 
46945 
46936 
46935 
46946 
46992 
47013 
46998 
47011 
47077 
47113 
47153 
47174 
47167 
47167 
47171 
47142 
47114 
47136 
47152 
47147 
47152 
47172 
47190 
47197 
47261 
47295 
47266 
47212 
47153 
47159 
47166 
47145 
47132 
47173 
47234 
47221 
47246 
47308 
47277 
47200 
47112 
47071 
47078 
47083 
47122 
47161 
47132 
47114 
47125 
47193 
47216 
47262 
47263 
47245 
47298 
47345 
47318 
47295 
47330 
47362 
47343 
47323 
47281 
47228 
47204 
47195 
47222 
47237 
47270 
47303 
47296 
47284 
47245 
47213 
47188 
47127 
47078 
47075 
47061 
47061 
47078 
47079 
47039 
47007 
46977 
46973 
46912 
46868 
46827 
46803 
46793 
46811 
46850 
46854 
46849 
46790 
46772 
46792 
46752 
46701 
46650 
46653 
46662 
46591 
46585 
46574 
46572 
46559 
46511 
46483 
46502 
46578 
46603 
46611 
46566 
46518 
46510 
46508 
46473 
46453 
46399 
46391 
46416 
46432 
46424 
46366 
46357 
46441 
46462 
46457 
46456 
46492 
46472 
46448 
46439 
46495 
46536 
46567 
46592 
46600 
46571 
46569 
46550 
46519 
46521 
46480 
46527 
46539 
46519 
46552 
46595 
46596 
46546 
46546 
46592 
46607 
46575 
46536 
46572 
46641 
46673 
46649 
46640 
46691 
46675 
46623 
46558 
46569 
46654 
46713 
46737 
46793 
46830 
46805 
46792 
46760 
46785 
46839 
46862 
46908 
46945 
46926 
46881 
46892 
46915 
46936 
46937 
46940 
46930 
46882 
46853 
46848 
46895 
46980 
47054 
47106 
47070 
47004 
46997 
47023 
47077 
47092 
47089 
47090 
47069 
47127 
47162 
47140 
47158 
47171 
47170 
47187 
47199 
47247 
47283 
47211 
47176 
47123 
47108 
47175 
47265 
47357 
47355 
47291 
47238 
47231 
47263 
47291 
47268 
47274 
47267 
47265 
47250 
47229 
47230 
47267 
47262 
47338 
47432 
47442 
47408 
47428 
47469 
47480 
47484 
47528 
47494 
47482 
47484 
47474 
47493 
47490 
47464 
47539 
47554 
47548 
47563 
47550 
47525 
47520 
47617 
47648 
47674 
47665 
47599 
47556 
47551 
47572 
47612 
47599 
47563 
47476 
47445 
47521 
47534 
47543 
47513 
47527 
47588 
47589 
47532 
47489 
47569 
47634 
47620 
47546 
47472 
47408 
47392 
47402 
47397 
47428 
47472 
47449 
47394 
47343 
47369 
47413 
47412 
47351 
47315 
47354 
47413 
47366 
47350 
47342 
47291 
47197 
47118 
47126 
47116 
47106 
47111 
47112 
47053 
47041 
47025 
46957 
46889 
46854 
46908 
46929 
46902 
46881 
46852 
46813 
46826 
46861 
46806 
46768 
46707 
46661 
46709 
46760 
46766 
46726 
46781 
46778 
46732 
46758 
46748 
46699 
46655 
46679 
46663 
46602 
46586 
46600 
46583 
46634 
46710 
46737 
46745 
46715 
46712 
46728 
46767 
46754 
46724 
46720 
46737 
46749 
46752 
46828 
46918 
46961 
47001 
46976 
46922 
46898 
46860 
46782 
46741 
46759 
46803 
46815 
46754 
46728 
46701 
46730 
46763 
46803 
46860 
46898 
46936 
46923 
46887 
46876 
46870 
46900 
46925 
46937 
46925 
46965 
47004 
47023 
46999 
46959 
46987 
46987 
46946 
46964 
46979 
46942 
46971 
46999 
47048 
47116 
47089 
47048 
47088 
47144 
47214 
47224 
47193 
47195 
47183 
47196 
47218 
47234 
47251 
47277 
47261 
47244 
47196 
47140 
47093 
47075 
47110 
47136 
47186 
47275 
47305 
47309 
47297 
47302 
47311 
47306 
47275 
47231 
47228 
47242 
47242 
47295 
47351 
47397 
47367 
47352 
47343 
47296 
47289 
47269 
47267 
47300 
47307 
47313 
47291 
47276 
47264 
47286 
47278 
47241 
47267 
47295 
47300 
47332 
47310 
47263 
47177 
47122 
47196 
47319 
47347 
47333 
47332 
47354 
47389 
47395 
47356 
47344 
47310 
47263 
47248 
47275 
47296 
47347 
47398 
47417 
47381 
47318 
47287 
47290 
47269 
47266 
47237 
47235 
47226 
47246 
47253 
47226 
47214 
47207 
47241 
47254 
47204 
47175 
47111 
47079 
47058 
47022 
47027 
47043 
47041 
47040 
47068 
47081 
47057 
47014 
46991 
46996 
46997 
47034 
47041 
47011 
46961 
46881 
46812 
46777 
46741 
46734 
46761 
46780 
46782 
46694 
46684 
46719 
46715 
46660 
46606 
46594 
46596 
46626 
46620 
46588 
46603 
46658 
46671 
46666 
46601 
46547 
46567 
46565 
46562 
46609 
46613 
46616 
46643 
46627 
46600 
46631 
46728 
46762 
46763 
46724 
46694 
46674 
46646 
46586 
46571 
46589 
46600 
46638 
46667 
46725 
46737 
46705 
46676 
46699 
46741 
46742 
46718 
46735 
46739 
46742 
46708 
46712 
46764 
46745 
46720 
46759 
46783 
46775 
46781 
46828 
46858 
46875 
46910 
46877 
46858 
46859 
46848 
46850 
46849 
46867 
46899 
46879 
46852 
46897 
46920 
46948 
46954 
46918 
46936 
46901 
46861 
46836 
46837 
46934 
47003 
47018 
47044 
47023 
46969 
46939 
46894 
46916 
46943 
46958 
46988 
46969 
46907 
46887 
46905 
46930 
46950 
46966 
46925 
46911 
46896 
46934 
46961 
46949 
47010 
47071 
47138 
47168 
47135 
47119 
47142 
47179 
47237 
47234 
47239 
47292 
47278 
47249 
47254 
47282 
47295 
47315 
47366 
47406 
47382 
47351 
47325 
47304 
47283 
47338 
47348 
47302 
47276 
47308 
47334 
47355 
47376 
47417 
47447 
47475 
47472 
47423 
47375 
47376 
47331 
47274 
47262 
47267 
47236 
47201 
47188 
47236 
47269 
47235 
47232 
47169 
47143 
47130 
47071 
47000 
46959 
46950 
46915 
46856 
46830 
46797 
46759 
46775 
46806 
46766 
46733 
46693 
46653 
46696 
46762 
46695 
46585 
46553 
46546 
46568 
46560 
46509 
46489 
46465 
46441 
46384 
46329 
46313 
46301 
46312 
46312 
46306 
46285 
46291 
46268 
46238 
46199 
46171 
46111 
46102 
46099 
46148 
46181 
46165 
46130 
46098 
46096 
46133 
46172 
46134 
46126 
46138 
46135 
46137 
46146 
46191 
46190 
46183 
46185 
46185 
46223 
46226 
46202 
46210 
46191 
46164 
46170 
46225 
46255 
46272 
46329 
46357 
46327 
46349 
46350 
46358 
46327 
46289 
46310 
46312 
46319 
46357 
46406 
46414 
46371 
46385 
46419 
46417 
46447 
46467 
46498 
46527 
46592 
46603 
46614 
46658 
46696 
46720 
46732 
46754 
46812 
46805 
46791 
46810 
46842 
46832 
46842 
46888 
46927 
46922 
46878 
46866 
46925 
46987 
47048 
47083 
47113 
47110 
47093 
47096 
47129 
47157 
47147 
47119 
47113 
47113 
47092 
47084 
47107 
47159 
47238 
47268 
47294 
47316 
47285 
47327 
47383 
47430 
47507 
47526 
47437 
47427 
47469 
47494 
47495 
47534 
47563 
47521 
47538 
47555 
47644 
47704 
47702 
47691 
47666 
47671 
47689 
47717 
47664 
47621 
47586 
47581 
47623 
47629 
47649 
47697 
47673 
47637 
47653 
47627 
47631 
47629 
47620 
47601 
47604 
47649 
47657 
47639 
47584 
47578 
47621 
47689 
47717 
47745 
47746 
47715 
47691 
47694 
47742 
47704 
47703 
47706 
47753 
47766 
47734 
47723 
47728 
47713 
47698 
47718 
47735 
47686 
47641 
47637 
47655 
47642 
47578 
47483 
47443 
47428 
47403 
47381 
47375 
47418 
47415 
47371 
47325 
47272 
47251 
47208 
47136 
47114 
47089 
47093 
47133 
47096 
46976 
46877 
46897 
46903 
46915 
46930 
46905 
46874 
46847 
46850 
46837 
46805 
46733 
46696 
46716 
46741 
46730 
46709 
46752 
46686 
46598 
46618 
46663 
46639 
46587 
46621 
46611 
46584 
46564 
46532 
46510 
46491 
46498 
46547 
46609 
46624 
46607 
46620 
46639 
46670 
46682 
46657 
46633 
46603 
46589 
46650 
46742 
46744 
46736 
46762 
46773 
46780 
46770 
46766 
46779 
46767 
46744 
46745 
46749 
46698 
46717 
46764 
46788 
46866 
46963 
47007 
47022 
47050 
47026 
47002 
47022 
47091 
47126 
47138 
47130 
47096 
47029 
47040 
47055 
47051 
47058 
47078 
47064 
47067 
47110 
47154 
47192 
47196 
47219 
47254 
47283 
47341 
47303 
47236 
47295 
47332 
47340 
47336 
47347 
47354 
47353 
47387 
47440 
47451 
47439 
47416 
47427 
47397 
47367 
47432 
47477 
47483 
47492 
47515 
47541 
47584 
47610 
47609 
47606 
47594 
47609 
47606 
47558 
47525 
47563 
47613 
47583 
47515 
47515 
47559 
47603 
47664 
47710 
47687 
47655 
47658 
47679 
47713 
47759 
47764 
47782 
47813 
47790 
47760 
47756 
47757 
47726 
47738 
47826 
47832 
47779 
47742 
47709 
47730 
47751 
47787 
47817 
47762 
47739 
47764 
47774 
47807 
47816 
47796 
47797 
47823 
47812 
47835 
47832 
47838 
47867 
47910 
47924 
47863 
47835 
47831 
47777 
47771 
47796 
47777 
47782 
47817 
47785 
47787 
47845 
47890 
47881 
47832 
47800 
47815 
47837 
47889 
47899 
47858 
47804 
47778 
47751 
47726 
47665 
47650 
47671 
47660 
47593 
47563 
47550 
47526 
47483 
47433 
47449 
47478 
47472 
47455 
47468 
47415 
47400 
47413 
47409 
47357 
47362 
47354 
47332 
47323 
47297 
47271 
47226 
47161 
47135 
47160 
47225 
47240 
47207 
47115 
47053 
47059 
47073 
47070 
47048 
47039 
46975 
46924 
46891 
46854 
46857 
46874 
46874 
46892 
46830 
46872 
46874 
46820 
46782 
46761 
46700 
46662 
46702 
46755 
46774 
46792 
46810 
46824 
46897 
46914 
46887 
46862 
46822 
46826 
46806 
46833 
46834 
46779 
46787 
46833 
46860 
46883 
46940 
46992 
47017 
47016 
47005 
47003 
46967 
46916 
46907 
46894 
46917 
46893 
46852 
46827 
46862 
46912 
46921 
46921 
46957 
46991 
47001 
47012 
47046 
47069 
47055 
47083 
47030 
46958 
46961 
46983 
46995 
46971 
46934 
46958 
46987 
47008 
47060 
47107 
47108 
47089 
47066 
47081 
47142 
47195 
47202 
47180 
47157 
47161 
47209 
47225 
47176 
47150 
47166 
47169 
47145 
47130 
47165 
47139 
47141 
47148 
47126 
47107 
47118 
47171 
47227 
47248 
47247 
47273 
47313 
47374 
47414 
47388 
47358 
47359 
47349 
47321 
47296 
47308 
47297 
47298 
47358 
47420 
47453 
47454 
47458 
47472 
47445 
47481 
47531 
47516 
47476 
47446 
47432 
47378 
47360 
47401 
47450 
47481 
47493 
47458 
47428 
47368 
47441 
47508 
47527 
47508 
47534 
47556 
47606 
47630 
47583 
47564 
47513 
47451 
47477 
47510 
47538 
47555 
47607 
47624 
47632 
47640 
47678 
47689 
47653 
47690 
47678 
47660 
47677 
47682 
47711 
47720 
47668 
47673 
47723 
47715 
47652 
47654 
47703 
47722 
47724 
47688 
47671 
47700 
47665 
47665 
47680 
47641 
47625 
47623 
47640 
47629 
47618 
47609 
47621 
47631 
47604 
47575 
47546 
47534 
47523 
47493 
47532 
47530 
47454 
47356 
47309 
47322 
47289 
47248 
47265 
47272 
47298 
47277 
47194 
47156 
47155 
47142 
47120 
47129 
47142 
47119 
47118 
47113 
47046 
46984 
46991 
47037 
47025 
46999 
47009 
47051 
47104 
47119 
47081 
47108 
47133 
47135 
47113 
47097 
47071 
46998 
46994 
46990 
46940 
46964 
46965 
46947 
46934 
46939 
46926 
46948 
46937 
46933 
46933 
46917 
46895 
46852 
46874 
46842 
46824 
46848 
46895 
46892 
46869 
46839 
46851 
46868 
46850 
46847 
46849 
46822 
46844 
46889 
46874 
46831 
46792 
46795 
46833 
46763 
46750 
46789 
46826 
46841 
46800 
46837 
46874 
46913 
46943 
46918 
46946 
46900 
46878 
46870 
46874 
46903 
46902 
46924 
46955 
46967 
46963 
46966 
46936 
46936 
46946 
46951 
46921 
46890 
46905 
46949 
47007 
46999 
47023 
47013 
46993 
47026 
47078 
47084 
47062 
47059 
47064 
47104 
47132 
47118 
47121 
47151 
47181 
47222 
47260 
47327 
47354 
47405 
47447 
47409 
47438 
47432 
47360 
47333 
47334 
47327 
47328 
47352 
47385 
47376 
47373 
47411 
47436 
47413 
47405 
47392 
47375 
47368 
47378 
47399 
47415 
47457 
47475 
47420 
47415 
47438 
47459 
47489 
47547 
47642 
47654 
47648 
47616 
47583 
47560 
47523 
47524 
47525 
47483 
47495 
47513 
47547 
47556 
47542 
47525 
47509 
47527 
47594 
47649 
47673 
47667 
47609 
47564 
47540 
47552 
47590 
47639 
47652 
47632 
47624 
47650 
47693 
47639 
47544 
47495 
47509 
47546 
47578 
47607 
47660 
47697 
47659 
47603 
47626 
47670 
47723 
47751 
47768 
47770 
47733 
47713 
47709 
47708 
47720 
47683 
47633 
47601 
47576 
47565 
47624 
47697 
47680 
47644 
47568 
47503 
47503 
47481 
47460 
47414 
47424 
47448 
47412 
47322 
47287 
47301 
47324 
47345 
47385 
47401 
47418 
47389 
47316 
47265 
47253 
47253 
47240 
47218 
47173 
47127 
47095 
47058 
47058 
47083 
47107 
47106 
47141 
47149 
47106 
47101 
47071 
47020 
47025 
47036 
47002 
46975 
46934 
46921 
46988 
47046 
47015 
47013 
47022 
46999 
46960 
46933 
46907 
46880 
46894 
46902 
46871 
46821 
46825 
46863 
46841 
46841 
46869 
46906 
46913 
46908 
46909 
46882 
46828 
46784 
46835 
46882 
46894 
46924 
46910 
46901 
46920 
46905 
46859 
46843 
46809 
46875 
46950 
46945 
46927 
46920 
46961 
46954 
46927 
46947 
46932 
46925 
46892 
46867 
46860 
46914 
46953 
46967 
46974 
46960 
46938 
46933 
46921 
46938 
46952 
46920 
46899 
46898 
46917 
46968 
46952 
46917 
46886 
46909 
46972 
46995 
46969 
46970 
46964 
46967 
46945 
46950 
46994 
47016 
47024 
47039 
47021 
46976 
46958 
46985 
46985 
47016 
47023 
47029 
47033 
47021 
46999 
47089 
47228 
47245 
47197 
47145 
47143 
47117 
47124 
47186 
47248 
47259 
47271 
47266 
47264 
47300 
47317 
47303 
47237 
47266 
47339 
47383 
47407 
47381 
47344 
47334 
47339 
47341 
47341 
47427 
47442 
47390 
47360 
47370 
47386 
47409 
47427 
47460 
47439 
47398 
47423 
47452 
47467 
47481 
47490 
47515 
47509 
47530 
47553 
47540 
47565 
47602 
47588 
47516 
47470 
47495 
47492 
47512 
47547 
47565 
47541 
47541 
47563 
47606 
47657 
47670 
47682 
47639 
47601 
47609 
47601 
47616 
47605 
47579 
47577 
47570 
47562 
47560 
47532 
47548 
47542 
47559 
47569 
47553 
47492 
47403 
47353 
47307 
47317 
47317 
47307 
47283 
47230 
47218 
47194 
47234 
47271 
47231 
47172 
47114 
47085 
47068 
47041 
47034 
46993 
46950 
46981 
46983 
46966 
46907 
46862 
46868 
46912 
46952 
46993 
46971 
46956 
46964 
46934 
46912 
46913 
46919 
46956 
46936 
46855 
46818 
46800 
46770 
46806 
46839 
46787 
46761 
46771 
46817 
46874 
46855 
46802 
46785 
46816 
46847 
46887 
46937 
46947 
46897 
46862 
46900 
46928 
46869 
46851 
46861 
46856 
46871 
46876 
46876 
46833 
46837 
46902 
46936 
46941 
46951 
46910 
46958 
46994 
46981 
46955 
46958 
46947 
46948 
46971 
47025 
47049 
47044 
47055 
47001 
46957 
46957 
46999 
47032 
47043 
47071 
47068 
47065 
47069 
47114 
47150 
47232 
47286 
47233 
47195 
47172 
47161 
47169 
47184 
47189 
47210 
47267 
47362 
47385 
47362 
47313 
47274 
47277 
47260 
47293 
47307 
47299 
47291 
47309 
47324 
47364 
47426 
47435 
47399 
47388 
47430 
47498 
47487 
47433 
47434 
47461 
47482 
47440 
47435 
47489 
47485 
47489 
47506 
47456 
47412 
47385 
47382 
47415 
47429 
47429 
47441 
47530 
47579 
47557 
47525 
47509 
47525 
47550 
47548 
47542 
47514 
47520 
47544 
47545 
47556 
47589 
47591 
47595 
47587 
47581 
47577 
47578 
47570 
47565 
47609 
47627 
47646 
47621 
47628 
47692 
47716 
47702 
47727 
47723 
47687 
47654 
47617 
47576 
47588 
47569 
47567 
47563 
47551 
47554 
47551 
47550 
47597 
47595 
47600 
47579 
47577 
47542 
47497 
47514 
47535 
47582 
47567 
47537 
47437 
47369 
47378 
47393 
47364 
47311 
47268 
47256 
47244 
47252 
47271 
47233 
47211 
47194 
47172 
47138 
47125 
47128 
47161 
47167 
47159 
47131 
47089 
47115 
47126 
47102 
47063 
47053 
47003 
46976 
46912 
46923 
46959 
46978 
46974 
46966 
46981 
47028 
47019 
47014 
47027 
47043 
47011 
46934 
46934 
46943 
46925 
46929 
46896 
46833 
46830 
46869 
46921 
46929 
46924 
46927 
46933 
46904 
46861 
46847 
46836 
46811 
46782 
46800 
46834 
46828 
46821 
46782 
46768 
46822 
46916 
46948 
46921 
46898 
46926 
46917 
46893 
46919 
46909 
46937 
46937 
46902 
46915 
46942 
46931 
46966 
46986 
46947 
46913 
46972 
46991 
46975 
46966 
46937 
46917 
46934 
46917 
46887 
46894 
46842 
46779 
46737 
46757 
46755 
46798 
46921 
46938 
46874 
46842 
46799 
46776 
46808 
46867 
46911 
46954 
46981 
46958 
46906 
46868 
46874 
46919 
46931 
46949 
46931 
46914 
46904 
46944 
46970 
47020 
47035 
46987 
47000 
47032 
47019 
47005 
47071 
47152 
47171 
47164 
47157 
47152 
47114 
47065 
47064 
47113 
47138 
47135 
47139 
47179 
47197 
47170 
47095 
47044 
47046 
47054 
47066 
47049 
47123 
47183 
47184 
47180 
47149 
47169 
47237 
47262 
47263 
47249 
47243 
47258 
47245 
47260 
47301 
47316 
47325 
47294 
47274 
47297 
47318 
47295 
47235 
47251 
47275 
47248 
47210 
47172 
47148 
47087 
47071 
47064 
47074 
47086 
47053 
46968 
46958 
46964 
46965 
46986 
46951 
46922 
46900 
46966 
46976 
46891 
46829 
46827 
46858 
46873 
46819 
46803 
46798 
46772 
46763 
46698 
46686 
46686 
46699 
46732 
46694 
46635 
46636 
46603 
46577 
46559 
46571 
46595 
46577 
46588 
46579 
46554 
46574 
46588 
46582 
46554 
46583 
46629 
46644 
46627 
46594 
46617 
46659 
46656 
46608 
46594 
46587 
46615 
46592 
46558 
46577 
46673 
46783 
46782 
46716 
46693 
46700 
46753 
46817 
46818 
46824 
46802 
46706 
46647 
46680 
46679 
46716 
46743 
46739 
46750 
46729 
46727 
46735 
46740 
46744 
46751 
46753 
46779 
46787 
46749 
46758 
46749 
46716 
46702 
46689 
46704 
46654 
46647 
46676 
46710 
46733 
46778 
46792 
46801 
46812 
46836 
46854 
46862 
46815 
46824 
46847 
46836 
46823 
46844 
46859 
46822 
46746 
46719 
46762 
46781 
46828 
46879 
46903 
46903 
46915 
46950 
46985 
46994 
46935 
46887 
46862 
46892 
46908 
46920 
46913 
46907 
46944 
46981 
46997 
47038 
47043 
47020 
47034 
47069 
47028 
47030 
47042 
47042 
46989 
46961 
46992 
47021 
47001 
46989 
47005 
47011 
46990 
46953 
46909 
46866 
46909 
46939 
46902 
46915 
46975 
47032 
46994 
46917 
46879 
46850 
46860 
46898 
46887 
46796 
46699 
46644 
46599 
46627 
46690 
46718 
46688 
46655 
46593 
46554 
46576 
46555 
46557 
46579 
46572 
46557 
46515 
46496 
46454 
46430 
46413 
46397 
46401 
46387 
46389 
46351 
46310 
46283 
46321 
46408 
46411 
46383 
46399 
46411 
46408 
46406 
46429 
46443 
46422 
46409 
46413 
46356 
46338 
46347 
46363 
46370 
46348 
46357 
46392 
46498 
46504 
46521 
46516 
46477 
46463 
46440 
46389 
46359 
46369 
46351 
46343 
46299 
46263 
46268 
46360 
46397 
46391 
46404 
46397 
46390 
46370 
46407 
46507 
46532 
46539 
46496 
46467 
46523 
46554 
46504 
46463 
46371 
46358 
46376 
46394 
46403 
46454 
46498 
46507 
46536 
46554 
46551 
46590 
46622 
46618 
46620 
46658 
46715 
46710 
46690 
46678 
46673 
46647 
46646 
46739 
46797 
46863 
46928 
46936 
46865 
46811 
46751 
46770 
46792 
46782 
46817 
46921 
46968 
46984 
46966 
46987 
47014 
47019 
46985 
46987 
47035 
47072 
47073 
47068 
47082 
47105 
47159 
47203 
47250 
47257 
47314 
47368 
47401 
47400 
47374 
47350 
47384 
47431 
47437 
47416 
47426 
47428 
47478 
47557 
47561 
47529 
47533 
47510 
47461 
47450 
47489 
47496 
47480 
47446 
47466 
47507 
47463 
47407 
47418 
47443 
47481 
47502 
47479 
47439 
47454 
47445 
47415 
47394 
47360 
47326 
47292 
47289 
47317 
47300 
47277 
47293 
47318 
47333 
47318 
47346 
47360 
47392 
47367 
47258 
47196 
47171 
47185 
47187 
47186 
47165 
47102 
47097 
47129 
47133 
47090 
47038 
47010 
47022 
47011 
46957 
46936 
46965 
46978 
46937 
46901 
46975 
47042 
47039 
46987 
46945 
46927 
46976 
46989 
47009 
46985 
46951 
46927 
46987 
47034 
46992 
46998 
47002 
47035 
47041 
46999 
46959 
46907 
46902 
46958 
47011 
46995 
46945 
46942 
46925 
46916 
46925 
46868 
46845 
46832 
46829 
46842 
46856 
46812 
46835 
46870 
46872 
46869 
46842 
46793 
46793 
46824 
46889 
46873 
46849 
46881 
46892 
46883 
46888 
46878 
46869 
46928 
46929 
46895 
46857 
46860 
46872 
46922 
46920 
46926 
46927 
46905 
46932 
46918 
46873 
46858 
46933 
46973 
46979 
47019 
47069 
47082 
47065 
47053 
47064 
47050 
47037 
47043 
47072 
47098 
47063 
47059 
47137 
47163 
47163 
47162 
47159 
47176 
47168 
47211 
47286 
47302 
47351 
47356 
47329 
47270 
47263 
47309 
47371 
47429 
47405 
47370 
47378 
47389 
47340 
47327 
47297 
47271 
47262 
47257 
47251 
47248 
47235 
47224 
47248 
47258 
47268 
47287 
47306 
47257 
47182 
47106 
47048 
47071 
47085 
47041 
46962 
46946 
46931 
46897 
46843 
46797 
46788 
46763 
46753 
46742 
46693 
46671 
46659 
46656 
46688 
46694 
46675 
46650 
46599 
46555 
46515 
46503 
46466 
46398 
46362 
46314 
46222 
46206 
46246 
46257 
46265 
46243 
46278 
46283 
46227 
46153 
46109 
46104 
46107 
46069 
46046 
46080 
46097 
46109 
46078 
46077 
46071 
46022 
46072 
46135 
46121 
46137 
46134 
46120 
46099 
46106 
46043 
46014 
46060 
46071 
46090 
46131 
46112 
46117 
46138 
46134 
46114 
46119 
46092 
46113 
46169 
46215 
46216 
46194 
46210 
46215 
46183 
46153 
46216 
46258 
46247 
46274 
46275 
46249 
46282 
46302 
46312 
46345 
46355 
46317 
46343 
46369 
46366 
46393 
46394 
46405 
46444 
46432 
46406 
46373 
46385 
46407 
46427 
46457 
46501 
46511 
46481 
46530 
46582 
46582 
46607 
46634 
46621 
46624 
46694 
46785 
46800 
46771 
46754 
46769 
46789 
46781 
46769 
46741 
46708 
46712 
46747 
46806 
46868 
46949 
47008 
47002 
47010 
46995 
46959 
46961 
46984 
46994 
46998 
47011 
47007 
47000 
47019 
47028 
47064 
47103 
47089 
47071 
47082 
47083 
47086 
47114 
47130 
47134 
47127 
47101 
47128 
47182 
47207 
47199 
47225 
47250 
47277 
47343 
47321 
47282 
47231 
47219 
47169 
47106 
47098 
47098 
47060 
47091 
47132 
47072 
47016 
46983 
47004 
46995 
47004 
47036 
47054 
47053 
47008 
46977 
46947 
46960 
47011 
46980 
46903 
46878 
46859 
46870 
46914 
46940 
46951 
46991 
46964 
46950 
46948 
46976 
46956 
46966 
46938 
46946 
46947 
46939 
46975 
46952 
46928 
46933 
46908 
46887 
46908 
46868 
46815 
46809 
46886 
46936 
46896 
46838 
46789 
46792 
46782 
46776 
46826 
46879 
46882 
46826 
46821 
46846 
46830 
46868 
46904 
46836 
46776 
46775 
46799 
46818 
46816 
46823 
46873 
46856 
46812 
46787 
46776 
46797 
46810 
46809 
46843 
46853 
46840 
46832 
46809 
46771 
46779 
46814 
46846 
46858 
46901 
46921 
46930 
46946 
46936 
46957 
47002 
46971 
46939 
46975 
47028 
47093 
47067 
47051 
47094 
47108 
47142 
47161 
47095 
47086 
47079 
47072 
47039 
47054 
47088 
47117 
47221 
47248 
47269 
47246 
47217 
47162 
47119 
47105 
47087 
47071 
47045 
47129 
47173 
47148 
47158 
47226 
47288 
47269 
47244 
47250 
47276 
47282 
47259 
47288 
47336 
47339 
47358 
47337 
47301 
47271 
47278 
47319 
47311 
47287 
47286 
47284 
47259 
47246 
47216 
47193 
47265 
47315 
47347 
47374 
47364 
47377 
47397 
47417 
47429 
47398 
47390 
47371 
47369 
47425 
47442 
47421 
47430 
47463 
47437 
47438 
47415 
47413 
47428 
47431 
47447 
47440 
47428 
47406 
47343 
47268 
47269 
47332 
47348 
47276 
47199 
47191 
47191 
47167 
47164 
47192 
47241 
47217 
47189 
47119 
47074 
47088 
47087 
47070 
47088 
47105 
47090 
47018 
46955 
46923 
46906 
46898 
46935 
46967 
46935 
46861 
46830 
46822 
46802 
46813 
46787 
46746 
46722 
46707 
46672 
46653 
46645 
46650 
46682 
46673 
46714 
46781 
46805 
46832 
46812 
46771 
46709 
46718 
46735 
46721 
46720 
46743 
46704 
46690 
46719 
46798 
46788 
46819 
46858 
46811 
46760 
46707 
46700 
46767 
46750 
46680 
46698 
46727 
46764 
46741 
46716 
46666 
46670 
46655 
46662 
46686 
46657 
46639 
46632 
46654 
46667 
46665 
46672 
46694 
46706 
46709 
46717 
46708 
46678 
46694 
46683 
46706 
46714 
46683 
46619 
46679 
46767 
46803 
46773 
46754 
46750 
46788 
46808 
46795 
46778 
46774 
46772 
46722 
46668 
46678 
46698 
46722 
46698 
46701 
46706 
46683 
46657 
46647 
46656 
46682 
46750 
46780 
46757 
46773 
46827 
46846 
46869 
46827 
46758 
46769 
46811 
46830 
46791 
46768 
46812 
46872 
46939 
46942 
46996 
47044 
47067 
47064 
47042 
47047 
47061 
47049 
47030 
47033 
47024 
47096 
47104 
47161 
47226 
47220 
47201 
47197 
47177 
47148 
47159 
47210 
47220 
47204 
47230 
47282 
47299 
47295 
47284 
47273 
47255 
47267 
47253 
47263 
47262 
47281 
47287 
47237 
47224 
47296 
47363 
47379 
47407 
47372 
47285 
47297 
47318 
47307 
47294 
47269 
47290 
47327 
47345 
47320 
47268 
47290 
47332 
47361 
47373 
47368 
47371 
47332 
47275 
47310 
47317 
47366 
47390 
47420 
47418 
47400 
47399 
47380 
47400 
47388 
47296 
47276 
47305 
47376 
47435 
47474 
47501 
47474 
47408 
47384 
47374 
47411 
47442 
47442 
47423 
47404 
47374 
47398 
47414 
47404 
47374 
47371 
47418 
47461 
47521 
47546 
47543 
47561 
47635 
47716 
47685 
47646 
47633 
47588 
47576 
47593 
47542 
47508 
47515 
47520 
47538 
47549 
47531 
47474 
47485 
47469 
47477 
47519 
47500 
47448 
47436 
47477 
47465 
47464 
47481 
47458 
47465 
47416 
47392 
47399 
47381 
47370 
47288 
47272 
47276 
47245 
47222 
47211 
47180 
47141 
47154 
47174 
47116 
47110 
47089 
47093 
47102 
47070 
47038 
47046 
47084 
47147 
47167 
47168 
47144 
47116 
47097 
47078 
47078 
47041 
47027 
47016 
47036 
47042 
47017 
47034 
47025 
47001 
46981 
46963 
46976 
47017 
46999 
46915 
46915 
46985 
47022 
47098 
47122 
47052 
47029 
47050 
47061 
47081 
47015 
46913 
46885 
46883 
46882 
46896 
46894 
46866 
46854 
46827 
46824 
46814 
46786 
46781 
46850 
46891 
46957 
46955 
47007 
47104 
47110 
47098 
47106 
47133 
47171 
47191 
47199 
47168 
47199 
47247 
47254 
47308 
47326 
47356 
47381 
47399 
47398 
47421 
47479 
47489 
47459 
47478 
47543 
47580 
47595 
47597 
47648 
47692 
47706 
47762 
47793 
47833 
47860 
47855 
47848 
47925 
47928 
47915 
47924 
47919 
47976 
48070 
48115 
48154 
48103 
48051 
48068 
48040 
48055 
48110 
48146 
48162 
48150 
48099 
48054 
48061 
48096 
48039 
47942 
47906 
47908 
47938 
47928 
47910 
47912 
47955 
47946 
47926 
47892 
47830 
47786 
47775 
47754 
47748 
47699 
47679 
47740 
47779 
47800 
47783 
47754 
47725 
47713 
47712 
47687 
47726 
47738 
47754 
47775 
47763 
47803 
47863 
47848 
47787 
47781 
47801 
47824 
47804 
47780 
47773 
47819 
47857 
47859 
47894 
47891 
47876 
47903 
47931 
47924 
47905 
47901 
47900 
47945 
47999 
47974 
47957 
47968 
47986 
48025 
48014 
47949 
47959 
47975 
47928 
47921 
47953 
47969 
47990 
47948 
47957 
47987 
48006 
48032 
48059 
48079 
48081 
48136 
48110 
48064 
48094 
48147 
48179 
48191 
48223 
48261 
48312 
48302 
48321 
48357 
48409 
48432 
48443 
48477 
48455 
48467 
48533 
48525 
48479 
48475 
48491 
48467 
48473 
48495 
48473 
48471 
48492 
48539 
48574 
48615 
48644 
48678 
48762 
48781 
48741 
48731 
48719 
48707 
48693 
48679 
48694 
48739 
48795 
48797 
48798 
48806 
48792 
48775 
48771 
48745 
48749 
48750 
48782 
48826 
48848 
48860 
48858 
48850 
48816 
48793 
48817 
48875 
48960 
48994 
49072 
49167 
49246 
49353 
49438 
49523 
49669 
49848 
50086 
50281 
50487 
50705 
50896 
51095 
51377 
51631 
51799 
51941 
52177 
52429 
52634 
52835 
53062 
53252 
53405 
53608 
53773 
53906 
53992 
54107 
54212 
54361 
54479 
54601 
54779 
54883 
54986 
55060 
55126 
55189 
55221 
55282 
55370 
55423 
55458 
55484 
55557 
55596 
55651 
55688 
55649 
55607 
55601 
55593 
55619 
55654 
55681 
55673 
55667 
55735 
55816 
55926 
55972 
55911 
55924 
55975 
56019 
56030 
56017 
56035 
56131 
56188 
56182 
56187 
56259 
56304 
56374 
56467 
56555 
56643 
56735 
56843 
56905 
56958 
57011 
57037 
57029 
57058 
57053 
57077 
57143 
57204 
57180 
57129 
57066 
57011 
56924 
56869 
56793 
56689 
56602 
56532 
56442 
56344 
56221 
56122 
56004 
55878 
55758 
55623 
55480 
55378 
55321 
55246 
55171 
55093 
54969 
54880 
54782 
54684 
54570 
54455 
54374 
54285 
54184 
54082 
53956 
53857 
53775 
53712 
53626 
53489 
53364 
53254 
53087 
52903 
52787 
52706 
52604 
52513 
52449 
52380 
52312 
52273 
52176 
52044 
51900 
51732 
51581 
51478 
51364 
51255 
51176 
51098 
50991 
50893 
50746 
50631 
50535 
50451 
50336 
50214 
50118 
49992 
49856 
49783 
49683 
49615 
49486 
49306 
49120 
48933 
48764 
48618 
48451 
48267 
48087 
47962 
47846 
47720 
47569 
47468 
47422 
47305 
47181 
47075 
46998 
46916 
46862 
46785 
46663 
46541 
46446 
46334 
46263 
46151 
46065 
46031 
45935 
45875 
45863 
45818 
45763 
45729 
45684 
45653 
45610 
45541 
45533 
45460 
45295 
45131 
44972 
44944 
44899 
44819 
44752 
44666 
44557 
44462 
44365 
44289 
44184 
44062 
43936 
43863 
43772 
43638 
43571 
43545 
43455 
43288 
43157 
43042 
42914 
42782 
42672 
42580 
42483 
42326 
42222 
42143 
42116 
42048 
41967 
41883 
41726 
41553 
41485 
41431 
41386 
41355 
41261 
41125 
40991 
40966 
41024 
41074 
41123 
41092 
41050 
41021 
41016 
41001 
40970 
40954 
40917 
40891 
40875 
40819 
40792 
40742 
40742 
40728 
40650 
40602 
40586 
40518 
40435 
40393 
40351 
40317 
40292 
40287 
40245 
40160 
40111 
40030 
39938 
39937 
39947 
39872 
39780 
39781 
39704 
39587 
39502 
39396 
39324 
39304 
39327 
39289 
39211 
39106 
39040 
39069 
39014 
38944 
38872 
38817 
38752 
38639 
38573 
38460 
38380 
38333 
38309 
38307 
38260 
38206 
38202 
38198 
38207 
38214 
38188 
38090 
38045 
38044 
38029 
38050 
38007 
37934 
37903 
37839 
37862 
37881 
37863 
37825 
37803 
37877 
37962 
37930 
37920 
37944 
37935 
37961 
37972 
37958 
37949 
37989 
38001 
37995 
38002 
37922 
37887 
37907 
37902 
37925 
37948 
37922 
37930 
37977 
38033 
38096 
38125 
38189 
38163 
38147 
38224 
38231 
38229 
38208 
38173 
38182 
38225 
38225 
38224 
38243 
38253 
38309 
38391 
38396 
38351 
38388 
38470 
38488 
38506 
38524 
38564 
38580 
38593 
38657 
38699 
38718 
38706 
38713 
38691 
38699 
38782 
38821 
38830 
38803 
38863 
38953 
38975 
38974 
39061 
39078 
39102 
39171 
39157 
39085 
39079 
39175 
39288 
39316 
39257 
39200 
39177 
39162 
39136 
39141 
39192 
39225 
39263 
39316 
39367 
39399 
39387 
39405 
39426 
39429 
39387 
39407 
39438 
39441 
39381 
39413 
39482 
39454 
39413 
39404 
39411 
39474 
39477 
39492 
39487 
39472 
39502 
39515 
39527 
39529 
39561 
39588 
39617 
39663 
39685 
39667 
39658 
39681 
39727 
39755 
39711 
39698 
39744 
39781 
39744 
39740 
39767 
39789 
39843 
39888 
39897 
39989 
40039 
40083 
40058 
40015 
40042 
40070 
40041 
40037 
40115 
40157 
40168 
40178 
40182 
40183 
40172 
40169 
40216 
40289 
40386 
40356 
40303 
40275 
40272 
40261 
40296 
40333 
40309 
40342 
40349 
40374 
40363 
40325 
40299 
40250 
40221 
40179 
40057 
39954 
39929 
39809 
39731 
39716 
39671 
39607 
39505 
39358 
39250 
39077 
38861 
38654 
38452 
38205 
38007 
37813 
37623 
37387 
37174 
36957 
36706 
36481 
36334 
36196 
36070 
36003 
35946 
35825 
35707 
35573 
35467 
35419 
35438 
35406 
35344 
35315 
35306 
35279 
35308 
35310 
35327 
35283 
35266 
35236 
35214 
35185 
35174 
35216 
35213 
35179 
35130 
35126 
35109 
35098 
35069 
35023 
34984 
34950 
34925 
34886 
34800 
34749 
34727 
34764 
34797 
34782 
34761 
34746 
34794 
34827 
34882 
34961 
34997 
35032 
35064 
35130 
35218 
35331 
35458 
35589 
35710 
35840 
35968 
36030 
36101 
36182 
36285 
36397 
36515 
36659 
36766 
36803 
36887 
36982 
37091 
37184 
37249 
37379 
37459 
37549 
37652 
37795 
37924 
38005 
38021 
38083 
38176 
38297 
38395 
38454 
38549 
38646 
38753 
38831 
38904 
39016 
39165 
39268 
39311 
39348 
39421 
39454 
39462 
39600 
39735 
39851 
39912 
39926 
39937 
39984 
40032 
40148 
40281 
40381 
40427 
40498 
40611 
40626 
40611 
40705 
40783 
40871 
40900 
40944 
40981 
41014 
41052 
41070 
41079 
41096 
41150 
41189 
41240 
41290 
41300 
41376 
41401 
41418 
41479 
41528 
41501 
41531 
41581 
41567 
41518 
41516 
41536 
41525 
41525 
41477 
41429 
41425 
41493 
41549 
41536 
41587 
41664 
41685 
41722 
41739 
41752 
41842 
41904 
41921 
41955 
41978 
42051 
42134 
42194 
42234 
42245 
42258 
42310 
42370 
42399 
42442 
42567 
42669 
42709 
42756 
42817 
42895 
42946 
42958 
43016 
43063 
43078 
43074 
43126 
43190 
43274 
43280 
43258 
43243 
43287 
43357 
43420 
43424 
43465 
43473 
43452 
43475 
43505 
43512 
43497 
43443 
43467 
43490 
43562 
43625 
43585 
43602 
43636 
43635 
43614 
43645 
43733 
43780 
43800 
43774 
43762 
43817 
43847 
43827 
43870 
43894 
43849 
43807 
43854 
43844 
43852 
43845 
43810 
43843 
43884 
43944 
43943 
43958 
43974 
43952 
43948 
43899 
43893 
43886 
43892 
43947 
44007 
44110 
44169 
44161 
44157 
44150 
44209 
44273 
44237 
44198 
44217 
44199 
44199 
44213 
44246 
44259 
44239 
44220 
44228 
44211 
44184 
44230 
44170 
44136 
44158 
44173 
44176 
44203 
44268 
44299 
44299 
44275 
44222 
44155 
44172 
44240 
44272 
44265 
44240 
44229 
44255 
44275 
44319 
44314 
44288 
44275 
44269 
44233 
44173 
44181 
44150 
44115 
44167 
44223 
44218 
44204 
44185 
44169 
44166 
44130 
44078 
44081 
44075 
44072 
44032 
44027 
44032 
44024 
43981 
43978 
43944 
43897 
43836 
43849 
43844 
43851 
43812 
43794 
43777 
43776 
43801 
43841 
43831 
43738 
43660 
43602 
43586 
43565 
43544 
43566 
43558 
43507 
43560 
43608 
43576 
43528 
43500 
43504 
43470 
43392 
43336 
43302 
43295 
43264 
43202 
43137 
43095 
43123 
43070 
43006 
42943 
42890 
42887 
42907 
42857 
42846 
42853 
42816 
42767 
42701 
42651 
42629 
42579 
42563 
42543 
42466 
42451 
42480 
42452 
42399 
42316 
42241 
42201 
42173 
42186 
42178 
42150 
42124 
42079 
42027 
41961 
41849 
41796 
41731 
41704 
41694 
41698 
41645 
41596 
41582 
41496 
41375 
41393 
41423 
41364 
41297 
41232 
41174 
41135 
41092 
41084 
41073 
41009 
40939 
40908 
40882 
40849 
40825 
40802 
40818 
40786 
40765 
40796 
40795 
40801 
40777 
40697 
40637 
40608 
40617 
40602 
40612 
40577 
40592 
40644 
40620 
40632 
40649 
40637 
40621 
40623 
40617 
40597 
40609 
40598 
40551 
40580 
40626 
40638 
40695 
40787 
40824 
40793 
40707 
40660 
40648 
40665 
40654 
40651 
40645 
40667 
40660 
40678 
40716 
40688 
40668 
40739 
40788 
40790 
40817 
40842 
40879 
40900 
40939 
40985 
41001 
40952 
40928 
40976 
41027 
41041 
41018 
40987 
40981 
41036 
41073 
41104 
41154 
41208 
41257 
41261 
41273 
41253 
41248 
41363 
41412 
41444 
41518 
41535 
41550 
41568 
41646 
41674 
41654 
41666 
41727 
41768 
41729 
41752 
41793 
41809 
41793 
41833 
41820 
41831 
41846 
41879 
41876 
41850 
41900 
41924 
41948 
41997 
42037 
42079 
42149 
42218 
42238 
42302 
42348 
42300 
42326 
42348 
42375 
42390 
42426 
42462 
42417 
42385 
42356 
42368 
42424 
42435 
42433 
42448 
42434 
42445 
42490 
42482 
42499 
42565 
42634 
42622 
42634 
42660 
42699 
42664 
42677 
42740 
42778 
42807 
42835 
42791 
42853 
42909 
42893 
42903 
42930 
42925 
42968 
42918 
42828 
42803 
42743 
42692 
42674 
42684 
42657 
42642 
42691 
42679 
42600 
42573 
42614 
42592 
42532 
42461 
42396 
42359 
42373 
42418 
42461 
42473 
42423 
42419 
42495 
42556 
42497 
42450 
42450 
42409 
42379 
42372 
42348 
42329 
42335 
42350 
42373 
42364 
42341 
42320 
42328 
42315 
42300 
42278 
42240 
42223 
42201 
42161 
42168 
42183 
42211 
42336 
42398 
42389 
42383 
42373 
42361 
42386 
42351 
42303 
42316 
42303 
42297 
42336 
42369 
42405 
42437 
42417 
42407 
42372 
42349 
42398 
42468 
42493 
42488 
42488 
42494 
42486 
42477 
42493 
42489 
42495 
42483 
42452 
42400 
42415 
42477 
42532 
42505 
42447 
42408 
42406 
42424 
42518 
42563 
42569 
42538 
42546 
42515 
42543 
42602 
42625 
42668 
42671 
42697 
42736 
42721 
42700 
42671 
42646 
42662 
42676 
42738 
42759 
42707 
42709 
42756 
42779 
42854 
42907 
43010 
43027 
42981 
43014 
43014 
43021 
43081 
43155 
43138 
43172 
43204 
43238 
43247 
43192 
43209 
43249 
43283 
43331 
43357 
43344 
43310 
43355 
43405 
43469 
43511 
43495 
43452 
43419 
43432 
43476 
43468 
43462 
43473 
43498 
43524 
43559 
43574 
43574 
43548 
43550 
43563 
43637 
43681 
43666 
43699 
43714 
43685 
43630 
43655 
43706 
43708 
43699 
43737 
43739 
43678 
43674 
43694 
43727 
43771 
43783 
43773 
43720 
43672 
43636 
43622 
43640 
43671 
43682 
43661 
43643 
43596 
43585 
43609 
43593 
43549 
43490 
43468 
43435 
43410 
43344 
43228 
43195 
43185 
43183 
43165 
43108 
43041 
42991 
42923 
42885 
42940 
42965 
42936 
42878 
42887 
42956 
42898 
42816 
42758 
42712 
42715 
42705 
42694 
42740 
42751 
42711 
42651 
42634 
42649 
42649 
42640 
42695 
42741 
42721 
42665 
42627 
42596 
42622 
42589 
42518 
42523 
42582 
42587 
42598 
42614 
42605 
42554 
42525 
42544 
42546 
42543 
42585 
42600 
42595 
42580 
42550 
42574 
42636 
42657 
42624 
42632 
42605 
42541 
42607 
42618 
42647 
42631 
42616 
42615 
42583 
42558 
42621 
42667 
42636 
42636 
42625 
42614 
42585 
42618 
42645 
42667 
42651 
42627 
42631 
42686 
42764 
42784 
42736 
42716 
42774 
42828 
42860 
42841 
42805 
42792 
42856 
42846 
42823 
42839 
42844 
42832 
42821 
42797 
42824 
42896 
42918 
42898 
42881 
42842 
42776 
42807 
42896 
42935 
42997 
43014 
42990 
42995 
43019 
43015 
43002 
42995 
43003 
43027 
43057 
43064 
43111 
43181 
43144 
43156 
43220 
43237 
43166 
43162 
43188 
43208 
43196 
43207 
43225 
43237 
43259 
43278 
43284 
43312 
43307 
43306 
43327 
43350 
43340 
43327 
43371 
43369 
43425 
43463 
43367 
43337 
43356 
43385 
43367 
43365 
43339 
43374 
43351 
43281 
43271 
43230 
43200 
43202 
43151 
43087 
43017 
42953 
42900 
42912 
42890 
42804 
42830 
42839 
42785 
42805 
42758 
42691 
42687 
42666 
42640 
42572 
42501 
42502 
42561 
42573 
42554 
42601 
42615 
42560 
42504 
42508 
42471 
42390 
42353 
42367 
42351 
42343 
42381 
42386 
42289 
42276 
42293 
42301 
42326 
42322 
42242 
42201 
42220 
42276 
42304 
42302 
42348 
42422 
42428 
42385 
42408 
42382 
42343 
42316 
42376 
42400 
42313 
42274 
42340 
42325 
42281 
42260 
42314 
42362 
42411 
42428 
42461 
42471 
42445 
42423 
42487 
42553 
42568 
42564 
42587 
42613 
42626 
42583 
42601 
42616 
42600 
42615 
42698 
42738 
42722 
42661 
42632 
42662 
42708 
42719 
42689 
42660 
42678 
42692 
42790 
42846 
42847 
42833 
42922 
43018 
43016 
42946 
42952 
42974 
43028 
43034 
43005 
43052 
43077 
43046 
43101 
43186 
43260 
43281 
43325 
43342 
43286 
43240 
43248 
43308 
43299 
43279 
43302 
43294 
43311 
43324 
43370 
43471 
43511 
43542 
43555 
43583 
43640 
43728 
43754 
43678 
43614 
43588 
43570 
43630 
43663 
43630 
43689 
43788 
43758 
43706 
43697 
43732 
43711 
43722 
43719 
43731 
43743 
43725 
43688 
43701 
43749 
43832 
43883 
43853 
43796 
43810 
43831 
43860 
43891 
43848 
43826 
43830 
43774 
43696 
43657 
43682 
43618 
43546 
43496 
43457 
43418 
43396 
43309 
43226 
43190 
43190 
43143 
43098 
43081 
43030 
42979 
42973 
42969 
42950 
42900 
42900 
42893 
42840 
42830 
42796 
42749 
42728 
42713 
42709 
42708 
42727 
42730 
42703 
42657 
42601 
42563 
42552 
42564 
42600 
42621 
42545 
42520 
42518 
42522 
42544 
42572 
42603 
42633 
42672 
42621 
42649 
42588 
42474 
42451 
42511 
42582 
42704 
42749 
42779 
42813 
42781 
42730 
42752 
42794 
42818 
42837 
42798 
42792 
42801 
42846 
42837 
42849 
42889 
42965 
43001 
42995 
42980 
42998 
43038 
43090 
43087 
43045 
43011 
43035 
43062 
43068 
43097 
43127 
43126 
43160 
43183 
43196 
43227 
43232 
43232 
43258 
43263 
43253 
43230 
43230 
43269 
43334 
43355 
43404 
43459 
43472 
43487 
43548 
43595 
43629 
43626 
43633 
43615 
43619 
43593 
43594 
43692 
43762 
43764 
43757 
43805 
43883 
43924 
43963 
43957 
43967 
44027 
44060 
44072 
44088 
44109 
44119 
44090 
44035 
44046 
44033 
44022 
44074 
44074 
44065 
44061 
44090 
44111 
44177 
44230 
44263 
44257 
44181 
44174 
44181 
44211 
44257 
44275 
44270 
44262 
44263 
44282 
44286 
44255 
44241 
44261 
44274 
44357 
44428 
44476 
44464 
44404 
44397 
44448 
44498 
44511 
44498 
44489 
44555 
44648 
44677 
44673 
44636 
44614 
44647 
44653 
44664 
44658 
44617 
44579 
44584 
44558 
44464 
44381 
44394 
44405 
44407 
44405 
44356 
44308 
44298 
44277 
44253 
44242 
44190 
44158 
44113 
44063 
44028 
44043 
44058 
44068 
44032 
43977 
43961 
43946 
43966 
43968 
43974 
43946 
43891 
43875 
43870 
43904 
43905 
43883 
43912 
43885 
43820 
43790 
43815 
43752 
43672 
43678 
43724 
43691 
43607 
43576 
43518 
43533 
43610 
43594 
43579 
43605 
43635 
43618 
43626 
43650 
43644 
43678 
43708 
43754 
43768 
43740 
43759 
43816 
43807 
43815 
43827 
43834 
43845 
43862 
43872 
43872 
43914 
43969 
43941 
43922 
43953 
43969 
43958 
43970 
43913 
43862 
43923 
43993 
44025 
44051 
44063 
44039 
44030 
44132 
44210 
44198 
44171 
44190 
44184 
44212 
44225 
44221 
44242 
44255 
44241 
44241 
44278 
44324 
44374 
44413 
44405 
44369 
44365 
44399 
44485 
44552 
44578 
44630 
44646 
44617 
44610 
44657 
44660 
44663 
44659 
44699 
44781 
44829 
44834 
44896 
44887 
44869 
44855 
44868 
44865 
44903 
44928 
44968 
45011 
45035 
45073 
45095 
45065 
45041 
45058 
45084 
45057 
45105 
45111 
45141 
45154 
45153 
45189 
45189 
45173 
45148 
45153 
45182 
45209 
45227 
45244 
45289 
45280 
45250 
45240 
45301 
45320 
45330 
45332 
45326 
45307 
45301 
45330 
45314 
45313 
45304 
45294 
45272 
45259 
45265 
45346 
45418 
45439 
45438 
45448 
45412 
45377 
45356 
45362 
45362 
45342 
45294 
45256 
45226 
45260 
45284 
45237 
45143 
45075 
44976 
44880 
44817 
44731 
44670 
44631 
44598 
44593 
44575 
44540 
44458 
44382 
44339 
44346 
44318 
44284 
44240 
44203 
44207 
44243 
44232 
44252 
44221 
44155 
44105 
44045 
44008 
44009 
44026 
44027 
43986 
43927 
43951 
43963 
43979 
44001 
43967 
43930 
43884 
43850 
43910 
43946 
43964 
43987 
43964 
43945 
43916 
43884 
43915 
43963 
43985 
44017 
44038 
44058 
44072 
44096 
44099 
44127 
44107 
44075 
44106 
44184 
44208 
44180 
44149 
44139 
44118 
44141 
44141 
44086 
44078 
44062 
44067 
44074 
44043 
44064 
44096 
44116 
44109 
44125 
44160 
44176 
44168 
44145 
44229 
44362 
44378 
44342 
44366 
44387 
44386 
44402 
44423 
44441 
44470 
44490 
44550 
44558 
44579 
44623 
44587 
44588 
44620 
44653 
44677 
44693 
44660 
44649 
44644 
44661 
44744 
44798 
44854 
44936 
44988 
44942 
44971 
45044 
45099 
45114 
45102 
45124 
45148 
45079 
45088 
45129 
45187 
45228 
45248 
45266 
45288 
45310 
45405 
45446 
45423 
45462 
45514 
45555 
45582 
45567 
45551 
45582 
45577 
45519 
45571 
45620 
45686 
45678 
45647 
45665 
45676 
45672 
45686 
45691 
45713 
45708 
45731 
45796 
45827 
45792 
45852 
45897 
45908 
45924 
45878 
45853 
45850 
45863 
45916 
45995 
46084 
46072 
46024 
46041 
46066 
46069 
46087 
46154 
46172 
46132 
46099 
46089 
46031 
45969 
45918 
45883 
45834 
45805 
45738 
45729 
45735 
45681 
45572 
45579 
45560 
45494 
45399 
45313 
45248 
45185 
45138 
45080 
45030 
45017 
45011 
45032 
45033 
45016 
45010 
45002 
44951 
44906 
44877 
44858 
44839 
44840 
44822 
44781 
44728 
44677 
44590 
44575 
44543 
44485 
44430 
44463 
44531 
44525 
44519 
44517 
44506 
44495 
44484 
44462 
44453 
44496 
44548 
44627 
44656 
44654 
44663 
44573 
44479 
44444 
44451 
44486 
44509 
44530 
44515 
44586 
44661 
44674 
44722 
44723 
44708 
44725 
44786 
44842 
44845 
44833 
44859 
44852 
44839 
44850 
44877 
44921 
44975 
45015 
45043 
45017 
44993 
44934 
44952 
45020 
45106 
45185 
45196 
45212 
45148 
45124 
45152 
45186 
45227 
45227 
45242 
45270 
45329 
45396 
45408 
45455 
45580 
45655 
45701 
45722 
45688 
45677 
45770 
45856 
45874 
45919 
45984 
46025 
46069 
46121 
46181 
46175 
46211 
46263 
46303 
46329 
46356 
46365 
46391 
46410 
46473 
46526 
46531 
46513 
46556 
46571 
46553 
46583 
46628 
46665 
46730 
46790 
46856 
46893 
46915 
46927 
46906 
46890 
46929 
46951 
46920 
46933 
46947 
46964 
46937 
46934 
46903 
46860 
46871 
46846 
46821 
46890 
46985 
47095 
47170 
47192 
47228 
47248 
47265 
47258 
47268 
47274 
47300 
47321 
47294 
47238 
47255 
47332 
47380 
47402 
47414 
47386 
47376 
47373 
47360 
47350 
47368 
47379 
47347 
47270 
47182 
47087 
47015 
46952 
46860 
46783 
46674 
46584 
46510 
46456 
46324 
46248 
46263 
46219 
46151 
46049 
45972 
45896 
45800 
45771 
45785 
45744 
45628 
45517 
45488 
45500 
45491 
45439 
45360 
45316 
45329 
45297 
45270 
45239 
45175 
45144 
45131 
45088 
45055 
45025 
44966 
44982 
44960 
44892 
44888 
44878 
44875 
44867 
44881 
44933 
44970 
44946 
44900 
44892 
44874 
44818 
44796 
44832 
44865 
44888 
44873 
44894 
44938 
44968 
45034 
45090 
45120 
45106 
45109 
45116 
45079 
45092 
45125 
45121 
45120 
45138 
45165 
45203 
45205 
45184 
45278 
45319 
45368 
45417 
45423 
45444 
45514 
45554 
45556 
45555 
45568 
45607 
45627 
45641 
45660 
45679 
45683 
45689 
45684 
45716 
45769 
45778 
45837 
45910 
45961 
45964 
45988 
46042 
46058 
46111 
46149 
46197 
46237 
46218 
46207 
46284 
46388 
46501 
46561 
46548 
46560 
46606 
46628 
46668 
46766 
46780 
46745 
46738 
46740 
46727 
46716 
46743 
46746 
46781 
46795 
46836 
46917 
46947 
46953 
46957 
46993 
47001 
47002 
46991 
47020 
47104 
47154 
47200 
47208 
47247 
47294 
47315 
47328 
47329 
47347 
47382 
47392 
47383 
47408 
47414 
47404 
47421 
47364 
47343 
47363 
47386 
47482 
47550 
47556 
47544 
47517 
47517 
47536 
47554 
47581 
47619 
47628 
47647 
47630 
47673 
47677 
47676 
47687 
47677 
47573 
47526 
47454 
47368 
47353 
47267 
47153 
47088 
47028 
46913 
46848 
46825 
46768 
46670 
46560 
46460 
46397 
46389 
46322 
46231 
46142 
46124 
46103 
46018 
45984 
45987 
46021 
46025 
45988 
45917 
45894 
45849 
45807 
45822 
45845 
45812 
45833 
45831 
45816 
45765 
45708 
45684 
45652 
45637 
45612 
45626 
45623 
45608 
45612 
45627 
45625 
45633 
45628 
45557 
45536 
45523 
45491 
45457 
45489 
45512 
45546 
45578 
45597 
45617 
45632 
45634 
45624 
45660 
45729 
45748 
45755 
45744 
45785 
45863 
45945 
45963 
45937 
45947 
46005 
46108 
46131 
46088 
46022 
45990 
46049 
46156 
46188 
46209 
46235 
46280 
46323 
46342 
46351 
46357 
46335 
46374 
46458 
46506 
46499 
46534 
46558 
46588 
46615 
46643 
46716 
46741 
46767 
46823 
46837 
46872 
46883 
46922 
46950 
46968 
47004 
47061 
47174 
47243 
47264 
47266 
47290 
47314 
47368 
47399 
47457 
47450 
47400 
47391 
47391 
47498 
47663 
47710 
47713 
47763 
47805 
47837 
47876 
47887 
47890 
47942 
47962 
47946 
47994 
48074 
48117 
48151 
48195 
48170 
48123 
48169 
48285 
48341 
48382 
48417 
48475 
48568 
48584 
48492 
48424 
48470 
48543 
48582 
48622 
48737 
48814 
48788 
48755 
48797 
48843 
48848 
48803 
48821 
48822 
48833 
48879 
48883 
48905 
48933 
48945 
48935 
48954 
48994 
48983 
48993 
49043 
49053 
49080 
49114 
49128 
49143 
49115 
49141 
49214 
49231 
49215 
49178 
49136 
49100 
49129 
49171 
49146 
49089 
49084 
49039 
49016 
49006 
49029 
49060 
49040 
48992 
49015 
48964 
48889 
48808 
48706 
48632 
48593 
48493 
48415 
48324 
48215 
48091 
47945 
47839 
47672 
47560 
47518 
47449 
47397 
47336 
47273 
47163 
47064 
46985 
46878 
46805 
46736 
46619 
46463 
46394 
46311 
46242 
46164 
46094 
46104 
46087 
46040 
46023 
45982 
45925 
45871 
45756 
45692 
45694 
45673 
45684 
45642 
45588 
45611 
45657 
45676 
45678 
45625 
45588 
45609 
45691 
45699 
45688 
45686 
45665 
45668 
45707 
45753 
45804 
45785 
45792 
45801 
45855 
45902 
45908 
45912 
45858 
45820 
45934 
45933 
45916 
45902 
45853 
45843 
45870 
45919 
45949 
45976 
46027 
46079 
46094 
46130 
46145 
46189 
46196 
46205 
46233 
46219 
46224 
46307 
46380 
46411 
46456 
46526 
46551 
46557 
46513 
46519 
46562 
46579 
46635 
46718 
46767 
46771 
46777 
46812 
46875 
46984 
47083 
47155 
47208 
47235 
47267 
47276 
47304 
47327 
47396 
47419 
47465 
47490 
47565 
47637 
47669 
47697 
47723 
47764 
47792 
47785 
47782 
47877 
47954 
47983 
47952 
47879 
47884 
47916 
47922 
47929 
47941 
47929 
47980 
47978 
47989 
48041 
48036 
48005 
48058 
48078 
48027 
48024 
48072 
48152 
48199 
48236 
48292 
48332 
48301 
48275 
48327 
48368 
48401 
48378 
48364 
48367 
48348 
48320 
48328 
48375 
48423 
48451 
48476 
48497 
48460 
48458 
48502 
48539 
48537 
48539 
48524 
48484 
48446 
48436 
48379 
48319 
48282 
48261 
48196 
48163 
48090 
48037 
47977 
47937 
47879 
47795 
47735 
47701 
47630 
47592 
47558 
47529 
47447 
47406 
47369 
47309 
47296 
47263 
47231 
47176 
47127 
47072 
47045 
47014 
47015 
46996 
46989 
47021 
46973 
46935 
46993 
46972 
46950 
46934 
46930 
46900 
46890 
46880 
46894 
46865 
46811 
46776 
46766 
46738 
46734 
46743 
46759 
46793 
46829 
46814 
46777 
46777 
46782 
46811 
46845 
46853 
46863 
46881 
46890 
46881 
46902 
46883 
46879 
46866 
46865 
46891 
46905 
46922 
46918 
46952 
47001 
46991 
47005 
47059 
47130 
47251 
47288 
47282 
47220 
47192 
47155 
47123 
47152 
47197 
47267 
47279 
47286 
47298 
47379 
47465 
47508 
47461 
47451 
47480 
47518 
47530 
47557 
47584 
47625 
47668 
47665 
47689 
47728 
47820 
47848 
47881 
47873 
47835 
47837 
47900 
47958 
47998 
47990 
48045 
48089 
48100 
48059 
48010 
48040 
48104 
48155 
48271 
48303 
48270 
48242 
48206 
48168 
48171 
48180 
48242 
48300 
48320 
48290 
48298 
48348 
48387 
48377 
48356 
48434 
48476 
48495 
48509 
48510 
48522 
48548 
48602 
48615 
48601 
48585 
48595 
48607 
48660 
48666 
48651 
48688 
48708 
48690 
48694 
48686 
48666 
48662 
48725 
48816 
48863 
48875 
48864 
48898 
48950 
48954 
48946 
48904 
48885 
48896 
48870 
48807 
48802 
48815 
48859 
48876 
48857 
48912 
48947 
48953 
48920 
48887 
48878 
48859 
48863 
48899 
48888 
48879 
48873 
48864 
48886 
48948 
48944 
48933 
48922 
48826 
48692 
48564 
48512 
48476 
48424 
48393 
48341 
48272 
48198 
48170 
48135 
48118 
48058 
48006 
47966 
47925 
47900 
47857 
47798 
47810 
47820 
47818 
47849 
47797 
47772 
47755 
47721 
47681 
47694 
47671 
47556 
47542 
47541 
47531 
47493 
47465 
47470 
47447 
47438 
47389 
47370 
47382 
47406 
47394 
47341 
47270 
47207 
47162 
47128 
47137 
47169 
47206 
47175 
47186 
47200 
47283 
47356 
47391 
47359 
47316 
47304 
47341 
47379 
47395 
47393 
47432 
47452 
47460 
47494 
47500 
47538 
47562 
47566 
47503 
47447 
47481 
47504 
47511 
47546 
47567 
47618 
47652 
47674 
47678 
47689 
47726 
47732 
47679 
47657 
47734 
47803 
47868 
47912 
47926 
47917 
47943 
47979 
48026 
47994 
48027 
48115 
48160 
48250 
48314 
48355 
48413 
48401 
48381 
48424 
48397 
48418 
48476 
48538 
48558 
48609 
48642 
48651 
48701 
48803 
48866 
48890 
48918 
48950 
48942 
48950 
48960 
48972 
49031 
49101 
49120 
49078 
49047 
49069 
49120 
49115 
49122 
49091 
49025 
49034 
49112 
49138 
49115 
49089 
49103 
49156 
49156 
49119 
49119 
49171 
49181 
49163 
49183 
49185 
49193 
49242 
49251 
49243 
49272 
49303 
49256 
49225 
49217 
49204 
49186 
49153 
49154 
49184 
49208 
49228 
49283 
49372 
49365 
49373 
49373 
49393 
49457 
49431 
49396 
49362 
49353 
49377 
49409 
49402 
49369 
49373 
49366 
49361 
49358 
49327 
49302 
49309 
49288 
49305 
49359 
49376 
49393 
49379 
49355 
49318 
49274 
49269 
49330 
49375 
49322 
49286 
49311 
49330 
49274 
49202 
49195 
49201 
49185 
49199 
49164 
49082 
49057 
49045 
49000 
48944 
48898 
48862 
48752 
48609 
48552 
48450 
48339 
48292 
48213 
48103 
48051 
48026 
47984 
47982 
47951 
47883 
47817 
47738 
47690 
47634 
47602 
47594 
47581 
47557 
47492 
47416 
47331 
47354 
47332 
47236 
47161 
47158 
47182 
47225 
47222 
47260 
47296 
47341 
47361 
47349 
47384 
47353 
47306 
47278 
47231 
47255 
47322 
47301 
47256 
47273 
47275 
47235 
47255 
47276 
47282 
47266 
47248 
47269 
47261 
47238 
47244 
47272 
47301 
47336 
47374 
47400 
47410 
47396 
47412 
47432 
47438 
47446 
47465 
47507 
47493 
47423 
47394 
47366 
47421 
47400 
47354 
47382 
47377 
47317 
47307 
47292 
47273 
47272 
47275 
47213 
47154 
47107 
47138 
47190 
47200 
47197 
47150 
47081 
47089 
47063 
47011 
47021 
47064 
47078 
47076 
47082 
47098 
47091 
47072 
47047 
47057 
47059 
47043 
47061 
47083 
47080 
47065 
47030 
46986 
47002 
47039 
47051 
47046 
47032 
47038 
47029 
46997 
47029 
47072 
47090 
47111 
47135 
47134 
47162 
47187 
47198 
47181 
47183 
47180 
47182 
47232 
47231 
47224 
47270 
47367 
47419 
47470 
47514 
47505 
47517 
47498 
47509 
47515 
47521 
47519 
47547 
47577 
47569 
47492 
47517 
47546 
47499 
47501 
47530 
47551 
47559 
47504 
47510 
47581 
47625 
47593 
47556 
47614 
47672 
47729 
47742 
47735 
47744 
47775 
47757 
47748 
47710 
47699 
47734 
47764 
47775 
47749 
47718 
47739 
47764 
47745 
47753 
47735 
47711 
47678 
47651 
47598 
47595 
47621 
47638 
47629 
47575 
47474 
47411 
47400 
47326 
47266 
47234 
47154 
47097 
47057 
46959 
46898 
46888 
46933 
46956 
46908 
46871 
46777 
46723 
46723 
46744 
46784 
46757 
46701 
46690 
46714 
46694 
46632 
46582 
46634 
46693 
46683 
46702 
46685 
46668 
46637 
46655 
46682 
46692 
46657 
46605 
46600 
46575 
46622 
46609 
46605 
46627 
46659 
46668 
46649 
46688 
46741 
46767 
46825 
46841 
46862 
46883 
46900 
46897 
46875 
46859 
46901 
46925 
46921 
46933 
46986 
47032 
47025 
47036 
47010 
46965 
47000 
47072 
47070 
47074 
47164 
47191 
47191 
47226 
47279 
47320 
47301 
47323 
47328 
47347 
47389 
47401 
47405 
47455 
47508 
47530 
47595 
47652 
47654 
47627 
47652 
47714 
47741 
47739 
47782 
47858 
47908 
47898 
47836 
47830 
47906 
47952 
47937 
47963 
48000 
48003 
48030 
48025 
48081 
48147 
48172 
48174 
48192 
48185 
48198 
48260 
48275 
48308 
48355 
48330 
48310 
48317 
48308 
48291 
48346 
48397 
48400 
48390 
48422 
48426 
48431 
48441 
48422 
48457 
48453 
48439 
48467 
48476 
48493 
48475 
48456 
48457 
48445 
48426 
48449 
48490 
48452 
48421 
48448 
48490 
48558 
48557 
48587 
48590 
48592 
48621 
48636 
48581 
48477 
48402 
48381 
48361 
48336 
48350 
48409 
48464 
48528 
48566 
48575 
48626 
48663 
48644 
48652 
48691 
48664 
48598 
48583 
48596 
48594 
48604 
48618 
48557 
48483 
48418 
48323 
48263 
48231 
48169 
48141 
48076 
47980 
47961 
47925 
47854 
47771 
47729 
47722 
47693 
47671 
47638 
47572 
47443 
47360 
47353 
47321 
47286 
47200 
47182 
47135 
47111 
47056 
46992 
46976 
47026 
47097 
47122 
47065 
46978 
46979 
47041 
46999 
46908 
46852 
46778 
46759 
46791 
46770 
46744 
46703 
46695 
46742 
46747 
46712 
46694 
46670 
46609 
46606 
46656 
46735 
46796 
46821 
46818 
46804 
46768 
46747 
46764 
46746 
46784 
46833 
46845 
46816 
46850 
46894 
46902 
46848 
46815 
46844 
46894 
46956 
46959 
46934 
46939 
46960 
46970 
46981 
46979 
46975 
46966 
46958 
46969 
46988 
47040 
47076 
47084 
47139 
47114 
47100 
47125 
47169 
47219 
47230 
47182 
47176 
47259 
47268 
47271 
47347 
47377 
47380 
47370 
47362 
47375 
47394 
47417 
47448 
47457 
47440 
47504 
47563 
47546 
47526 
47520 
47511 
47494 
47487 
47496 
47549 
47585 
47596 
47621 
47629 
47653 
47665 
47696 
47734 
47736 
47759 
47816 
47836 
47860 
47891 
47939 
47948 
47894 
47886 
47919 
47892 
47873 
47887 
47883 
47931 
47984 
47993 
48005 
48008 
48030 
48026 
47981 
48020 
48067 
48092 
48130 
48121 
48124 
48106 
48104 
48140 
48226 
48224 
48195 
48173 
48181 
48166 
48210 
48254 
48287 
48308 
48316 
48263 
48243 
48264 
48291 
48333 
48349 
48322 
48262 
48253 
48306 
48324 
48375 
48401 
48394 
48387 
48424 
48410 
48379 
48391 
48366 
48410 
48453 
48423 
48399 
48376 
48292 
48282 
48353 
48338 
48279 
48238 
48173 
48090 
48043 
48056 
48082 
48073 
48023 
47944 
47874 
47786 
47710 
47682 
47679 
47654 
47594 
47541 
47539 
47556 
47514 
47438 
47398 
47424 
47380 
47336 
47299 
47297 
47229 
47176 
47146 
47134 
47146 
47124 
47114 
47134 
47114 
47107 
47110 
47078 
47053 
47045 
47075 
47043 
46969 
46957 
46918 
46907 
46883 
46909 
46895 
46852 
46849 
46838 
46776 
46723 
46787 
46858 
46850 
46773 
46744 
46750 
46751 
46740 
46694 
46758 
46808 
46805 
46762 
46778 
46795 
46796 
46846 
46881 
46867 
46913 
46956 
46993 
47014 
47010 
46958 
46930 
46900 
46907 
46949 
46980 
47009 
47029 
46978 
46924 
46913 
46922 
46991 
47003 
47040 
47047 
47054 
47085 
47131 
47158 
47163 
47164 
47143 
47162 
47200 
47252 
47250 
47253 
47254 
47246 
47231 
47243 
47282 
47336 
47348 
47387 
47460 
47511 
47526 
47557 
47554 
47532 
47538 
47536 
47501 
47590 
47653 
47651 
47637 
47650 
47653 
47653 
47645 
47696 
47676 
47699 
47688 
47661 
47619 
47635 
47703 
47747 
47793 
47835 
47838 
47843 
47844 
47847 
47887 
47860 
47805 
47766 
47775 
47813 
47853 
47928 
47953 
47926 
47892 
47906 
47919 
47929 
47967 
47970 
48027 
48100 
48115 
48085 
48066 
48088 
48104 
48133 
48086 
48012 
48007 
48026 
48026 
48069 
48107 
48126 
48153 
48187 
48232 
48256 
48305 
48260 
48232 
48295 
48343 
48325 
48285 
48253 
48256 
48291 
48281 
48303 
48280 
48223 
48194 
48223 
48238 
48200 
48162 
48194 
48202 
48200 
48178 
48175 
48207 
48242 
48295 
48305 
48296 
48283 
48247 
48178 
48132 
48111 
48081 
48056 
47977 
47856 
47802 
47757 
47707 
47701 
47673 
47618 
47553 
47486 
47391 
47286 
47180 
47128 
47136 
47158 
47136 
47091 
47018 
46915 
46869 
46879 
46875 
46851 
46817 
46771 
46768 
46817 
46810 
46768 
46756 
46761 
46717 
46678 
46678 
46678 
46627 
46586 
46605 
46612 
46634 
46626 
46572 
46551 
46556 
46481 
46431 
46400 
46412 
46411 
46407 
46421 
46428 
46420 
46440 
46470 
46472 
46468 
46423 
46396 
46395 
46457 
46528 
46513 
46476 
46495 
46495 
46507 
46505 
46515 
46543 
46547 
46553 
46553 
46544 
46625 
46673 
46695 
46697 
46725 
46763 
46754 
46751 
46714 
46707 
46730 
46733 
46700 
46717 
46789 
46845 
46844 
46857 
46857 
46836 
46888 
46969 
47015 
47009 
47010 
47007 
47055 
47077 
47089 
47084 
47066 
47076 
47113 
47160 
47211 
47211 
47235 
47257 
47307 
47362 
47372 
47379 
47407 
47402 
47404 
47448 
47483 
47487 
47440 
47435 
47548 
47614 
47581 
47570 
47623 
47701 
47728 
47791 
47832 
47794 
47738 
47719 
47773 
47776 
47736 
47717 
47781 
47831 
47821 
47807 
47753 
47721 
47808 
47910 
47944 
47964 
47967 
47986 
47974 
47947 
47958 
48002 
48016 
48007 
48032 
48047 
48086 
48148 
48128 
48114 
48154 
48204 
48241 
48232 
48258 
48206 
48218 
48268 
48245 
48256 
48301 
48340 
48328 
48286 
48278 
48306 
48352 
48306 
48330 
48336 
48310 
48303 
48327 
48360 
48377 
48387 
48400 
48391 
48396 
48370 
48411 
48401 
48287 
48234 
48217 
48210 
48163 
48161 
48117 
48083 
48029 
47952 
47907 
47915 
47881 
47829 
47822 
47824 
47771 
47726 
47694 
47633 
47590 
47610 
47660 
47662 
47658 
47620 
47545 
47479 
47458 
47429 
47436 
47505 
47467 
47417 
47326 
47252 
47222 
47178 
47197 
47237 
47273 
47295 
47273 
47184 
47135 
47092 
47072 
47028 
46999 
46985 
46968 
46946 
46891 
46881 
46948 
47000 
46978 
46911 
46850 
46840 
46851 
46907 
46947 
46970 
46989 
46982 
46975 
47010 
47050 
47027 
47020 
47077 
47101 
47134 
47151 
47122 
47133 
47171 
47162 
47109 
47103 
47144 
47185 
47181 
47167 
47146 
47154 
47167 
47159 
47146 
47109 
47087 
47102 
47123 
47123 
47177 
47262 
47310 
47306 
47297 
47306 
47333 
47350 
47330 
47294 
47250 
47283 
47317 
47338 
47378 
47392 
47381 
47461 
47522 
47500 
47500 
47539 
47562 
47596 
47573 
47579 
47602 
47625 
47638 
47679 
47647 
47686 
47720 
47725 
47728 
47763 
47854 
47896 
47925 
47988 
48027 
47985 
47967 
47918 
47863 
47895 
47932 
47983 
47981 
48024 
47998 
48027 
48052 
48077 
48021 
48017 
48004 
48032 
48033 
48013 
48033 
48065 
48093 
48124 
48173 
48190 
48192 
48154 
48185 
48182 
48163 
48173 
48161 
48176 
48226 
48243 
48248 
48233 
48212 
48220 
48227 
48221 
48226 
48230 
48235 
48255 
48276 
48261 
48287 
48295 
48297 
48308 
48323 
48297 
48310 
48322 
48322 
48334 
48378 
48431 
48470 
48464 
48460 
48377 
48289 
48302 
48303 
48258 
48185 
48125 
48115 
48046 
47978 
47942 
47925 
47862 
47807 
47785 
47715 
47662 
47581 
47561 
47533 
47469 
47398 
47359 
47296 
47237 
47200 
47133 
47104 
47057 
47037 
47026 
47013 
46962 
46952 
46940 
46873 
46854 
46844 
46870 
46894 
46865 
46816 
46732 
46667 
46688 
46691 
46692 
46687 
46618 
46616 
46666 
46648 
46640 
46619 
46584 
46543 
46515 
46527 
46534 
46528 
46575 
46570 
46513 
46492 
46563 
46540 
46520 
46547 
46511 
46484 
46469 
46524 
46583 
46603 
46609 
46608 
46595 
46582 
46607 
46641 
46666 
46663 
46567 
46526 
46535 
46553 
46608 
46699 
46761 
46756 
46794 
46810 
46833 
46853 
46893 
46868 
46876 
46912 
46940 
46950 
46985 
47058 
47118 
47146 
47159 
47175 
47173 
47166 
47193 
47213 
47232 
47253 
47263 
47306 
47351 
47361 
47399 
47452 
47407 
47374 
47418 
47467 
47499 
47554 
47575 
47601 
47691 
47746 
47767 
47746 
47710 
47712 
47778 
47821 
47875 
47907 
47935 
47972 
48020 
48033 
47936 
47953 
47993 
48022 
48054 
48075 
48091 
48104 
48087 
48092 
48127 
48166 
48208 
48244 
48247 
48258 
48233 
48248 
48285 
48329 
48357 
48322 
48318 
48337 
48316 
48347 
48401 
48412 
48437 
48422 
48420 
48425 
48429 
48439 
48473 
48485 
48514 
48508 
48499 
48482 
48486 
48469 
48462 
48458 
48395 
48380 
48374 
48414 
48421 
48504 
48540 
48584 
48587 
48526 
48517 
48536 
48457 
48441 
48492 
48528 
48526 
48510 
48487 
48477 
48468 
48480 
48482 
48468 
48370 
48323 
48324 
48344 
48322 
48298 
48268 
48229 
48165 
48092 
48051 
48001 
47983 
47936 
47887 
47763 
47675 
47637 
47588 
47543 
47512 
47508 
47505 
47405 
47307 
47280 
47263 
47264 
47229 
47198 
47147 
47125 
47109 
47092 
47041 
47020 
46981 
46947 
46904 
46878 
46919 
46917 
46878 
46873 
46823 
46823 
46800 
46768 
46750 
46748 
46700 
46657 
46682 
46710 
46692 
46672 
46633 
46657 
46696 
46692 
46664 
46703 
46733 
46726 
46711 
46729 
46755 
46775 
46780 
46795 
46796 
46780 
46751 
46744 
46809 
46852 
46875 
46845 
46794 
46852 
46876 
46861 
46878 
46936 
46975 
47018 
47007 
47059 
47098 
47077 
47066 
47044 
47039 
47028 
46967 
46965 
47029 
47092 
47107 
47095 
47100 
47107 
47162 
47218 
47246 
47252 
47247 
47268 
47331 
47371 
47373 
47414 
47442 
47477 
47529 
47521 
47525 
47502 
47443 
47434 
47449 
47446 
47451 
47487 
47500 
47509 
47525 
47554 
47561 
47562 
47569 
47507 
47516 
47604 
47665 
47694 
47746 
47816 
47828 
47807 
47789 
47732 
47718 
47742 
47803 
47852 
47898 
47887 
47860 
47805 
47853 
47902 
47924 
47941 
47926 
47947 
48012 
48093 
48130 
48099 
48016 
48002 
48040 
48036 
48051 
48066 
48097 
48093 
48071 
48082 
48102 
48085 
48138 
48167 
48141 
48137 
48217 
48252 
48259 
48254 
48272 
48245 
48197 
48165 
48145 
48162 
48185 
48179 
48150 
48125 
48180 
48187 
48194 
48207 
48270 
48290 
48300 
48320 
48314 
48252 
48267 
48305 
48314 
48329 
48307 
48251 
48218 
48193 
48170 
48143 
48147 
48151 
48110 
48087 
48062 
48035 
47960 
47919 
47856 
47800 
47762 
47675 
47605 
47557 
47521 
47460 
47422 
47354 
47287 
47273 
47295 
47284 
47206 
47153 
47062 
47007 
46977 
46982 
46971 
46956 
46928 
46886 
46832 
46787 
46782 
46785 
46817 
46868 
46858 
46808 
46827 
46846 
46761 
46695 
46731 
46750 
46692 
46672 
46676 
46675 
46676 
46703 
46725 
46717 
46679 
46668 
46690 
46709 
46663 
46635 
46606 
46622 
46633 
46670 
46725 
46742 
46744 
46759 
46834 
46872 
46839 
46818 
46827 
46819 
46857 
46899 
46873 
46863 
46883 
46852 
46869 
46928 
46965 
46971 
46948 
46939 
46969 
47005 
47003 
47038 
46990 
46976 
47011 
47054 
47121 
47138 
47124 
47125 
47135 
47119 
47148 
47206 
47259 
47302 
47321 
47333 
47379 
47392 
47386 
47387 
47387 
47376 
47345 
47329 
47303 
47295 
47352 
47373 
47420 
47513 
47571 
47593 
47591 
47609 
47685 
47686 
47659 
47651 
47661 
47689 
47746 
47772 
47769 
47757 
47768 
47818 
47900 
47934 
47902 
47892 
47919 
47952 
47985 
47981 
47980 
48013 
48035 
47982 
47943 
47936 
47979 
48022 
48063 
48119 
48190 
48197 
48198 
48194 
48215 
48224 
48191 
48182 
48214 
48233 
48264 
48257 
48264 
48266 
48271 
48248 
48300 
48307 
48295 
48277 
48301 
48312 
48353 
48384 
48388 
48451 
48531 
48545 
48533 
48539 
48494 
48443 
48497 
48524 
48559 
48531 
48438 
48367 
48323 
48278 
48280 
48265 
48211 
48193 
48197 
48179 
48131 
48118 
48132 
48074 
48032 
47958 
47862 
47815 
47817 
47800 
47781 
47720 
47599 
47507 
47482 
47492 
47550 
47524 
47391 
47307 
47238 
47203 
47174 
47143 
47100 
47078 
47100 
47128 
47109 
47029 
46968 
46942 
46941 
46971 
47074 
47132 
47133 
47136 
47121 
47082 
47063 
47033 
46993 
46970 
46941 
46907 
46893 
46908 
46924 
46935 
46976 
46972 
46998 
46962 
46930 
46926 
46881 
46837 
46892 
46968 
47004 
46983 
46995 
47045 
47101 
47140 
47119 
47111 
47141 
47191 
47206 
47211 
47209 
47201 
47156 
47120 
47171 
47209 
47266 
47361 
47368 
47394 
47399 
47358 
47396 
47410 
47409 
47433 
47394 
47439 
47499 
47483 
47536 
47561 
47628 
47666 
47641 
47684 
47753 
47784 
47826 
47849 
47883 
47908 
47866 
47829 
47867 
47876 
47867 
47883 
47925 
47993 
47982 
48009 
48085 
48093 
48043 
48036 
48050 
48088 
48098 
48120 
48170 
48245 
48295 
48313 
48378 
48419 
48419 
48411 
48396 
48404 
48465 
48475 
48476 
48460 
48476 
48532 
48582 
48587 
48568 
48587 
48627 
48626 
48529 
48496 
48564 
48633 
48701 
48715 
48746 
48726 
48714 
48722 
48740 
48747 
48721 
48723 
48734 
48729 
48687 
48701 
48765 
48787 
48745 
48738 
48781 
48794 
48840 
48838 
48775 
48767 
48773 
48756 
48768 
48776 
48747 
48723 
48772 
48822 
48800 
48835 
48812 
48810 
48831 
48811 
48762 
48809 
48814 
48799 
48825 
48855 
48805 
48817 
48818 
48775 
48758 
48723 
48722 
48700 
48617 
48573 
48494 
48402 
48331 
48332 
48293 
48223 
48178 
48169 
48147 
48125 
48033 
47962 
47898 
47834 
47818 
47785 
47781 
47752 
47710 
47680 
47601 
47590 
47631 
47653 
47567 
47459 
47421 
47409 
47349 
47281 
47292 
47348 
47366 
47373 
47351 
47318 
47290 
47293 
47298 
47291 
47245 
47218 
47202 
47171 
47129 
47099 
47103 
47068 
47076 
47092 
47086 
47077 
47110 
47132 
47163 
47179 
47184 
47174 
47203 
47192 
47164 
47187 
47242 
47259 
47272 
47295 
47291 
47286 
47267 
47288 
47289 
47263 
47297 
47322 
47298 
47250 
47230 
47219 
47219 
47280 
47296 
47287 
47300 
47312 
47348 
47351 
47320 
47353 
47426 
47442 
47420 
47434 
47439 
47425 
47446 
47503 
47563 
47577 
47536 
47467 
47488 
47504 
47515 
47495 
47453 
47489 
47530 
47578 
47622 
47613 
47632 
47617 
47612 
47601 
47622 
47678 
47669 
47690 
47666 
47703 
47805 
47837 
47863 
47869 
47824 
47781 
47799 
47817 
47801 
47824 
47828 
47843 
47866 
47799 
47832 
47977 
48049 
48029 
48006 
47988 
47995 
48011 
48028 
48041 
47999 
47978 
48004 
48033 
48010 
47996 
47965 
48021 
48053 
48044 
48056 
48122 
48128 
48134 
48196 
48256 
48317 
48320 
48290 
48283 
48288 
48306 
48322 
48324 
48340 
48360 
48309 
48324 
48342 
48345 
48393 
48415 
48409 
48353 
48287 
48267 
48299 
48308 
48335 
48386 
48402 
48408 
48390 
48373 
48420 
48421 
48413 
48402 
48415 
48429 
48430 
48410 
48432 
48418 
48392 
48377 
48371 
48394 
48434 
48437 
48383 
48332 
48250 
48109 
48043 
48053 
48058 
48029 
47953 
47890 
47838 
47784 
47719 
47698 
47638 
47572 
47559 
47569 
47538 
47494 
47486 
47438 
47463 
47495 
47468 
47404 
47367 
47323 
47277 
47274 
47255 
47220 
47219 
47175 
47208 
47214 
47180 
47124 
47095 
47087 
47046 
47040 
46989 
46967 
46979 
47016 
47010 
46933 
46866 
46860 
46902 
46932 
46931 
46913 
46929 
46964 
46968 
46956 
46954 
46908 
46894 
46869 
46876 
46919 
46953 
46979 
46992 
46987 
46996 
47011 
46980 
46988 
47048 
47104 
47111 
47118 
47162 
47221 
47267 
47262 
47317 
47377 
47419 
47471 
47509 
47505 
47459 
47481 
47499 
47493 
47502 
47520 
47585 
47641 
47633 
47607 
47606 
47624 
47637 
47669 
47670 
47651 
47705 
47734 
47745 
47777 
47834 
47880 
47888 
47866 
47922 
48034 
48107 
48134 
48141 
48180 
48227 
48185 
48177 
48195 
48206 
48188 
48180 
48219 
48269 
48345 
48405 
48455 
48506 
48498 
48462 
48453 
48472 
48504 
48509 
48510 
48542 
48536 
48515 
48526 
48547 
48578 
48603 
48638 
48630 
48577 
48546 
48530 
48522 
48504 
48457 
48474 
48462 
48431 
48462 
48550 
48604 
48649 
48660 
48655 
48664 
48647 
48579 
48566 
48640 
48654 
48708 
48776 
48760 
48718 
48690 
48702 
48719 
48789 
48803 
48762 
48728 
48703 
48694 
48687 
48687 
48757 
48820 
48851 
48845 
48810 
48767 
48697 
48672 
48696 
48724 
48727 
48740 
48780 
48811 
48807 
48823 
48808 
48770 
48760 
48746 
48743 
48778 
48812 
48825 
48804 
48765 
48784 
48790 
48790 
48848 
48856 
48835 
48779 
48762 
48732 
48741 
48811 
48841 
48857 
48877 
48872 
48810 
48792 
48864 
48819 
48748 
48738 
48722 
48741 
48806 
48829 
48783 
48730 
48626 
48573 
48612 
48596 
48588 
48584 
48548 
48495 
48470 
48440 
48387 
48357 
48260 
48169 
48110 
48061 
48008 
47951 
47893 
47876 
47857 
47759 
47748 
47699 
47683 
47655 
47593 
47518 
47514 
47478 
47421 
47408 
47441 
47421 
47348 
47289 
47296 
47306 
47273 
47269 
47234 
47198 
47245 
47225 
47162 
47172 
47182 
47200 
47214 
47150 
47087 
47079 
47102 
47098 
47066 
47040 
47044 
47055 
47088 
47085 
47075 
47100 
47131 
47126 
47145 
47183 
47161 
47148 
47144 
47151 
47145 
47164 
47142 
47129 
47221 
47257 
47244 
47204 
47219 
47249 
47259 
47255 
47311 
47297 
47239 
47262 
47263 
47278 
47312 
47366 
47430 
47441 
47448 
47413 
47372 
47379 
47399 
47456 
47472 
47491 
47508 
47545 
47584 
47582 
47557 
47593 
47612 
47621 
47651 
47696 
47700 
47697 
47752 
47765 
47810 
47844 
47836 
47834 
47841 
47835 
47816 
47847 
47883 
47928 
47959 
48043 
48113 
48093 
48142 
48163 
48175 
48190 
48177 
48154 
48136 
48154 
48228 
48211 
48208 
48248 
48261 
48260 
48330 
48327 
48318 
48388 
48484 
48483 
48489 
48475 
48498 
48546 
48588 
48615 
48615 
48619 
48618 
48613 
48567 
48599 
48646 
48615 
48586 
48623 
48645 
48690 
48758 
48772 
48733 
48715 
48711 
48729 
48750 
48795 
48774 
48802 
48844 
48832 
48837 
48797 
48774 
48816 
48852 
48869 
48868 
48820 
48808 
48793 
48785 
48808 
48850 
48856 
48880 
48879 
48845 
48826 
48844 
48837 
48858 
48914 
48978 
48982 
48936 
48917 
48959 
48975 
48958 
49003 
49031 
49028 
49037 
49013 
48956 
48927 
48937 
48938 
48884 
48825 
48761 
48695 
48635 
48569 
48519 
48444 
48445 
48417 
48383 
48325 
48224 
48173 
48191 
48182 
48114 
48012 
47963 
47912 
47840 
47819 
47810 
47765 
47775 
47767 
47797 
47817 
47772 
47737 
47690 
47631 
47642 
47685 
47675 
47581 
47550 
47550 
47530 
47461 
47458 
47469 
47451 
47443 
47486 
47533 
47547 
47484 
47446 
47397 
47359 
47428 
47512 
47475 
47425 
47423 
47468 
47490 
47475 
47428 
47451 
47519 
47549 
47544 
47528 
47564 
47631 
47669 
47694 
47692 
47687 
47700 
47717 
47705 
47656 
47653 
47683 
47723 
47740 
47752 
47682 
47613 
47615 
47675 
47674 
47678 
47720 
47783 
47791 
47751 
47784 
47822 
47801 
47777 
47802 
47798 
47787 
47820 
47819 
47806 
47857 
47937 
47990 
48034 
48013 
48036 
48081 
48077 
48058 
48065 
48040 
48046 
48052 
48010 
47969 
47972 
48042 
48013 
48024 
48124 
48203 
48260 
48315 
48308 
48307 
48277 
48286 
48317 
48345 
48342 
48301 
48307 
48359 
48399 
48410 
48408 
48393 
48450 
48469 
48472 
48501 
48566 
48609 
48630 
48654 
48648 
48648 
48656 
48645 
48644 
48703 
48789 
48824 
48746 
48693 
48675 
48693 
48729 
48823 
48901 
48900 
48893 
48911 
48936 
48924 
48890 
48896 
48896 
48881 
48893 
48965 
48978 
48978 
48990 
48948 
48912 
48911 
48887 
48864 
48880 
48919 
48934 
48952 
48978 
48975 
48991 
49042 
49062 
49054 
49077 
49109 
49083 
49081 
49083 
49027 
49022 
49032 
49020 
49003 
49073 
49109 
49050 
49013 
48994 
49035 
49004 
48968 
49010 
49003 
48943 
48904 
48823 
48787 
48713 
48675 
48625 
48605 
48530 
48437 
48381 
48338 
48270 
48191 
48114 
48094 
48127 
48081 
48066 
48091 
48046 
47974 
47970 
47956 
47850 
47730 
47637 
47635 
47604 
47618 
47624 
47623 
47567 
47545 
47534 
47550 
47536 
47512 
47498 
47448 
47431 
47459 
47472 
47456 
47446 
47437 
47387 
47397 
47401 
47417 
47432 
47410 
47407 
47372 
47334 
47340 
47311 
47273 
47282 
47269 
47272 
47295 
47277 
47283 
47349 
47396 
47456 
47539 
47571 
47576 
47579 
47559 
47537 
47556 
47511 
47525 
47543 
47559 
47622 
47636 
47529 
47527 
47563 
47589 
47604 
47637 
47641 
47659 
47671 
47694 
47727 
47776 
47833 
47860 
47873 
47871 
47867 
47895 
47927 
47914 
47931 
47946 
47973 
48031 
48045 
48027 
47997 
48024 
48101 
48123 
48105 
48179 
48238 
48221 
48188 
48178 
48209 
48263 
48287 
48261 
48277 
48299 
48300 
48281 
48301 
48379 
48366 
48313 
48309 
48354 
48340 
48281 
48258 
48307 
48350 
48336 
48371 
48415 
48401 
48397 
48371 
48382 
48424 
48430 
48377 
48394 
48488 
48498 
48455 
48419 
48401 
48420 
48405 
48408 
48400 
48388 
48410 
48387 
48359 
48316 
48283 
48228 
48229 
48277 
48301 
48296 
48291 
48276 
48305 
48295 
48254 
48244 
48278 
48292 
48282 
48252 
48246 
48228 
48192 
48120 
48102 
48141 
48164 
48130 
48064 
48056 
48069 
48089 
48129 
48137 
48117 
48107 
48150 
48171 
48180 
48233 
48231 
48172 
48164 
48127 
48149 
48140 
48090 
48108 
48115 
48154 
48153 
48118 
48184 
48219 
48193 
48183 
48155 
48039 
47979 
48007 
48040 
48029 
47999 
47966 
47988 
48015 
48022 
48013 
48016 
48015 
48019 
47989 
47976 
47969 
48016 
48080 
48147 
48186 
48171 
48170 
48204 
48225 
48247 
48207 
48188 
48157 
48067 
48064 
48125 
48113 
48103 
48116 
48103 
48111 
48104 
48080 
48090 
48147 
48208 
48196 
48175 
48134 
48162 
48203 
48229 
48168 
48155 
48177 
48137 
48092 
48084 
48080 
48024 
47961 
47988 
48091 
48185 
48214 
48172 
48121 
48118 
48146 
48118 
48101 
48090 
48078 
48083 
48158 
48204 
48225 
48262 
48296 
48308 
48308 
48271 
48267 
48299 
48285 
48248 
48274 
48305 
48314 
48344 
48389 
48394 
48365 
48382 
48381 
48318 
48302 
48325 
48408 
48491 
48459 
48389 
48400 
48424 
48422 
48440 
48440 
48489 
48529 
48534 
48529 
48539 
48556 
48575 
48546 
48565 
48602 
48612 
48659 
48667 
48640 
48646 
48655 
48650 
48655 
48711 
48726 
48685 
48649 
48673 
48718 
48748 
48759 
48775 
48737 
48698 
48710 
48780 
48844 
48867 
48882 
48890 
48871 
48826 
48791 
48801 
48836 
48866 
48862 
48908 
48898 
48877 
48934 
48952 
48938 
48901 
48896 
48879 
48876 
48904 
48921 
48930 
48917 
48903 
48892 
48872 
48849 
48836 
48874 
48919 
48898 
48861 
48885 
48923 
48959 
48948 
48885 
48896 
48963 
49003 
49015 
48991 
48960 
48932 
48882 
48919 
48939 
48889 
48840 
48835 
48868 
48852 
48843 
48810 
48834 
48890 
48922 
48946 
48919 
48879 
48860 
48859 
48868 
48887 
48906 
48908 
48950 
48997 
48990 
48964 
48945 
48930 
48930 
48881 
48841 
48824 
48846 
48907 
48897 
48862 
48851 
48877 
48930 
48935 
48936 
48986 
48998 
49002 
48965 
48919 
48941 
48985 
49049 
49048 
49058 
49085 
49091 
49087 
49087 
49088 
49091 
49043 
49036 
49076 
49040 
49015 
49081 
49132 
49178 
49203 
49195 
49212 
49221 
49195 
49146 
49127 
49157 
49134 
49088 
49108 
49103 
49062 
48999 
49017 
49064 
49066 
49018 
48945 
48954 
48977 
48996 
48974 
48955 
48955 
48965 
48994 
48966 
48951 
48976 
48993 
48984 
48882 
48798 
48746 
48779 
48776 
48795 
48783 
48849 
48863 
48854 
48822 
48769 
48740 
48734 
48719 
48735 
48752 
48753 
48777 
48786 
48775 
48746 
48732 
48689 
48659 
48668 
48673 
48692 
48697 
48689 
48707 
48691 
48618 
48590 
48607 
48596 
48567 
48640 
48748 
48708 
48625 
48602 
48593 
48593 
48590 
48598 
48617 
48593 
48604 
48643 
48682 
48637 
48611 
48603 
48644 
48697 
48759 
48694 
48707 
48791 
48786 
48744 
48762 
48750 
48695 
48676 
48688 
48737 
48751 
48743 
48768 
48704 
48650 
48635 
48632 
48643 
48636 
48631 
48652 
48640 
48652 
48664 
48672 
48663 
48700 
48740 
48751 
48787 
48831 
48803 
48808 
48865 
48860 
48832 
48819 
48825 
48831 
48806 
48797 
48793 
48806 
48811 
48873 
48904 
48871 
48824 
48848 
48874 
48830 
48811 
48830 
48867 
48888 
48905 
48950 
48994 
49010 
48958 
48937 
48899 
48874 
48919 
48846 
48795 
48803 
48811 
48852 
48873 
48887 
48931 
48913 
48860 
48875 
48905 
48906 
48877 
48858 
48806 
48723 
48717 
48739 
48796 
48883 
48886 
48851 
48820 
48768 
48740 
48746 
48705 
48695 
48711 
48752 
48777 
48805 
48834 
48845 
48835 
48883 
48893 
48886 
48889 
48918 
48934 
48911 
48934 
48962 
48974 
48966 
48913 
48874 
48781 
48771 
48799 
48823 
48848 
48829 
48830 
48896 
48872 
48846 
48871 
48949 
48971 
48991 
49030 
48990 
48911 
48827 
48797 
48771 
48778 
48804 
48822 
48845 
48827 
48838 
48782 
48757 
48777 
48786 
48798 
48797 
48754 
48723 
48690 
48692 
48728 
48726 
48695 
48643 
48600 
48637 
48647 
48641 
48625 
48634 
48668 
48658 
48596 
48612 
48594 
48563 
48597 
48614 
48606 
48632 
48657 
48616 
48587 
48572 
48583 
48604 
48609 
48592 
48574 
48593 
48619 
48608 
48587 
48560 
48520 
48486 
48487 
48506 
48529 
48515 
48491 
48485 
48542 
48597 
48583 
48575 
48544 
48516 
48527 
48543 
48551 
48515 
48458 
48482 
48539 
48580 
48621 
48670 
48658 
48633 
48558 
48503 
48501 
48498 
48501 
48533 
48565 
48600 
48583 
48628 
48666 
48627 
48628 
48679 
48679 
48651 
48666 
48662 
48685 
48671 
48667 
48665 
48606 
48636 
48682 
48718 
48758 
48765 
48761 
48762 
48729 
48642 
48630 
48639 
48673 
48708 
48723 
48718 
48756 
48766 
48758 
48741 
48719 
48743 
48764 
48766 
48765 
48837 
48867 
48807 
48771 
48739 
48790 
48740 
48698 
48677 
48641 
48644 
48669 
48687 
48668 
48651 
48655 
48715 
48765 
48769 
48772 
48773 
48756 
48728 
48704 
48683 
48686 
48752 
48782 
48766 
48812 
48812 
48787 
48823 
48833 
48837 
48895 
48893 
48900 
48925 
48921 
48887 
48938 
49010 
49009 
48971 
48947 
48963 
48982 
49001 
48971 
48945 
48901 
48887 
48862 
48802 
48797 
48830 
48894 
48931 
48927 
48873 
48861 
48860 
48845 
48893 
48907 
48904 
48886 
48865 
48882 
48889 
48906 
48883 
48889 
48921 
48901 
48844 
48775 
48754 
48726 
48690 
48696 
48658 
48632 
48644 
48644 
48679 
48724 
48705 
48660 
48687 
48709 
48677 
48627 
48617 
48627 
48641 
48625 
48622 
48598 
48525 
48507 
48519 
48520 
48483 
48418 
48415 
48469 
48493 
48392 
48357 
48376 
48390 
48443 
48461 
48454 
48461 
48507 
48474 
48413 
48413 
48418 
48390 
48472 
48503 
48481 
48474 
48502 
48508 
48512 
48541 
48532 
48561 
48626 
48609 
48598 
48605 
48589 
48523 
48506 
48571 
48597 
48576 
48565 
48579 
48578 
48581 
48636 
48617 
48605 
48664 
48685 
48676 
48665 
48687 
48703 
48738 
48765 
48722 
48695 
48814 
48860 
48858 
48797 
48763 
48751 
48736 
48785 
48832 
48819 
48828 
48897 
48910 
48879 
48831 
48833 
48914 
48998 
49062 
49091 
49066 
49046 
49048 
49074 
49131 
49168 
49132 
49101 
49110 
49153 
49151 
49110 
49053 
49018 
48994 
48981 
48967 
48929 
48965 
49053 
49055 
49003 
48984 
48990 
49021 
49040 
49023 
49089 
49126 
49080 
49056 
49058 
49067 
49087 
49068 
49103 
49180 
49131 
49037 
49040 
49088 
49095 
49083 
49063 
49132 
49164 
49167 
49146 
49128 
49098 
49048 
49055 
49049 
49055 
49058 
49065 
49097 
49077 
49092 
49142 
49191 
49166 
49130 
49108 
49096 
49087 
49080 
49104 
49123 
49069 
48988 
48973 
48945 
48952 
48984 
48998 
49001 
48972 
48995 
49001 
49011 
49020 
49013 
48986 
48991 
48981 
48963 
48935 
48945 
48980 
49041 
49077 
49063 
49067 
49053 
48966 
48924 
48937 
48952 
48937 
48947 
48932 
48905 
48866 
48813 
48771 
48780 
48785 
48746 
48697 
48711 
48738 
48727 
48703 
48711 
48697 
48646 
48633 
48585 
48560 
48576 
48596 
48581 
48611 
48580 
48532 
48507 
48460 
48417 
48386 
48350 
48334 
48289 
48300 
48270 
48276 
48351 
48384 
48365 
48321 
48271 
48303 
48338 
48381 
48428 
48422 
48389 
48396 
48410 
48384 
48365 
48366 
48365 
48347 
48383 
48444 
48457 
48402 
48368 
48361 
48401 
48406 
48376 
48301 
48317 
48423 
48498 
48487 
48524 
48546 
48525 
48551 
48626 
48611 
48536 
48514 
48599 
48630 
48652 
48660 
48705 
48718 
48675 
48636 
48638 
48602 
48554 
48585 
48617 
48650 
48670 
48701 
48721 
48744 
48729 
48731 
48741 
48777 
48763 
48715 
48733 
48776 
48810 
48826 
48847 
48861 
48909 
48939 
48914 
48888 
48914 
48938 
48923 
48956 
48962 
48968 
49038 
49070 
49026 
49010 
49008 
48977 
49008 
49021 
48981 
48981 
48997 
49032 
49062 
49066 
49078 
49064 
49066 
49076 
49066 
49042 
48997 
48998 
49037 
49033 
49034 
49021 
49000 
49008 
49040 
49021 
49007 
49092 
49149 
49219 
49224 
49183 
49110 
49050 
49043 
49034 
49056 
49064 
49033 
49011 
49057 
49057 
48996 
48996 
49007 
49000 
49007 
49024 
49004 
48987 
49027 
49052 
49053 
49098 
49130 
49128 
49108 
49072 
49053 
49039 
48997 
48974 
48954 
48932 
48963 
49046 
49072 
49034 
49056 
49061 
49068 
49068 
49099 
49088 
49099 
49107 
49069 
49063 
49026 
49016 
49038 
49054 
49055 
49083 
49116 
49094 
49073 
49078 
49124 
49102 
49028 
48991 
48974 
48952 
48946 
48939 
48978 
49038 
49071 
49075 
49061 
49065 
49045 
49011 
48922 
48874 
48860 
48891 
48902 
48880 
48844 
48894 
48894 
48908 
48880 
48847 
48836 
48810 
48781 
48758 
48800 
48817 
48803 
48737 
48713 
48700 
48642 
48634 
48606 
48556 
48522 
48499 
48500 
48500 
48477 
48468 
48469 
48426 
48458 
48489 
48415 
48345 
48330 
48351 
48371 
48388 
48419 
48454 
48415 
48372 
48362 
48348 
48380 
48375 
48400 
48432 
48388 
48371 
48366 
48378 
48378 
48357 
48366 
48399 
48400 
48390 
48403 
48430 
48492 
48473 
48444 
48466 
48474 
48510 
48513 
48511 
48518 
48524 
48541 
48567 
48590 
48640 
48682 
48690 
48683 
48697 
48697 
48651 
48611 
48604 
48608 
48628 
48643 
48646 
48673 
48740 
48770 
48735 
48687 
48713 
48747 
48775 
48792 
48787 
48765 
48811 
48808 
48791 
48776 
48738 
48783 
48819 
48833 
48865 
48837 
48797 
48831 
48882 
48871 
48861 
48864 
48867 
48879 
48932 
48968 
48954 
48937 
48925 
48893 
48883 
48878 
48907 
48879 
48909 
48901 
48858 
48871 
48906 
48904 
48871 
48881 
48915 
48936 
48946 
48982 
49014 
49013 
49008 
48978 
48990 
49026 
49026 
49011 
49007 
49004 
49055 
49051 
49023 
49027 
49027 
49078 
49103 
49118 
49081 
49076 
49097 
49075 
49096 
49056 
49040 
49054 
49081 
49121 
49132 
49107 
49081 
49033 
49019 
49008 
48976 
48968 
48981 
49005 
49044 
49032 
49011 
49025 
48995 
48947 
48952 
48958 
49002 
49052 
49028 
48965 
48925 
48945 
48974 
48937 
48936 
48977 
48967 
48943 
48927 
49040 
49102 
49100 
49098 
49058 
49059 
49033 
49031 
49019 
49006 
48980 
48995 
49015 
48970 
48912 
48898 
48912 
48883 
48883 
48930 
48951 
48895 
48820 
48795 
48754 
48746 
48725 
48654 
48668 
48676 
48709 
48773 
48813 
48808 
48772 
48722 
48678 
48584 
48502 
48474 
48481 
48472 
48459 
48476 
48483 
48500 
48495 
48464 
48435 
48427 
48405 
48405 
48402 
48383 
48343 
48295 
48287 
48285 
48272 
48281 
48350 
48368 
48315 
48283 
48247 
48224 
48244 
48226 
48210 
48241 
48219 
48151 
48149 
48162 
48187 
48187 
48187 
48274 
48288 
48251 
48267 
48274 
48202 
48152 
48137 
48138 
48169 
48239 
48298 
48276 
48266 
48285 
48257 
48246 
48242 
48211 
48201 
48212 
48214 
48175 
48158 
48201 
48204 
48223 
48261 
48259 
48240 
48250 
48290 
48305 
48312 
48341 
48345 
48336 
48255 
48254 
48297 
48353 
48353 
48363 
48389 
48367 
48329 
48338 
48319 
48315 
48336 
48355 
48371 
48436 
48443 
48432 
48413 
48410 
48407 
48420 
48449 
48464 
48485 
48552 
48556 
48549 
48576 
48583 
48544 
48535 
48492 
48486 
48498 
48472 
48470 
48508 
48555 
48574 
48539 
48475 
48525 
48575 
48558 
48553 
48526 
48563 
48625 
48705 
48780 
48788 
48739 
48699 
48673 
48580 
48550 
48577 
48608 
48640 
48599 
48585 
48556 
48560 
48600 
48605 
48597 
48585 
48576 
48536 
48494 
48465 
48418 
48447 
48509 
48562 
48620 
48589 
48542 
48587 
48624 
48636 
48641 
48613 
48608 
48644 
48708 
48692 
48679 
48667 
48642 
48637 
48606 
48602 
48579 
48625 
48715 
48767 
48773 
48739 
48666 
48596 
48577 
48574 
48545 
48548 
48601 
48607 
48615 
48628 
48651 
48641 
48624 
48612 
48589 
48558 
48521 
48513 
48495 
48481 
48486 
48504 
48475 
48401 
48393 
48389 
48332 
48302 
48286 
48279 
48273 
48295 
48353 
48363 
48344 
48296 
48248 
48240 
48188 
48168 
48154 
48141 
48094 
48084 
48069 
48020 
48056 
48106 
48108 
48110 
48126 
48148 
48134 
48093 
48117 
48138 
48120 
48085 
48048 
48029 
48062 
48072 
48108 
48138 
48122 
48066 
48029 
48020 
47995 
48021 
48067 
48095 
48088 
48108 
48085 
48067 
48073 
48081 
48059 
48063 
48072 
48072 
48067 
48052 
48066 
48073 
48076 
48042 
48061 
48133 
48170 
48186 
48199 
48206 
48214 
48245 
48208 
48208 
48240 
48239 
48198 
48251 
48218 
48206 
48200 
48216 
48260 
48281 
48264 
48226 
48198 
48176 
48120 
48172 
48253 
48333 
48333 
48294 
48336 
48336 
48344 
48383 
48395 
48388 
48353 
48335 
48332 
48311 
48308 
48319 
48324 
48341 
48387 
48445 
48456 
48444 
48435 
48439 
48493 
48486 
48436 
48438 
48439 
48511 
48531 
48489 
48485 
48447 
48417 
48451 
48498 
48525 
48505 
48523 
48516 
48492 
48483 
48504 
48499 
48473 
48456 
48457 
48446 
48452 
48460 
48469 
48464 
48450 
48474 
48523 
48566 
48633 
48679 
48665 
48652 
48613 
48641 
48606 
48572 
48587 
48619 
48594 
48579 
48606 
48619 
48610 
48615 
48618 
48601 
48587 
48554 
48494 
48492 
48467 
48477 
48487 
48514 
48560 
48556 
48547 
48525 
48476 
48463 
48493 
48546 
48554 
48551 
48573 
48548 
48508 
48491 
48485 
48494 
48510 
48546 
48579 
48562 
48550 
48507 
48490 
48492 
48464 
48454 
48466 
48472 
48534 
48566 
48519 
48432 
48469 
48502 
48526 
48575 
48599 
48592 
48591 
48555 
48546 
48530 
48480 
48448 
48450 
48425 
48407 
48416 
48400 
48385 
48299 
48249 
48256 
48209 
48149 
48154 
48152 
48157 
48142 
48143 
48159 
48138 
48080 
48070 
48043 
48018 
48061 
48096 
48039 
48035 
48053 
48060 
48021 
47959 
47933 
47930 
48001 
47973 
47922 
47929 
47979 
47948 
47969 
47991 
47958 
47924 
47951 
47940 
47908 
47890 
47889 
47878 
47876 
47920 
47900 
47828 
47837 
47861 
47911 
47910 
47886 
47915 
47945 
47944 
47911 
47958 
48013 
48016 
47993 
47946 
47917 
47937 
47947 
47995 
48042 
48036 
47990 
48014 
48082 
48118 
48164 
48168 
48116 
48078 
48072 
48052 
48073 
48063 
48053 
48100 
48125 
48080 
48102 
48218 
48247 
48230 
48145 
48144 
48154 
48097 
48108 
48132 
48176 
48213 
48223 
48213 
48208 
48259 
48308 
48344 
48347 
48335 
48297 
48266 
48316 
48357 
48333 
48378 
48444 
48402 
48271 
48221 
48340 
48425 
48405 
48413 
48376 
48350 
48373 
48330 
48310 
48322 
48301 
48294 
48349 
48328 
48345 
48364 
48369 
48441 
48508 
48539 
48529 
48495 
48499 
48496 
48435 
48378 
48345 
48353 
48371 
48373 
48365 
48334 
48369 
48366 
