54925 
54944 
54972 
54995 
55025 
55048 
55063 
55077 
55107 
55087 
55093 
55124 
55118 
55097 
55060 
54990 
54929 
54857 
54682 
54511 
54341 
54171 
54044 
53907 
53787 
53683 
53525 
53390 
53262 
53143 
53049 
52947 
52876 
52834 
52710 
52581 
52443 
52335 
52242 
52157 
52058 
51984 
51873 
51749 
51668 
51577 
51501 
51469 
51395 
51351 
51362 
51336 
51274 
51200 
51125 
51132 
51134 
51105 
51086 
51039 
51023 
51036 
51116 
51170 
51154 
51186 
51236 
51302 
51317 
51337 
51382 
51405 
51481 
51545 
51623 
51660 
51699 
51739 
51789 
51798 
51840 
51939 
51992 
51993 
52044 
52113 
52134 
52149 
52216 
52270 
52277 
52311 
52339 
52352 
52417 
52486 
52569 
52628 
52692 
52786 
52863 
52971 
53020 
53052 
53103 
53166 
53208 
53270 
53327 
53366 
53395 
53428 
53499 
53587 
53607 
53654 
53772 
53858 
55241 
55316 
55373 
55412 
55492 
55503 
55492 
55537 
55601 
55655 
55742 
55812 
55873 
55907 
55939 
55990 
56089 
56159 
56215 
56277 
56308 
56341 
56388 
56385 
56354 
56415 
56370 
56269 
56143 
56039 
55954 
55831 
55723 
55564 
55385 
55201 
55026 
54870 
54738 
54574 
54423 
54283 
54168 
54061 
53958 
53784 
53650 
53543 
53418 
53355 
53233 
53126 
53071 
52977 
52931 
52862 
52795 
52774 
52705 
52645 
52660 
52602 
52504 
52463 
52447 
52458 
52454 
52497 
52566 
52557 
52530 
52488 
52492 
52595 
52732 
52858 
52905 
52895 
52876 
52941 
52991 
53022 
53057 
53222 
53318 
53344 
53404 
53433 
53477 
53545 
53616 
53660 
53732 
53785 
53827 
53941 
54032 
54088 
54132 
54183 
54240 
54308 
54432 
54567 
54709 
54771 
54806 
54867 
54950 
55043 
55145 
55220 
55338 
55441 
55557 
55610 
55686 
55826 
55942 
55108 
55087 
55115 
55130 
55137 
55129 
55119 
55117 
55168 
55205 
55282 
55363 
55358 
55419 
55513 
55578 
55574 
55598 
55699 
55726 
55720 
55729 
55767 
55792 
55823 
55877 
55950 
55976 
56022 
56116 
56155 
56200 
56257 
56288 
56305 
56341 
56407 
56491 
56622 
56739 
56804 
56844 
56891 
56948 
57024 
57121 
57222 
57367 
57433 
57478 
57580 
57635 
57703 
57800 
57874 
57956 
58030 
58069 
58073 
58115 
58233 
58281 
58307 
58312 
58341 
58398 
58391 
58403 
58521 
58642 
58668 
58697 
58745 
58819 
58934 
59015 
59062 
59082 
59118 
59131 
59136 
59157 
59178 
59203 
59159 
59163 
59169 
59203 
59222 
59226 
59244 
59238 
59210 
59203 
59232 
59256 
59294 
59282 
59275 
59283 
59303 
59309 
59296 
59273 
59271 
59320 
59353 
59380 
59369 
59334 
59316 
59291 
59278 
59276 
59273 
59278 
59221 
59182 
56657 
56635 
56608 
56591 
56546 
56454 
56381 
56370 
56389 
56340 
56286 
56241 
56181 
56141 
56150 
56159 
56178 
56200 
56163 
56204 
56219 
56244 
56320 
56408 
56528 
56649 
56691 
56720 
56779 
56829 
56932 
57021 
57102 
57169 
57235 
57309 
57444 
57581 
57666 
57671 
57737 
57812 
57890 
58015 
58090 
58104 
58195 
58263 
58305 
58292 
58328 
58390 
58464 
58543 
58605 
58664 
58706 
58780 
58811 
58830 
58869 
58868 
58863 
58905 
58955 
58988 
58986 
58962 
59014 
59071 
59101 
59141 
59167 
59191 
59206 
59199 
59200 
59196 
59178 
59188 
59188 
59188 
59245 
59288 
59331 
59370 
59392 
59415 
59441 
59457 
59480 
59524 
59514 
59508 
59522 
59531 
59599 
59615 
59620 
59650 
59638 
59638 
59665 
59707 
59797 
59872 
59893 
59888 
59945 
59961 
59974 
60003 
60004 
60024 
60069 
60097 
60126 
60176 
60219 
56496 
56601 
56658 
56678 
56738 
56792 
56869 
56952 
57046 
57101 
57211 
57310 
57354 
57414 
57501 
57630 
57771 
57848 
57931 
58048 
58181 
58285 
58334 
58413 
58458 
58498 
58593 
58670 
58693 
58776 
58890 
58927 
59002 
59101 
59158 
59198 
59259 
59274 
59262 
59323 
59383 
59409 
59462 
59568 
59624 
59665 
59683 
59753 
59793 
59758 
59731 
59803 
59864 
59888 
59973 
60061 
60174 
60219 
60241 
60284 
60261 
60227 
60270 
60325 
60336 
60375 
60403 
60423 
60500 
60533 
60592 
60644 
60682 
60701 
60745 
60769 
60842 
60916 
60955 
61017 
61056 
61068 
61094 
61125 
61180 
61151 
61141 
61132 
61129 
61127 
61138 
61158 
61189 
61248 
61327 
61360 
61405 
61443 
61425 
61374 
61303 
61230 
61135 
61035 
60909 
60713 
60513 
60300 
60096 
59883 
59693 
59482 
59299 
59129 
58952 
58839 
58716 
58603 
58469 
58314 
58191 
58088 
57934 
57795 
57678 
57625 
57523 
57383 
57321 
57261 
57215 
57180 
57154 
57153 
57131 
57078 
57059 
57054 
57041 
57017 
57025 
57039 
57059 
57061 
57091 
57118 
57197 
57310 
57380 
57490 
57580 
57621 
57657 
57777 
57859 
57920 
58038 
58159 
58304 
58471 
58581 
58703 
58821 
58899 
58931 
59008 
59114 
59196 
59290 
59342 
59389 
59458 
59529 
59614 
59662 
59679 
59680 
59758 
59809 
59791 
59775 
59760 
59763 
59810 
59850 
59854 
59902 
59969 
60007 
60099 
60150 
60177 
60273 
60303 
60349 
60416 
60487 
60558 
60611 
60669 
60699 
60676 
60694 
60733 
60762 
60782 
60778 
60791 
60814 
60854 
60877 
60855 
60922 
61032 
61074 
61078 
61104 
61118 
61132 
61107 
61127 
61129 
61159 
61212 
61233 
61288 
61343 
61344 
61391 
61411 
61410 
61376 
61366 
61388 
61384 
61406 
61464 
61460 
61438 
61435 
61424 
61451 
61496 
61576 
61660 
61648 
61609 
61609 
61661 
61689 
61697 
61671 
61619 
61518 
61382 
61288 
61150 
60919 
60726 
60557 
60375 
60214 
60040 
59853 
59628 
59414 
59221 
59078 
58961 
58859 
58764 
58594 
58428 
58290 
58179 
58058 
57956 
57856 
57724 
57674 
57631 
57607 
57544 
57463 
57438 
57416 
57388 
57346 
57279 
57240 
57223 
57204 
57255 
57344 
57366 
57370 
57382 
57422 
57451 
57455 
57508 
57576 
57638 
57735 
57852 
57956 
58020 
58125 
58220 
58298 
58337 
58386 
58487 
58552 
58629 
58762 
58830 
58903 
59030 
59104 
59180 
59281 
59282 
59285 
59395 
59486 
59537 
59586 
59611 
59666 
59743 
59811 
59896 
59982 
60035 
60095 
60182 
60268 
60322 
60397 
60484 
60553 
60562 
60626 
60687 
60747 
60820 
60861 
60899 
60924 
60945 
60974 
61005 
61068 
61097 
61094 
61180 
61269 
61332 
61366 
61342 
61375 
61451 
61534 
61569 
61570 
61584 
61610 
61628 
61632 
61654 
61756 
61794 
61788 
61760 
61737 
61709 
61687 
61715 
61787 
61802 
61752 
61766 
61807 
61799 
61778 
61784 
61734 
61742 
61764 
61782 
61802 
61849 
61908 
61951 
62048 
62082 
62118 
62141 
62139 
62103 
62121 
62168 
62141 
62147 
62124 
62064 
62033 
61966 
61897 
61781 
61633 
61447 
61191 
60960 
60703 
60455 
60285 
60082 
59850 
59658 
59487 
59286 
59079 
58866 
58686 
58593 
58413 
58212 
58073 
57891 
57722 
57612 
57469 
57357 
57297 
57194 
57070 
56943 
56932 
56916 
56862 
56846 
56807 
56736 
56721 
56714 
56732 
56797 
56798 
56802 
56826 
56881 
56919 
56971 
57055 
57180 
57279 
57364 
57481 
57604 
57690 
57738 
57830 
57949 
58040 
58155 
58315 
58467 
58601 
58693 
58795 
58923 
59069 
59155 
59252 
59384 
59511 
59660 
59836 
59946 
60060 
60130 
60214 
60321 
60413 
60536 
60620 
60760 
60853 
60912 
60965 
61002 
61032 
61047 
61087 
61154 
61251 
61340 
61384 
61393 
61431 
61471 
61501 
61587 
61645 
61668 
61724 
61828 
61933 
62025 
62060 
62083 
62119 
62207 
62288 
62329 
62378 
62391 
62456 
62502 
62530 
62590 
62625 
62677 
62708 
62673 
62686 
62741 
62737 
62714 
62773 
62832 
62848 
62856 
62859 
62891 
62925 
62875 
62839 
62831 
62880 
62924 
62922 
62873 
62855 
62884 
62930 
62977 
62957 
62950 
62925 
62973 
63052 
63077 
63087 
63149 
63181 
63181 
63132 
63108 
63128 
63151 
63156 
63197 
63235 
63206 
63176 
63126 
63031 
62928 
62807 
62691 
62561 
62391 
62212 
62031 
61843 
61686 
61505 
61273 
61098 
60927 
60757 
60564 
60354 
60165 
60005 
59847 
59687 
59577 
59499 
59342 
59175 
59033 
58912 
58828 
58743 
58644 
58561 
58476 
58404 
58358 
58348 
58327 
58283 
58259 
58299 
58343 
58381 
58436 
58463 
58561 
58680 
58760 
58831 
58868 
58958 
59055 
59138 
59228 
59316 
59421 
59542 
59627 
59727 
59833 
59918 
60009 
60089 
60182 
60258 
60359 
60402 
60456 
60546 
60634 
60680 
60737 
60809 
60902 
61023 
61139 
61185 
61206 
61270 
61318 
61385 
61488 
61584 
61642 
61706 
61763 
61847 
61965 
62078 
62103 
62132 
62191 
62290 
62375 
62421 
62469 
62491 
62536 
62622 
62678 
62777 
62873 
62929 
62982 
63015 
63092 
63153 
63170 
63207 
63239 
63199 
63147 
63097 
63024 
62967 
62900 
62826 
62714 
62630 
62550 
62429 
62381 
62340 
62263 
62125 
62020 
61943 
61840 
61732 
61724 
61702 
61589 
61465 
61359 
61276 
61215 
61108 
61018 
60929 
60821 
60767 
60723 
60667 
60602 
60497 
60393 
60313 
60195 
60049 
59916 
59755 
59570 
59334 
59062 
58821 
58577 
58307 
58034 
57755 
57453 
57150 
56832 
56534 
56312 
56130 
55937 
55766 
55627 
55492 
55400 
55341 
55303 
55296 
55295 
55332 
55327 
55350 
55403 
55429 
55415 
55433 
55530 
55642 
55750 
55849 
55873 
55868 
55912 
55961 
56018 
56076 
56138 
56183 
56256 
56345 
56407 
56473 
56570 
56655 
56692 
56737 
56873 
57020 
57111 
57204 
57296 
57397 
57539 
57726 
57878 
58061 
58161 
58285 
58438 
58599 
58713 
58834 
58992 
59132 
59239 
59334 
59435 
59542 
59621 
59669 
59692 
59721 
59763 
59762 
59733 
59665 
59646 
59594 
59541 
59455 
59383 
59371 
59349 
59278 
59129 
59020 
58983 
58962 
58925 
58890 
58828 
58764 
58761 
58800 
58877 
58961 
59031 
59158 
59257 
59321 
59408 
59523 
59597 
59694 
59794 
59906 
60030 
60150 
60235 
60260 
60312 
60334 
60379 
60493 
60564 
60630 
60674 
60658 
60632 
60660 
60685 
60672 
60659 
60662 
60696 
60706 
60668 
60636 
60651 
60659 
60719 
60795 
60885 
60983 
61152 
61317 
61423 
61517 
61664 
61838 
61989 
62059 
62123 
62232 
62325 
62358 
62457 
62520 
62524 
62543 
62517 
62449 
62377 
62304 
62184 
62006 
61861 
61709 
61587 
61429 
61199 
60994 
60841 
60717 
60573 
60410 
60275 
60191 
60122 
60057 
60004 
59935 
59861 
59846 
59861 
59911 
59976 
60064 
60168 
60233 
60252 
60306 
60365 
60485 
60659 
60761 
60815 
60887 
60985 
61074 
61210 
61322 
61425 
61530 
61617 
61715 
61832 
61912 
61994 
62115 
62214 
62258 
62267 
62353 
62401 
62390 
62419 
62467 
62521 
62545 
62585 
62622 
62649 
62682 
62664 
62666 
62714 
62762 
62788 
62791 
62851 
62920 
62951 
62944 
62967 
63006 
62980 
62954 
62954 
63001 
63047 
63052 
63028 
63005 
62977 
63014 
63034 
63073 
63115 
63170 
63249 
63349 
63425 
63507 
63592 
63702 
63786 
63843 
63937 
64033 
64154 
64207 
64286 
64355 
64449 
64541 
64638 
64690 
64758 
64872 
64956 
65099 
65266 
65349 
65414 
65505 
65574 
65637 
65742 
65811 
65864 
65887 
65937 
66014 
66095 
66169 
66215 
66220 
66180 
66127 
66101 
66061 
66031 
66014 
65955 
65893 
65826 
65730 
65663 
65609 
65551 
65545 
65553 
65487 
65371 
65252 
65116 
64918 
64706 
64510 
64282 
64095 
63885 
63584 
63343 
63139 
62918 
62672 
62422 
62145 
61931 
61731 
61506 
61320 
61144 
60982 
60812 
60646 
60555 
60458 
60369 
60275 
60174 
60103 
60012 
59961 
59978 
59957 
59953 
59997 
60074 
60141 
60211 
60234 
60228 
60243 
60266 
60310 
60363 
60469 
60536 
60585 
60665 
60783 
60914 
61094 
61223 
61324 
61456 
61633 
61771 
61879 
62009 
62111 
62228 
62359 
62441 
62497 
62518 
62580 
62633 
62635 
62665 
62681 
62701 
62695 
62647 
62651 
62646 
62596 
62513 
62470 
62520 
62528 
62474 
62433 
62351 
62293 
62230 
62175 
62159 
62137 
62088 
62048 
62000 
61937 
61892 
61831 
61759 
61719 
61698 
61696 
61725 
61693 
61646 
61618 
61601 
61588 
61569 
61494 
61477 
61530 
61560 
61573 
61610 
61664 
61701 
61731 
61779 
61871 
61897 
61934 
61914 
61898 
61929 
61924 
61928 
61955 
62002 
61998 
61981 
61993 
62016 
62015 
61982 
61960 
61992 
61979 
61914 
61842 
61810 
61836 
61837 
61763 
61715 
61673 
61642 
61684 
61697 
61664 
61602 
61492 
61374 
61246 
61114 
60949 
60776 
60599 
60397 
60169 
59987 
59770 
59518 
59248 
58987 
58734 
58461 
58184 
57961 
57756 
57557 
57381 
57220 
57057 
56905 
56772 
56635 
56515 
56433 
56349 
56242 
56179 
56157 
56149 
56156 
56179 
56188 
56233 
56265 
56335 
56422 
56539 
56694 
56758 
56810 
56818 
56855 
56937 
57053 
57110 
57153 
57205 
57242 
57244 
57294 
57403 
57460 
57566 
57652 
57685 
57710 
57778 
57830 
57861 
57950 
57992 
58022 
58049 
58076 
58080 
58078 
58075 
58061 
58021 
58004 
58008 
58049 
58025 
57980 
57926 
57854 
57788 
57755 
57707 
57640 
57581 
57567 
57555 
57445 
57343 
57278 
57248 
57189 
57087 
56930 
56796 
56710 
56660 
56645 
56604 
56535 
56443 
56399 
56380 
56427 
56453 
56487 
56494 
56528 
56633 
56705 
56805 
56937 
57047 
57106 
57101 
57088 
57112 
57167 
57239 
57345 
57432 
57528 
57637 
57715 
57811 
57902 
57922 
57964 
58072 
58126 
58149 
58190 
58265 
58326 
58389 
58516 
58560 
58633 
58664 
58640 
58616 
58595 
58566 
58454 
58371 
58320 
58201 
58066 
57897 
57733 
57470 
57205 
56967 
56744 
56505 
56260 
56023 
55804 
55525 
55227 
54953 
54677 
54434 
54182 
53933 
53698 
53517 
53386 
53259 
53145 
53051 
52911 
52779 
52663 
52587 
52587 
52605 
52549 
52540 
52552 
52508 
52565 
52642 
52709 
52769 
52810 
52900 
53082 
53201 
53279 
53340 
53382 
53419 
53571 
53721 
53869 
53999 
54115 
54251 
54411 
54559 
54729 
54978 
55160 
55305 
55461 
55653 
55869 
56029 
56171 
56320 
56511 
56690 
56820 
56921 
57052 
57118 
57204 
57314 
57312 
57302 
57377 
57433 
57493 
57569 
57509 
57537 
57568 
57577 
57570 
57542 
57523 
57529 
57548 
57532 
57447 
57381 
57383 
57390 
57343 
57336 
57328 
57292 
57295 
57330 
57352 
57389 
57443 
57443 
57396 
57365 
57283 
57197 
57160 
57132 
57136 
57131 
57162 
57168 
57136 
57127 
57145 
57160 
57158 
57158 
57198 
57225 
57195 
57222 
57262 
57249 
57290 
57336 
57400 
57414 
57468 
57534 
57596 
57600 
57595 
57641 
57679 
57637 
57567 
57521 
57445 
57333 
57179 
56995 
56849 
56703 
56521 
56383 
56228 
56029 
55799 
55545 
55317 
55106 
54910 
54741 
54590 
54488 
54341 
54180 
54107 
54050 
53968 
53915 
53880 
53933 
53959 
54006 
54028 
54152 
54311 
54402 
54584 
54780 
54968 
55108 
55263 
55453 
55675 
55925 
56151 
56320 
56489 
56660 
56849 
57003 
57255 
57482 
57653 
57841 
58065 
58317 
58565 
58750 
58910 
59114 
59323 
59540 
59736 
59850 
59943 
60095 
60223 
60356 
60493 
60633 
60729 
60812 
60902 
60993 
61089 
61204 
61290 
61365 
61423 
61428 
61405 
61449 
61513 
61533 
61509 
61474 
61450 
61408 
61354 
61329 
61284 
61233 
61192 
61151 
61136 
61063 
61006 
60988 
60970 
60955 
60917 
60922 
60912 
60896 
60859 
60817 
60792 
60834 
60867 
60873 
60879 
60911 
60943 
61009 
61016 
61030 
61081 
61143 
61167 
61193 
61259 
61348 
61363 
61370 
61382 
61393 
61419 
61475 
61504 
61537 
61596 
61599 
61587 
61600 
61639 
61731 
61759 
61709 
61660 
61702 
61697 
61677 
61627 
61530 
61469 
61418 
61293 
61168 
60997 
60802 
60596 
60369 
60161 
59903 
59627 
59362 
59115 
58871 
58602 
58320 
58063 
57785 
57488 
57215 
56978 
56775 
56538 
56332 
56111 
55896 
55773 
55701 
55632 
55554 
55519 
55495 
55472 
55406 
55399 
55443 
55506 
55549 
55578 
55627 
55690 
55787 
55882 
55985 
56115 
56194 
56276 
56413 
56557 
56727 
56888 
57046 
57211 
57453 
57669 
57831 
57939 
58084 
58247 
58430 
58681 
58887 
59095 
59349 
59549 
59688 
59860 
60086 
60280 
60412 
60626 
60799 
60932 
61077 
61192 
61301 
61393 
61409 
61446 
61583 
61718 
61772 
61767 
61774 
61808 
61840 
61808 
61787 
61811 
61834 
61837 
61879 
61872 
61846 
61918 
61974 
61998 
62079 
62139 
62227 
62312 
62359 
62386 
62423 
62466 
62516 
62564 
62592 
62588 
62609 
62673 
62678 
62725 
62796 
62820 
62796 
62799 
62804 
62811 
62789 
62757 
62741 
62689 
62679 
62686 
62648 
62608 
62571 
62514 
62473 
62429 
62338 
62279 
62210 
62169 
62163 
62121 
62067 
61978 
61911 
61817 
61718 
61658 
61600 
61525 
61422 
61355 
61269 
61192 
61047 
60937 
60815 
60681 
60507 
60292 
60102 
59863 
59541 
59247 
58897 
58593 
58250 
57807 
57389 
57049 
56699 
56325 
55950 
55557 
55225 
54950 
54609 
54256 
53948 
53719 
53461 
53227 
53028 
52817 
52648 
52471 
52342 
52223 
52119 
52057 
52000 
51951 
51926 
51881 
51900 
51942 
51894 
51873 
51920 
51977 
52083 
52205 
52264 
52263 
52334 
52460 
52569 
52626 
52751 
52907 
53007 
53099 
53175 
53303 
53465 
53649 
53761 
53837 
53962 
54145 
54279 
54369 
54411 
54494 
54577 
54588 
54638 
54718 
54780 
54809 
54850 
54898 
54966 
54950 
54949 
55022 
55088 
55158 
55178 
55170 
55229 
55346 
55407 
55402 
55368 
55432 
55516 
55552 
55575 
55610 
55634 
55660 
55659 
55675 
55705 
55716 
55710 
55689 
55732 
55732 
55718 
55790 
55842 
55865 
55909 
55991 
56124 
56232 
56347 
56466 
56540 
56599 
56707 
56800 
56925 
57028 
57125 
57229 
57318 
57488 
57707 
57851 
57980 
58147 
58311 
58506 
58598 
58630 
58725 
58799 
58858 
58927 
59013 
59055 
59114 
59152 
59193 
59235 
59284 
59343 
59368 
59372 
59397 
59445 
59509 
59570 
59641 
59704 
59722 
59733 
59716 
59749 
59764 
59772 
59824 
59809 
59680 
59561 
59413 
59260 
59069 
58899 
58730 
58482 
58226 
57933 
57659 
57322 
56950 
56637 
56318 
56038 
55731 
55407 
55113 
54882 
54716 
54514 
54302 
54130 
54002 
53887 
53762 
53663 
53573 
53499 
53485 
53485 
53492 
53528 
53593 
53646 
53665 
53707 
53796 
53830 
53825 
53867 
53936 
54006 
54068 
54104 
54194 
54311 
54414 
54473 
54556 
54693 
54851 
54974 
55085 
55200 
55297 
55386 
55487 
55620 
55786 
55880 
55942 
55983 
56046 
56183 
56284 
56357 
56468 
56585 
56663 
56704 
56750 
56816 
56908 
56964 
56972 
57024 
57052 
57112 
57154 
57204 
57302 
57408 
57491 
57537 
57607 
57701 
57795 
57854 
57892 
57980 
58088 
58185 
58329 
58460 
58547 
58603 
58658 
58738 
58823 
58873 
58919 
58974 
59051 
59144 
59261 
59385 
59451 
59518 
59553 
59625 
59741 
59817 
59894 
59987 
60034 
60028 
60073 
60154 
60218 
60257 
60330 
60366 
60368 
60407 
60433 
60485 
60548 
60588 
60619 
60627 
60637 
60654 
60707 
60778 
60836 
60866 
60905 
60929 
60991 
61088 
61129 
61151 
61204 
61237 
61251 
61303 
61352 
61378 
61391 
61443 
61484 
61470 
61449 
61392 
61347 
61277 
61237 
61188 
61079 
60962 
60869 
60726 
60562 
60344 
60074 
59801 
59513 
59219 
58947 
58662 
58402 
58134 
57831 
57526 
57210 
56931 
56665 
56370 
56084 
55803 
55595 
55398 
55168 
54968 
54814 
54677 
54526 
54388 
54300 
54252 
54233 
54214 
54144 
54136 
54200 
54243 
54200 
54259 
54380 
54451 
54484 
54557 
54622 
54702 
54832 
54978 
55195 
55343 
55480 
55625 
55792 
56063 
56309 
56506 
56661 
56833 
57062 
57357 
57614 
57923 
58218 
58465 
58690 
58937 
59169 
59390 
59574 
59759 
59964 
60151 
60295 
60408 
60550 
60727 
60855 
60901 
60965 
60989 
61030 
61052 
61060 
61062 
61074 
61096 
61079 
61006 
60959 
60934 
60868 
60839 
60846 
60800 
60763 
60803 
60781 
60760 
60757 
60706 
60689 
60667 
60658 
60642 
60620 
60642 
60627 
60624 
60663 
60665 
60683 
60702 
60726 
60810 
60870 
60925 
61006 
61033 
60988 
60942 
60945 
60984 
61013 
61033 
61027 
60962 
60902 
60835 
60805 
60771 
60697 
60617 
60507 
60384 
60304 
60277 
60179 
60018 
59914 
59848 
59741 
59638 
59531 
59385 
59237 
59127 
59020 
58910 
58750 
58579 
58458 
58378 
58263 
58126 
57985 
57844 
57684 
57489 
57295 
57145 
57005 
56785 
56581 
56408 
56215 
56026 
55775 
55511 
55262 
54996 
54727 
54397 
54038 
53745 
53494 
53236 
53001 
52731 
52461 
52191 
51880 
51623 
51446 
51234 
51016 
50805 
50595 
50442 
50359 
50268 
50181 
50130 
50083 
50020 
49998 
49955 
49890 
49894 
49930 
49960 
50014 
50021 
50051 
50125 
50217 
50261 
50312 
50378 
50481 
50593 
50683 
50856 
50990 
51118 
51274 
51436 
51657 
51842 
51988 
52153 
52350 
52523 
52678 
52816 
52904 
53032 
53118 
53144 
53177 
53177 
53132 
53052 
52987 
52918 
52803 
52691 
52607 
52564 
52482 
52388 
52288 
52264 
52235 
52165 
52116 
52114 
52081 
52041 
51967 
51896 
51875 
51871 
51879 
51872 
51921 
51955 
51997 
51985 
51978 
52020 
52062 
52125 
52188 
52257 
52293 
52387 
52511 
52605 
52679 
52769 
52832 
52916 
53011 
53120 
53184 
53287 
53409 
53519 
53603 
53704 
53775 
53844 
53957 
54066 
54161 
54278 
54355 
54485 
54584 
54660 
54761 
54859 
54976 
55087 
55177 
55230 
55290 
55406 
55548 
55614 
55671 
55772 
55880 
56028 
56158 
56311 
56429 
56509 
56540 
56601 
56683 
56714 
56739 
56806 
56919 
56971 
57000 
56987 
56957 
56930 
56890 
56850 
56774 
56660 
56530 
56414 
56328 
56183 
56020 
55923 
55821 
55693 
55557 
55458 
55328 
55155 
55031 
54957 
54871 
54792 
54805 
54804 
54837 
54842 
54841 
54827 
54835 
54843 
54864 
54937 
55038 
55133 
55196 
55254 
55388 
55550 
55666 
55765 
55825 
55976 
56167 
56312 
56489 
56657 
56763 
56908 
57089 
57209 
57349 
57484 
57636 
57797 
57981 
58164 
58350 
58532 
58652 
58775 
58930 
59106 
59227 
59359 
59437 
59513 
59618 
59730 
59795 
59860 
59934 
60054 
60214 
60309 
60362 
60492 
60564 
60667 
60766 
60781 
60820 
60834 
60874 
60988 
61098 
61133 
61153 
61192 
61294 
61346 
61406 
61483 
61561 
61624 
61620 
61609 
61623 
61617 
61662 
61710 
61708 
61663 
61646 
61677 
61636 
61590 
61590 
61516 
61460 
61470 
61486 
61498 
61455 
61443 
61424 
61404 
61335 
61268 
61212 
61105 
61002 
60976 
60950 
60912 
60842 
60826 
60830 
60791 
60750 
60688 
60619 
60624 
60690 
60679 
60686 
60756 
60799 
60825 
60873 
60929 
60953 
60964 
60986 
61026 
61062 
61085 
61108 
61105 
61069 
61042 
61005 
60942 
60900 
60811 
60679 
60508 
60363 
60208 
60019 
59875 
59737 
59620 
59527 
59401 
59264 
59138 
59097 
59076 
58985 
58905 
58824 
58747 
58722 
58689 
58664 
58651 
58649 
58655 
58649 
58656 
58659 
58638 
58680 
58695 
58703 
58729 
58777 
58866 
58849 
58868 
58957 
59016 
59083 
59153 
59216 
59303 
59381 
59419 
59457 
59459 
59500 
59598 
59653 
59689 
59769 
59880 
59983 
60066 
60192 
60244 
60336 
60428 
60490 
60539 
60554 
60594 
60572 
60541 
60553 
60549 
60522 
60472 
60483 
60499 
60458 
60416 
60361 
60287 
60191 
60083 
59915 
59795 
59729 
59614 
59481 
59400 
59354 
59267 
59110 
59008 
58914 
58818 
58769 
58695 
58633 
58537 
58432 
58362 
58299 
58219 
58155 
58116 
58089 
58067 
58037 
57986 
57952 
57899 
57850 
57818 
57784 
57757 
57702 
57746 
57799 
57770 
57725 
57743 
57801 
57846 
57870 
57947 
58037 
58118 
58238 
58328 
58431 
58583 
58698 
58847 
59034 
59229 
59394 
59501 
59515 
59620 
59760 
59868 
59978 
60090 
60217 
60365 
60473 
60554 
60650 
60737 
60788 
60852 
60940 
61076 
61193 
61288 
61338 
61339 
61330 
61329 
61340 
61345 
61324 
61285 
61324 
61303 
61233 
61172 
61091 
60997 
60889 
60811 
60760 
60683 
60594 
60469 
60355 
60175 
60023 
59899 
59770 
59618 
59491 
59306 
59119 
59001 
58874 
58753 
58611 
58440 
58311 
58242 
58123 
58011 
57922 
57837 
57671 
57492 
57379 
57314 
57221 
57101 
56980 
56861 
56750 
56689 
56616 
56566 
56519 
56418 
56406 
56400 
56354 
56242 
56254 
56257 
56175 
56147 
56112 
56090 
56050 
56035 
56035 
56085 
56084 
56164 
56251 
56285 
56307 
56347 
56464 
56592 
56708 
56746 
56820 
56888 
56966 
57095 
57255 
57422 
57620 
57871 
58065 
58216 
58366 
58500 
58589 
58760 
58974 
59151 
59311 
59481 
59614 
59756 
59908 
60076 
60269 
60413 
60558 
60710 
60830 
60957 
61040 
61127 
61222 
61306 
61398 
61520 
61606 
61733 
61879 
61965 
62025 
62126 
62216 
62308 
62317 
62286 
62309 
62361 
62437 
62432 
62366 
62353 
62394 
62413 
62366 
62332 
62298 
62252 
62283 
62257 
62163 
62119 
62059 
61992 
61890 
61797 
61755 
61674 
61611 
61472 
61330 
61201 
61048 
60926 
60833 
60745 
60663 
60537 
60461 
60399 
60277 
60179 
60090 
59962 
59819 
59714 
59625 
59507 
59339 
59196 
59022 
58806 
58636 
58512 
58321 
58159 
58006 
57829 
57695 
57556 
57444 
57320 
57196 
57128 
57035 
56951 
56937 
56928 
56924 
56902 
56874 
56807 
56733 
56686 
56663 
56660 
56665 
56633 
56616 
56627 
56637 
56686 
56726 
56734 
56766 
56803 
56804 
56828 
56900 
56954 
57014 
57034 
57105 
57186 
57231 
57296 
57431 
57536 
57655 
57771 
57875 
58006 
58175 
58298 
58363 
58398 
58481 
58594 
58734 
58820 
58859 
58944 
59004 
58999 
59026 
59071 
59113 
59127 
59145 
59195 
59219 
59191 
59196 
59255 
59309 
59292 
59286 
59302 
59292 
59293 
59314 
59358 
59362 
59332 
59302 
59235 
59144 
59084 
59062 
58995 
58976 
58890 
58812 
58770 
58736 
58718 
58693 
58610 
58478 
58357 
58279 
58225 
58118 
57989 
57928 
57836 
57748 
57662 
57582 
57528 
57460 
57415 
57416 
57415 
57369 
57339 
57330 
57271 
57229 
57175 
57116 
57109 
57092 
57079 
57057 
57037 
57043 
57066 
57070 
57103 
57121 
57151 
57215 
57301 
57414 
57464 
57520 
57587 
57666 
57760 
57863 
57963 
58046 
58121 
58233 
58391 
58533 
58659 
58764 
58868 
58974 
59060 
59151 
59254 
59338 
59431 
59521 
59646 
59748 
59799 
59830 
59893 
59933 
60003 
60047 
60040 
60016 
60006 
60030 
59985 
59953 
59891 
59881 
59902 
59932 
59878 
59799 
59731 
59663 
59582 
59505 
59432 
59335 
59232 
59152 
59066 
58965 
58837 
58689 
58501 
58347 
58192 
58102 
58016 
57911 
57782 
57641 
57575 
57515 
57427 
57291 
57175 
57150 
57117 
57081 
57027 
56910 
56779 
56730 
56689 
56692 
56664 
56617 
56551 
56515 
56471 
56448 
56435 
56407 
56365 
56335 
56343 
56362 
56393 
56382 
56397 
56475 
56506 
56543 
56604 
56682 
56709 
56710 
56735 
56754 
56769 
56831 
56892 
56896 
56883 
56900 
56955 
56942 
56915 
56910 
56941 
57049 
57066 
57128 
57240 
57286 
57296 
57287 
57285 
57325 
57385 
57437 
57476 
57543 
57643 
57797 
57947 
58009 
58076 
58155 
58264 
58393 
58531 
58671 
58799 
58913 
59039 
59187 
59313 
59437 
59632 
59796 
59915 
60095 
60262 
60423 
60562 
60657 
60759 
60865 
60962 
61064 
61179 
61253 
61292 
61324 
61379 
61429 
61508 
61568 
61610 
61633 
61668 
61691 
61715 
61770 
61765 
61718 
61677 
61630 
61625 
61594 
61525 
61504 
61491 
61452 
61416 
61397 
61345 
61278 
61247 
61192 
61138 
61088 
61014 
60955 
60900 
60857 
60808 
60775 
60732 
60701 
60637 
60589 
60579 
60560 
60497 
60372 
60218 
60092 
59988 
59916 
59877 
59851 
59821 
59830 
59837 
59843 
59818 
59836 
59879 
59881 
59819 
59752 
59746 
59780 
59862 
59912 
59977 
60093 
60188 
60235 
60332 
60433 
60548 
60624 
60700 
60781 
60859 
61027 
61127 
61220 
61319 
61389 
61437 
61528 
61622 
61719 
61828 
61889 
61917 
61973 
62096 
62232 
62306 
62317 
62361 
62432 
62468 
62535 
62606 
62644 
62686 
62726 
62780 
62850 
62862 
62845 
62823 
62834 
62880 
62864 
62900 
63029 
63026 
62980 
62930 
62893 
62847 
62837 
62801 
62745 
62693 
62672 
62722 
62773 
62728 
62688 
62624 
62536 
62507 
62563 
62620 
62602 
62542 
62462 
62396 
62380 
62348 
62273 
62192 
62122 
62012 
61894 
61803 
61733 
61645 
61568 
61515 
61494 
61447 
61409 
61350 
61264 
61207 
61158 
61101 
61009 
60912 
60867 
60796 
60717 
60678 
60661 
60660 
60699 
60709 
60711 
60697 
60670 
60664 
60650 
60638 
60616 
60583 
60543 
60521 
60520 
60513 
60495 
60500 
60506 
60573 
60692 
60733 
60712 
60726 
60752 
60803 
60816 
60807 
60833 
60844 
60871 
60871 
60889 
60917 
60909 
60934 
60977 
60967 
60939 
60973 
61051 
61099 
61131 
61171 
61245 
61304 
61327 
61336 
61285 
61315 
61373 
61435 
61446 
61477 
61491 
61450 
61424 
61444 
61467 
61447 
61417 
61385 
61349 
61304 
61269 
61213 
61170 
61140 
61091 
61083 
61080 
61052 
61086 
61057 
60999 
60956 
60910 
60847 
60778 
60732 
60723 
60736 
60630 
60473 
60348 
60259 
60163 
60064 
59959 
59841 
59688 
59544 
59416 
59229 
59048 
58911 
58824 
58712 
58568 
58463 
58372 
58257 
58114 
57930 
57768 
57639 
57520 
57466 
57426 
57333 
57185 
56981 
56829 
56709 
56577 
56443 
56328 
56237 
56136 
56037 
55963 
55860 
55740 
55665 
55592 
55540 
55486 
55435 
55333 
55288 
55296 
55238 
55198 
55166 
55159 
55185 
55187 
55184 
55196 
55197 
55173 
55113 
55083 
55091 
55104 
55079 
55053 
55114 
55175 
55189 
55208 
55267 
55367 
55412 
55419 
55472 
55525 
55553 
55581 
55663 
55713 
55713 
55755 
55809 
55877 
55928 
55955 
55991 
56033 
56064 
56140 
56241 
56306 
56392 
56463 
56598 
56713 
56836 
57024 
57143 
57274 
57452 
57591 
57746 
57871 
58008 
58135 
58289 
58442 
58595 
58730 
58869 
59036 
59130 
59265 
59394 
59471 
59564 
59732 
59842 
59938 
60080 
60216 
60330 
60447 
60543 
60639 
60727 
60746 
60812 
60843 
60867 
60941 
61066 
61181 
61207 
61248 
61289 
61367 
61439 
61488 
61566 
61634 
61713 
61764 
61786 
61792 
61804 
61846 
61874 
61851 
61836 
61838 
61881 
61905 
61918 
61923 
61918 
61952 
61979 
61961 
61920 
61899 
61867 
61846 
61811 
61768 
61733 
61661 
61619 
61569 
61509 
61458 
61430 
61417 
61391 
61290 
61214 
61199 
61137 
61123 
61113 
61097 
61096 
61085 
61103 
61117 
61149 
61160 
61145 
61123 
61113 
61102 
61106 
61065 
61064 
61090 
61074 
61039 
61030 
61069 
61124 
61117 
61109 
61079 
61022 
61001 
60972 
60972 
61011 
61033 
61013 
61000 
61033 
61028 
61004 
61034 
61060 
61049 
60991 
60969 
60958 
60975 
61010 
61053 
61088 
61127 
61153 
61164 
61185 
61233 
61255 
61283 
61287 
61288 
61368 
61492 
61581 
61661 
61711 
61755 
61832 
61876 
61903 
61989 
62098 
62177 
62299 
62428 
62471 
62496 
62516 
62548 
62682 
62771 
62772 
62754 
62800 
62792 
62778 
62797 
62832 
62875 
62905 
63029 
63068 
63103 
63201 
63278 
63311 
63282 
63295 
63347 
63356 
63336 
63322 
63314 
63330 
63306 
63301 
63338 
63409 
63440 
63445 
63455 
63444 
63420 
63411 
63343 
63285 
63259 
63289 
63338 
63382 
63387 
63357 
63353 
63399 
63406 
63397 
63411 
63434 
63430 
63371 
63317 
63264 
63213 
63156 
63127 
63086 
63034 
62969 
62959 
62954 
62889 
62752 
62661 
62602 
62543 
62545 
62494 
62440 
62443 
62430 
62415 
62368 
62320 
62287 
62305 
62301 
62212 
62119 
62047 
61969 
61928 
61878 
61784 
61701 
61604 
61511 
61477 
61403 
61314 
61281 
61290 
61245 
61183 
61130 
61048 
61031 
60958 
60857 
60837 
60880 
60901 
60880 
60882 
60874 
60868 
60869 
60822 
60848 
60895 
60898 
60927 
61012 
61066 
61156 
61261 
61252 
61277 
61350 
61385 
61423 
61449 
61483 
61470 
61452 
61499 
61562 
61585 
61614 
61603 
61634 
61731 
61813 
61862 
61945 
62005 
62037 
62083 
62182 
62289 
62346 
62348 
62406 
62411 
62369 
62430 
62505 
62469 
62408 
62354 
62324 
62274 
62256 
62212 
62084 
61964 
61927 
61930 
61906 
61808 
61731 
61669 
61587 
61493 
61454 
61422 
61385 
61329 
61299 
61319 
61269 
61234 
61197 
61184 
61182 
61142 
61130 
61138 
61153 
61181 
61184 
61166 
61181 
61220 
61292 
61366 
61437 
61486 
61533 
61575 
61563 
61578 
61622 
61636 
61653 
61696 
61706 
61712 
61761 
61780 
61774 
61812 
61782 
61728 
61726 
61687 
61652 
61665 
61647 
61630 
61654 
61656 
61669 
61623 
61636 
61659 
61666 
61689 
61699 
61706 
61733 
61770 
61759 
61770 
61851 
61865 
61813 
61789 
61724 
61696 
61680 
61694 
61694 
61678 
61712 
61709 
61712 
61781 
61772 
61720 
61766 
61786 
61788 
61795 
61793 
61770 
61735 
61720 
61708 
61647 
61589 
61588 
61628 
61605 
61578 
61541 
61516 
61541 
61574 
61561 
61547 
61589 
61618 
61639 
61625 
61589 
61579 
61608 
61612 
61522 
61456 
61464 
61427 
61385 
61362 
61359 
61363 
61321 
61275 
61282 
61276 
61251 
61279 
61260 
61204 
61179 
61149 
61136 
61138 
61111 
61069 
61042 
61090 
61037 
60998 
60944 
60894 
60846 
60794 
60766 
60727 
60642 
60564 
60511 
60461 
60476 
60473 
60426 
60413 
60480 
60503 
60481 
60408 
60383 
60393 
60396 
60350 
60376 
60407 
60409 
60360 
60321 
60283 
60294 
60280 
60211 
60159 
60148 
60142 
60108 
59974 
59870 
59840 
59865 
59867 
59822 
59763 
59738 
59727 
59698 
59345 
59366 
59394 
59388 
59380 
59369 
59351 
59300 
59253 
59225 
59176 
59186 
59167 
59146 
59123 
59091 
59048 
59006 
59042 
59041 
59031 
59021 
59048 
59075 
59070 
59053 
59020 
58972 
58962 
58980 
58995 
58998 
59028 
58991 
58973 
58933 
58859 
58802 
58801 
58779 
58710 
58662 
58613 
58602 
58563 
58490 
58486 
58479 
58478 
58477 
58382 
58331 
58351 
58328 
58277 
58237 
58178 
58147 
58097 
58051 
58005 
57980 
57951 
57954 
57920 
57901 
57886 
57828 
57825 
57793 
57774 
57712 
57663 
57622 
57583 
57543 
57565 
57558 
57542 
57520 
57521 
57510 
57469 
57428 
57404 
57390 
57419 
57397 
57347 
57352 
57371 
57362 
57377 
57403 
57358 
57381 
57431 
57476 
57501 
57521 
57584 
57648 
57668 
57662 
57631 
57598 
57582 
57594 
57683 
57735 
57759 
57748 
57760 
57834 
57878 
57909 
57936 
57942 
57951 
57919 
57845 
57794 
57724 
57670 
57666 
57660 
57708 
57743 
57713 
57692 
57703 
57755 
57762 
57669 
57641 
57676 
57697 
57701 
57731 
57753 
57741 
57706 
57726 
57757 
57770 
57766 
57810 
57851 
57876 
57865 
57846 
57814 
57780 
57743 
57753 
57758 
57726 
57733 
57745 
57742 
57685 
57648 
57644 
57681 
57729 
57721 
57706 
57716 
57750 
57727 
57658 
57620 
57612 
57559 
57521 
57534 
57539 
57524 
57501 
57480 
57461 
57473 
57443 
57427 
57442 
57503 
57542 
57585 
57571 
57560 
57559 
57528 
57488 
57521 
57565 
57608 
57581 
57550 
57558 
57641 
57670 
57700 
57758 
57804 
57834 
57861 
57893 
57863 
57843 
57860 
57834 
57815 
57795 
57781 
57797 
57821 
57817 
57762 
57738 
57723 
57706 
57705 
57674 
57698 
57689 
57639 
57603 
57637 
57662 
57629 
57608 
57557 
57496 
57442 
57364 
57306 
57228 
57481 
57515 
57530 
57528 
57524 
57536 
57540 
57556 
57609 
57621 
57628 
57692 
57753 
57817 
57834 
57847 
57853 
57862 
57870 
57856 
57910 
57968 
57957 
57962 
58039 
58087 
58155 
58183 
58192 
58230 
58256 
58288 
58317 
58388 
58426 
58466 
58517 
58598 
58634 
58668 
58698 
58691 
58655 
58681 
58739 
58826 
58827 
58761 
58733 
58734 
58739 
58707 
58708 
58765 
58831 
58822 
58803 
58799 
58818 
58835 
58836 
58858 
58848 
58834 
58815 
58833 
58869 
58885 
58887 
58893 
58886 
58866 
58815 
58801 
58832 
58849 
58849 
58839 
58776 
58740 
58717 
58742 
58758 
58732 
58705 
58701 
58705 
58699 
58713 
58721 
58758 
58799 
58832 
58843 
58883 
58913 
58929 
58925 
58922 
58931 
58918 
58899 
58970 
59043 
59071 
59024 
58999 
58970 
58933 
58945 
58948 
58985 
58988 
59004 
59009 
59030 
59078 
59056 
59062 
59185 
59213 
59174 
59144 
59122 
59118 
59148 
59119 
59115 
59125 
59095 
59035 
58976 
58992 
59028 
58940 
58858 
58862 
58832 
58834 
58811 
58778 
58740 
58705 
58708 
58737 
58743 
58701 
58663 
58641 
58561 
58503 
58517 
58508 
58512 
58539 
58481 
58462 
58491 
58485 
58471 
58525 
58573 
58528 
58532 
58560 
58532 
58497 
58486 
58494 
58495 
58437 
58447 
58496 
58477 
58443 
58420 
58379 
58363 
58307 
58270 
58287 
58282 
58287 
58319 
58325 
58323 
58338 
58329 
58321 
58335 
58384 
58410 
58435 
58440 
58417 
58412 
58476 
58541 
58538 
58546 
58571 
58597 
58571 
58544 
58517 
58548 
58611 
58630 
58598 
58560 
58502 
58448 
58452 
58516 
58535 
58467 
58430 
58403 
58388 
58364 
58330 
58302 
58314 
58327 
58347 
58373 
58360 
58344 
58282 
58266 
58295 
58321 
58368 
58404 
58394 
58383 
58386 
58379 
58373 
58393 
58426 
58500 
58512 
58521 
58570 
58567 
58553 
58531 
58483 
58447 
58461 
58505 
58482 
58454 
58486 
58499 
58468 
58447 
58482 
58531 
58571 
58634 
58733 
58754 
58724 
58689 
58667 
58681 
58725 
58795 
58817 
58823 
58826 
58780 
58749 
58739 
58750 
58749 
58722 
58731 
58744 
58734 
58728 
58729 
58749 
58786 
58844 
58844 
58834 
58817 
58791 
58772 
58732 
58706 
58671 
58631 
58596 
58602 
58584 
58593 
58566 
58484 
58439 
58419 
58405 
58366 
58364 
58354 
58311 
58312 
58319 
58316 
58305 
58236 
58222 
58238 
58240 
58307 
58322 
58335 
58312 
58282 
58238 
58251 
58287 
58289 
58269 
58288 
58308 
58313 
58346 
58412 
58416 
58372 
58364 
58331 
58335 
58372 
58412 
58429 
58408 
58345 
58293 
58317 
58310 
58274 
58249 
58257 
58273 
58314 
58344 
58341 
58338 
58334 
58303 
58283 
58309 
58367 
58365 
58340 
58379 
58348 
58308 
58340 
58393 
58370 
58354 
58406 
58444 
58430 
58425 
58433 
58438 
58441 
58457 
58486 
58492 
58480 
58483 
58494 
58506 
58526 
58554 
58576 
58567 
58533 
58535 
58521 
58547 
58572 
58591 
58543 
58493 
58490 
58504 
58463 
58474 
58534 
58540 
58551 
58592 
58637 
58664 
58685 
58696 
58703 
58726 
58732 
58734 
58696 
58704 
58758 
58787 
58759 
58755 
58691 
58626 
58568 
58544 
58508 
58425 
58334 
58298 
58335 
58357 
58329 
58327 
58307 
58279 
58306 
58276 
58268 
58295 
58299 
58287 
58305 
58320 
58328 
58333 
58301 
58227 
58258 
58320 
58365 
58379 
58340 
58310 
58309 
58300 
58290 
58264 
58287 
58310 
58319 
58330 
58318 
58335 
58376 
58328 
58270 
58232 
58282 
58334 
58318 
58330 
58308 
58242 
58216 
58240 
58213 
58185 
58167 
58151 
58189 
58159 
58077 
58003 
57985 
57953 
57931 
57914 
57892 
57896 
57884 
57855 
57832 
57808 
57847 
57848 
57828 
57834 
57848 
57836 
57914 
57942 
57956 
57966 
57918 
57934 
57941 
57903 
57897 
57936 
58022 
58044 
58037 
58003 
57981 
58004 
58087 
58103 
58195 
58300 
58296 
58282 
58294 
58279 
58283 
58297 
58317 
58313 
58318 
58331 
58351 
58382 
58405 
58391 
58364 
58343 
58357 
58389 
58414 
58412 
58396 
58400 
58422 
58391 
58375 
58371 
58295 
58326 
58339 
58320 
58322 
58339 
58313 
58254 
58174 
58121 
58132 
58085 
58037 
57996 
57982 
57949 
57947 
57968 
57964 
57943 
57932 
58003 
58003 
58015 
58044 
58041 
58024 
58038 
58017 
58000 
58019 
58022 
57968 
57947 
57938 
57928 
57964 
58008 
58011 
58008 
57963 
57917 
57897 
57866 
57842 
57855 
57890 
57897 
57881 
57877 
57838 
57821 
57803 
57834 
57885 
57911 
57896 
57834 
57790 
57813 
57800 
57794 
57847 
57898 
57947 
57980 
57965 
57941 
57920 
57888 
57913 
57943 
57981 
58025 
58067 
58094 
58099 
58066 
58020 
57987 
57941 
57891 
57929 
57935 
57916 
57917 
57938 
57993 
58015 
58003 
57987 
57988 
57972 
57959 
57982 
57981 
58037 
58093 
58090 
58109 
58104 
58122 
58139 
58150 
58186 
58186 
58173 
58159 
58133 
58136 
58170 
58198 
58205 
58283 
58386 
58469 
58538 
58597 
58655 
58722 
58764 
58809 
58858 
58980 
59123 
59156 
59211 
59242 
59279 
59309 
59385 
59491 
59556 
59645 
59720 
59812 
59905 
59971 
60028 
60074 
60105 
60164 
60206 
60231 
60318 
60368 
60379 
60456 
60561 
60635 
60645 
60671 
60677 
60667 
60671 
60722 
60822 
60884 
60925 
60972 
61010 
61065 
61092 
61123 
61172 
61239 
61272 
61323 
61364 
61357 
61407 
61520 
61555 
61582 
61620 
61635 
61656 
61643 
61628 
61679 
61717 
61694 
61687 
61702 
61679 
61655 
61686 
61689 
61647 
61656 
61665 
61658 
61632 
61649 
61708 
61796 
61782 
61731 
61745 
61736 
61710 
61714 
61754 
61783 
61818 
61842 
61769 
61692 
61651 
61664 
61670 
61653 
61629 
61567 
61571 
61570 
61541 
61547 
61560 
61522 
61500 
61494 
61446 
61428 
61397 
61412 
61440 
61450 
61432 
61402 
61353 
61264 
61218 
61245 
61289 
61287 
61258 
61216 
61155 
61141 
61137 
61141 
61086 
61067 
61106 
61118 
61075 
61040 
61017 
61019 
61030 
60994 
60972 
60946 
60960 
60928 
60886 
60796 
60741 
60726 
60661 
60626 
60598 
60537 
60517 
60505 
60491 
60450 
60413 
60373 
60294 
60223 
60194 
60212 
60270 
60275 
60230 
60233 
60227 
60209 
60221 
60268 
60321 
60338 
60353 
60286 
60221 
60191 
60222 
60229 
60199 
60124 
60071 
60077 
60142 
60231 
60229 
60210 
60201 
60193 
60235 
60269 
60226 
60220 
60266 
60303 
60296 
60309 
60339 
60355 
60337 
60347 
60386 
60447 
60504 
60546 
60556 
60565 
60576 
60613 
60654 
60643 
60614 
60610 
60617 
60661 
60680 
60650 
60606 
60626 
60637 
60616 
60631 
60705 
60738 
60702 
60711 
60766 
60787 
60785 
60755 
60732 
60738 
60756 
60777 
60777 
60742 
60749 
60716 
60707 
60744 
60737 
60691 
60675 
60702 
60684 
60646 
60651 
60650 
60651 
60617 
60605 
60584 
60601 
60632 
60605 
60552 
60537 
60563 
60578 
60621 
60612 
60554 
60603 
60689 
60737 
60753 
60762 
60754 
60789 
60880 
60953 
60960 
60963 
60980 
61008 
60991 
60999 
60996 
60982 
61013 
61009 
60983 
60966 
60918 
60869 
60897 
60889 
60866 
60884 
60916 
60876 
60820 
60884 
60895 
60883 
60866 
60826 
60826 
60867 
60863 
60899 
60891 
60809 
60776 
60750 
60731 
60724 
60709 
60689 
60657 
60634 
60638 
60637 
60603 
60601 
60603 
60594 
60587 
60561 
60490 
60473 
60491 
60521 
60518 
60487 
60428 
60412 
60391 
60399 
60397 
60362 
60333 
60358 
60397 
60397 
60406 
60470 
60515 
60519 
60513 
60516 
60551 
60573 
60591 
60599 
60626 
60603 
60610 
60616 
60586 
60548 
60574 
60553 
60525 
60547 
60537 
60468 
60457 
60508 
60553 
60527 
60524 
60558 
60568 
60576 
60593 
60654 
60701 
60718 
60722 
60715 
60712 
60700 
60702 
60688 
60690 
60777 
60771 
60729 
60714 
60675 
60682 
60687 
60635 
60580 
60553 
60557 
60550 
60549 
60522 
60518 
60544 
60564 
60608 
60647 
60657 
60651 
60650 
60646 
60663 
60728 
60747 
60725 
60698 
60674 
60699 
60746 
60763 
60742 
60737 
60768 
60830 
60876 
60860 
60849 
60856 
60836 
60844 
60839 
60808 
60825 
60870 
60847 
60828 
60792 
60732 
60717 
60679 
60659 
60689 
60688 
60709 
60789 
60820 
60812 
60809 
60782 
60776 
60818 
60817 
60823 
60856 
60830 
60784 
60789 
60825 
60836 
60848 
60837 
60868 
60894 
60855 
60823 
60766 
60735 
60704 
60696 
60676 
60628 
60616 
60613 
60627 
60629 
60594 
60560 
60526 
60552 
60579 
60579 
60606 
60572 
60515 
60475 
60437 
60405 
60373 
60372 
60357 
60312 
60311 
60229 
60166 
60158 
60107 
60082 
60044 
60029 
60028 
59956 
59890 
59886 
59906 
59973 
60013 
60007 
59981 
59953 
59988 
60024 
60040 
60063 
60047 
60104 
60185 
60239 
60302 
60338 
60363 
60410 
60428 
60417 
60430 
60466 
60497 
60475 
60479 
60574 
60626 
60674 
60726 
60778 
60763 
60763 
60717 
60672 
60657 
60694 
60717 
60746 
60770 
60824 
60907 
60979 
60998 
60974 
60980 
61040 
61094 
61150 
61173 
61182 
61232 
61213 
61161 
61165 
61147 
61138 
61114 
61101 
61103 
61119 
61102 
61053 
61042 
61088 
61089 
61057 
61012 
60973 
60935 
60907 
60903 
60940 
60967 
60993 
61003 
61026 
61030 
60988 
60918 
60862 
60901 
60884 
60850 
60849 
60908 
60947 
60946 
60932 
60954 
60966 
60972 
60996 
60990 
60965 
60951 
60936 
60932 
60997 
61026 
61012 
60967 
60943 
60920 
60897 
60928 
60872 
60835 
60860 
60877 
60826 
60776 
60729 
60665 
60652 
60667 
60625 
60555 
60504 
60516 
60563 
60584 
60585 
60612 
60614 
60569 
60571 
60590 
60589 
60596 
60638 
60637 
60651 
60659 
60628 
60581 
60549 
60564 
60566 
60532 
60493 
60480 
60464 
60438 
60367 
60340 
60340 
60334 
60354 
60352 
60274 
60202 
60167 
60161 
60112 
60083 
60044 
59989 
59944 
59896 
59877 
59914 
59898 
59870 
59854 
59826 
59802 
59773 
59730 
59683 
59656 
59623 
59630 
59653 
59662 
59670 
59669 
59684 
59721 
59730 
59738 
59745 
59726 
59680 
59685 
59693 
59659 
59650 
59633 
59645 
59676 
59711 
59717 
59733 
59721 
59730 
59757 
59797 
59810 
59841 
59876 
59851 
59859 
59937 
60017 
60016 
59995 
59979 
60000 
60037 
60084 
60144 
60189 
60170 
60150 
60175 
60194 
60221 
60251 
60329 
60393 
60407 
60406 
60444 
60461 
60445 
60489 
60571 
60624 
60613 
60605 
60639 
60665 
60681 
60732 
60759 
60748 
60740 
60734 
60787 
60845 
60870 
60920 
61020 
61082 
61080 
61093 
61142 
61178 
61179 
61183 
61222 
61230 
61271 
61312 
61335 
61388 
61456 
61421 
61314 
61277 
61275 
61296 
61262 
61264 
61320 
61331 
61393 
61400 
61441 
61451 
61439 
61430 
61419 
61394 
61453 
61451 
61390 
61390 
61410 
61432 
61441 
61443 
61425 
61388 
61333 
61308 
61273 
61224 
61178 
61168 
61143 
61114 
61075 
61050 
61078 
61062 
60985 
60911 
60892 
60852 
60841 
60853 
60855 
60833 
60813 
60822 
60762 
60723 
60675 
60633 
60567 
60488 
60416 
60378 
60359 
60315 
60275 
60217 
60177 
60171 
60177 
60134 
60093 
60094 
60095 
60096 
60148 
60147 
60118 
60110 
60126 
60149 
60136 
60077 
60047 
60001 
59940 
59895 
59869 
59847 
59867 
59892 
59850 
59773 
59767 
59799 
59806 
59787 
59748 
59782 
59813 
59811 
59814 
59831 
59830 
59843 
59852 
59817 
59792 
59793 
59776 
59773 
59770 
59763 
59773 
59760 
59740 
59750 
59758 
59779 
59789 
59830 
59841 
59812 
59789 
59786 
59777 
59858 
59890 
59870 
59899 
59939 
59955 
59920 
59933 
59965 
59959 
59906 
59944 
59996 
59993 
60033 
60067 
60095 
60153 
60164 
60160 
60172 
60212 
60198 
60191 
60231 
60227 
60190 
60172 
60184 
60158 
60122 
60147 
60147 
60102 
60081 
60065 
60116 
60168 
60177 
60192 
60167 
60153 
60187 
60265 
60318 
60346 
60347 
60367 
60437 
60469 
60542 
60625 
60626 
60632 
60628 
60629 
60611 
60611 
60644 
60681 
60733 
60799 
60839 
60838 
60835 
60897 
60916 
60943 
60988 
60993 
60952 
60925 
60862 
60770 
60729 
60682 
60653 
60655 
60626 
60622 
60609 
60540 
60504 
60449 
60369 
60329 
60264 
60176 
60122 
60076 
59988 
59952 
59884 
59795 
59756 
59709 
59638 
59589 
59529 
59452 
59392 
59359 
59346 
59361 
59406 
59469 
59472 
59435 
59390 
59324 
59280 
59280 
59289 
59293 
59268 
59268 
59285 
59287 
59284 
59279 
59260 
59237 
59257 
59290 
59310 
59310 
59333 
59373 
59343 
59303 
59296 
59282 
59273 
59243 
59258 
59320 
59377 
59405 
59431 
59472 
59487 
59473 
59465 
59480 
59504 
59554 
59594 
59694 
59786 
59864 
59895 
59914 
59961 
59985 
60005 
60017 
60060 
60130 
60183 
60168 
60157 
60188 
60184 
60198 
60206 
60197 
60225 
60267 
60304 
60289 
60264 
60299 
60344 
60378 
60416 
60438 
60443 
60436 
60435 
60427 
60425 
60427 
60466 
60537 
60602 
60686 
60729 
60726 
60763 
60776 
60788 
60819 
60816 
60819 
60868 
60896 
60972 
61037 
61050 
61074 
61138 
61156 
61197 
61232 
61210 
61249 
61314 
61362 
61390 
61374 
61374 
61408 
61451 
61465 
61469 
61509 
61555 
61604 
61647 
61645 
61640 
61647 
61654 
61683 
61674 
61648 
61622 
61632 
61593 
61530 
61490 
61463 
61432 
61426 
61371 
61310 
61301 
61276 
61245 
61232 
61258 
61232 
61198 
61178 
61185 
61208 
61230 
61245 
61223 
61208 
61161 
61147 
61098 
61038 
61002 
60944 
60921 
60907 
60852 
60796 
60753 
60758 
60709 
60665 
60663 
60640 
60602 
60642 
60674 
60657 
60667 
60708 
60724 
60730 
60751 
60721 
60661 
60672 
60736 
60736 
60768 
60799 
60791 
60779 
60789 
60832 
60844 
60834 
60832 
60795 
60799 
60813 
60822 
60816 
60810 
60767 
60709 
60766 
60816 
60820 
60839 
60852 
60859 
60919 
60914 
60893 
60900 
60944 
60946 
60916 
60894 
60888 
60923 
60944 
60978 
61029 
61067 
61063 
61063 
61085 
61093 
61093 
61113 
61189 
61218 
61227 
61301 
61328 
61302 
61275 
61259 
61324 
61361 
61377 
61382 
61343 
61353 
61416 
61468 
61475 
61497 
61483 
61473 
61460 
61409 
61435 
61433 
61460 
61485 
61497 
61496 
61506 
61522 
61472 
61503 
61530 
61502 
61531 
61565 
61546 
61497 
61484 
61481 
61473 
61444 
61401 
61388 
61415 
61424 
61411 
61424 
61446 
61461 
61449 
61394 
61355 
61350 
61381 
61417 
61465 
61470 
61492 
61520 
61481 
61442 
61376 
61309 
61267 
61210 
61153 
61115 
61017 
60958 
60887 
60800 
60726 
60647 
60570 
60568 
60539 
60430 
60333 
60228 
60182 
60171 
60134 
60176 
60190 
60132 
60125 
60123 
60098 
60117 
60128 
60115 
60099 
60109 
60151 
60185 
60215 
60223 
60249 
60251 
60258 
60275 
60280 
60295 
60307 
60294 
60257 
60296 
60300 
60328 
60341 
60368 
60411 
60475 
60510 
60558 
60631 
60642 
60636 
60650 
60692 
60767 
60835 
60864 
60909 
60932 
60976 
61026 
61091 
61216 
61256 
61267 
61331 
61386 
61411 
61438 
61440 
61467 
61507 
61601 
61665 
61712 
61760 
61769 
61782 
61838 
61885 
61898 
61920 
61936 
61995 
62067 
62077 
62047 
62005 
62013 
62015 
62040 
62075 
62110 
62129 
62095 
62119 
62171 
62202 
62224 
62279 
62290 
62319 
62354 
62354 
62353 
62333 
62346 
62393 
62474 
62531 
62576 
62600 
62603 
62590 
62531 
62531 
62585 
62563 
62530 
62532 
62522 
62508 
62517 
62545 
62511 
62513 
62594 
62621 
62660 
62686 
62654 
62571 
62560 
62545 
62521 
62514 
62461 
62455 
62456 
62430 
62394 
62358 
62365 
62401 
62375 
62325 
62292 
62254 
62232 
62183 
62134 
62112 
62033 
61989 
61964 
61903 
61773 
61689 
61665 
61685 
61630 
61512 
61436 
61393 
61369 
61328 
61293 
61250 
61240 
61210 
61139 
61126 
61143 
61131 
61128 
61084 
61044 
60986 
60945 
60939 
60957 
60972 
60994 
60992 
60957 
60953 
60956 
60964 
60943 
60939 
60950 
60981 
60979 
60980 
60974 
60918 
60865 
60879 
60902 
60880 
60872 
60877 
60865 
60822 
60815 
60780 
60787 
60837 
60885 
60900 
60964 
61017 
61013 
60993 
60981 
60946 
61050 
61123 
61150 
61099 
61076 
61131 
61103 
61101 
61147 
61164 
61155 
61172 
61196 
61183 
61169 
61202 
61226 
61225 
61204 
61210 
61247 
61243 
61232 
61214 
61262 
61308 
61358 
61374 
61367 
61370 
61344 
61357 
61401 
61348 
61319 
61336 
61351 
61320 
61345 
61391 
61457 
61526 
61524 
61492 
61535 
61578 
61650 
61670 
61637 
61591 
61533 
61506 
61538 
61538 
61527 
61569 
61558 
61525 
61481 
61416 
61368 
61332 
61332 
61371 
61408 
61447 
61411 
61379 
61382 
61398 
61396 
61413 
61460 
61537 
61520 
61504 
61503 
61531 
61591 
61587 
61579 
61558 
61546 
61529 
61505 
61509 
61446 
61396 
61365 
61335 
61240 
61143 
61109 
61091 
61045 
61068 
61076 
61016 
60972 
60945 
60905 
60901 
60897 
60923 
60950 
60975 
61009 
61020 
61017 
61071 
61051 
60997 
60974 
60986 
60987 
61006 
61009 
61012 
61021 
61026 
60970 
60922 
60979 
61008 
61051 
61060 
61083 
61141 
61232 
61323 
61384 
61366 
61379 
61432 
61470 
61563 
61629 
61676 
61730 
61755 
61771 
61781 
61823 
61902 
62008 
62093 
62126 
62151 
62165 
62172 
62152 
62139 
62145 
62175 
62208 
62230 
62241 
62222 
62194 
62181 
62200 
62191 
62188 
62224 
62255 
62320 
62370 
62365 
62386 
62446 
62445 
62441 
62506 
62588 
62660 
62667 
62655 
62664 
62690 
62722 
62713 
62742 
62806 
62816 
62885 
62947 
62939 
62942 
62956 
62971 
62975 
62959 
62968 
62971 
62966 
62961 
62969 
62975 
62978 
62967 
62899 
62845 
62840 
62802 
62733 
62682 
62634 
62609 
62554 
62438 
62345 
62245 
62091 
61974 
61881 
61754 
61611 
61507 
61394 
61233 
61062 
60868 
60738 
60621 
60578 
60482 
60398 
60343 
60263 
60216 
60158 
60103 
60064 
60000 
59906 
59838 
59802 
59763 
59716 
59661 
59611 
59548 
59485 
59480 
59510 
59475 
59412 
59353 
59284 
59197 
59115 
59071 
59045 
59002 
59018 
59043 
59112 
59145 
59168 
59158 
59176 
59204 
59225 
59297 
59364 
59424 
59502 
59620 
59704 
59779 
59845 
59914 
60003 
60051 
60137 
60220 
60299 
60385 
60482 
60538 
60539 
60553 
60558 
60616 
60713 
60802 
60875 
60934 
60993 
61039 
61098 
61149 
61166 
61170 
61222 
61278 
61298 
61332 
61408 
61475 
61486 
61454 
61437 
61437 
61438 
61424 
61397 
61393 
61385 
61300 
61233 
61219 
61215 
61191 
61168 
61167 
61156 
61169 
61134 
61077 
61040 
61033 
60997 
60920 
60885 
60871 
60856 
60850 
60848 
60809 
60676 
60553 
60492 
60447 
60393 
60300 
60250 
60257 
60262 
60249 
60233 
60235 
60206 
60117 
60041 
59996 
59968 
59946 
59894 
59841 
59822 
59824 
59765 
59756 
59766 
59787 
59827 
59852 
59858 
59889 
59925 
59976 
60001 
60037 
60085 
60124 
60099 
60077 
60124 
60222 
60229 
60177 
60166 
60201 
60248 
60259 
60322 
60435 
60446 
60424 
60425 
60451 
60515 
60586 
60615 
60644 
60672 
60647 
60627 
60639 
60620 
60576 
60550 
60591 
60615 
60602 
60565 
60565 
60571 
60555 
60522 
60490 
60434 
60384 
60295 
60268 
60253 
60213 
60173 
60125 
60063 
60009 
59994 
59939 
59865 
59842 
59803 
59781 
59803 
59792 
59760 
59756 
59747 
59695 
59700 
59695 
59657 
59656 
59636 
59556 
59549 
59545 
59527 
59545 
59611 
59647 
59697 
59682 
59652 
59667 
59706 
59726 
59746 
59761 
59792 
59793 
59809 
59797 
59804 
59860 
59888 
59864 
59919 
59939 
59940 
59937 
59912 
59912 
59943 
59989 
60007 
59976 
59957 
59976 
60048 
60127 
60132 
60150 
60178 
60187 
60276 
60309 
60274 
60277 
60311 
60328 
60372 
60365 
60353 
60389 
60388 
60361 
60341 
60312 
60304 
60343 
60376 
60380 
60399 
60423 
60471 
60528 
60605 
60628 
60653 
60661 
60598 
60535 
60517 
60503 
60509 
60553 
60556 
60557 
60545 
60522 
60488 
60561 
60596 
60578 
60591 
60642 
60655 
60636 
60583 
60578 
60629 
60647 
60627 
60644 
60706 
60726 
60786 
60829 
60806 
60802 
60822 
60867 
60931 
60949 
60920 
60938 
60977 
60998 
60960 
60933 
61008 
61068 
61079 
61133 
61178 
61199 
61194 
61204 
61255 
61280 
61306 
61307 
61264 
61301 
61319 
61316 
61309 
61299 
61297 
61271 
61217 
61218 
61258 
61279 
61250 
61166 
61109 
61164 
61148 
61114 
61067 
61039 
61062 
61039 
61000 
60980 
61000 
60983 
60948 
60935 
60887 
60821 
60786 
60779 
60794 
60759 
60679 
60665 
60644 
60621 
60672 
60690 
60661 
60646 
60614 
60595 
60612 
60637 
60628 
60620 
60593 
60597 
60608 
60593 
60582 
60549 
60490 
60492 
60557 
60580 
60585 
60580 
60584 
60590 
60604 
60609 
60653 
60707 
60743 
60748 
60696 
60721 
60751 
60748 
60782 
60809 
60840 
60894 
60950 
61005 
61050 
61145 
61182 
61200 
61229 
61248 
61185 
61156 
61219 
61307 
61357 
61352 
61375 
61446 
61460 
61445 
61439 
61442 
61487 
61539 
61573 
61642 
61701 
61697 
61690 
61692 
61680 
61667 
61673 
61729 
61767 
61793 
61820 
61803 
61767 
61737 
61771 
61809 
61788 
61778 
61861 
61888 
61879 
61859 
61867 
61854 
61842 
61822 
61845 
61843 
61791 
61752 
61782 
61804 
61777 
61749 
61756 
61770 
61829 
61873 
61943 
61938 
61907 
61943 
61971 
61983 
62010 
62005 
61975 
61975 
62004 
62003 
61985 
61970 
61958 
62013 
62032 
62006 
62009 
62016 
62001 
61973 
61925 
61916 
61926 
61927 
61890 
61898 
61920 
61879 
61793 
61645 
61606 
61548 
61460 
61384 
61339 
61265 
61230 
61246 
61261 
61223 
61156 
61147 
61114 
61060 
61043 
60999 
60938 
60911 
60871 
60844 
60825 
60853 
60843 
60826 
60783 
60722 
60708 
60685 
60664 
60691 
60670 
60656 
60646 
60589 
60513 
60465 
60445 
60432 
60437 
60485 
60500 
60525 
60578 
60591 
60535 
60511 
60571 
60637 
60699 
60734 
60764 
60804 
60826 
60887 
60915 
60913 
60934 
60948 
60956 
61003 
61030 
61067 
61114 
61161 
61203 
61209 
61241 
61323 
61340 
61286 
61249 
61254 
61347 
61415 
61479 
61481 
61450 
61439 
61386 
61370 
61449 
61478 
61470 
61455 
61487 
61505 
61491 
61438 
61397 
61420 
61508 
61567 
61566 
61561 
61569 
61579 
61595 
61606 
61640 
61599 
61559 
61562 
61588 
61624 
61631 
61674 
61728 
61774 
61810 
61830 
61821 
61799 
61747 
61727 
61717 
61761 
61813 
61830 
61860 
61865 
61884 
61879 
61922 
61980 
62022 
62046 
62132 
62200 
62192 
62224 
62270 
62352 
62435 
62476 
62494 
62530 
62597 
62678 
62713 
62736 
62768 
62750 
62717 
62729 
62742 
62756 
62782 
62818 
62868 
62922 
62950 
62965 
62966 
62969 
62972 
62970 
62916 
62885 
62879 
62856 
62798 
62665 
62565 
62464 
62388 
62311 
62191 
62098 
61991 
61878 
61772 
61652 
61519 
61413 
61330 
61240 
61174 
61110 
61002 
60915 
60877 
60785 
60672 
60570 
60469 
60392 
60337 
60299 
60307 
60303 
60309 
60242 
60183 
60122 
60078 
60013 
59990 
59997 
59944 
59904 
59942 
59957 
59919 
59882 
59865 
59824 
59781 
59731 
59749 
59794 
59845 
59915 
59966 
59987 
60040 
60067 
60103 
60117 
60134 
60180 
60297 
60366 
60419 
60502 
60533 
60498 
60500 
60599 
60682 
60668 
60676 
60710 
60706 
60721 
60801 
60890 
60958 
61040 
61065 
61100 
61173 
61287 
61471 
61576 
61665 
61745 
61798 
61880 
62003 
62083 
62152 
62197 
62272 
62350 
62410 
62488 
62481 
62519 
62512 
62465 
62478 
62516 
62563 
62616 
62698 
62745 
62750 
62727 
62733 
62743 
62800 
62888 
62959 
62967 
62973 
63015 
63104 
63206 
63310 
63357 
63381 
63452 
63489 
63505 
63514 
63497 
63529 
63570 
63581 
63592 
63577 
63573 
63590 
63560 
63551 
63541 
63535 
63508 
63486 
63451 
63444 
63477 
63464 
63468 
63494 
63489 
63461 
63444 
63478 
63537 
63565 
63584 
63564 
63581 
63581 
63534 
63458 
63378 
63313 
63275 
63267 
63174 
63059 
62910 
62702 
62515 
62351 
62251 
62111 
61918 
61766 
61612 
61420 
61277 
61149 
61058 
60948 
60884 
60824 
60751 
60682 
60627 
60596 
60606 
60614 
60557 
60517 
60512 
60473 
60434 
60405 
60401 
60359 
60290 
60217 
60152 
60048 
59983 
59983 
59996 
59972 
59977 
59935 
59866 
59825 
59843 
59847 
59848 
59844 
59927 
59928 
59898 
59885 
59870 
59874 
59853 
59852 
59839 
59836 
59869 
59905 
59927 
59927 
59912 
59911 
59919 
59916 
59897 
59899 
59971 
60018 
60032 
60011 
59953 
59916 
59917 
59886 
59887 
59930 
59985 
60021 
60069 
60043 
60044 
60044 
60032 
60071 
60151 
60233 
60195 
60184 
60224 
60221 
60232 
60259 
60278 
60296 
60287 
60254 
60206 
60165 
60199 
60244 
60261 
60319 
60412 
60454 
60417 
60399 
60424 
60435 
60464 
60477 
60521 
60565 
60579 
60569 
60567 
60591 
60586 
60622 
60635 
60661 
60678 
60651 
60604 
60575 
60565 
60572 
60603 
60641 
60725 
60769 
60783 
60826 
60845 
60846 
60821 
60828 
60874 
60895 
60883 
60908 
60967 
61019 
61063 
61121 
61162 
61150 
61149 
61192 
61215 
61237 
61251 
61179 
61080 
60996 
60983 
60915 
60819 
60755 
60697 
60590 
60466 
60374 
60341 
60304 
60261 
60208 
60116 
60070 
60088 
60124 
60095 
60061 
60072 
60059 
60073 
60124 
60129 
60137 
60166 
60150 
60148 
60136 
60108 
60104 
60103 
60123 
60115 
60065 
60041 
60013 
60021 
60085 
60098 
60106 
60094 
60104 
60156 
60182 
60186 
60220 
60247 
60257 
60228 
60243 
60284 
60276 
60309 
60334 
60405 
60465 
60493 
60531 
60597 
60632 
60713 
60792 
60782 
60769 
60826 
60939 
60962 
60965 
60980 
61011 
61062 
61085 
61108 
61138 
61165 
61215 
61248 
61257 
61240 
61253 
61309 
61373 
61428 
61472 
61477 
61486 
61495 
61521 
61519 
61550 
61530 
61518 
61571 
61586 
61557 
61546 
61551 
61507 
61453 
61427 
61398 
61366 
61381 
61383 
61386 
61416 
61467 
61521 
61551 
61573 
61608 
61670 
61711 
61707 
61717 
61738 
61825 
61890 
61959 
62006 
62056 
62085 
62114 
62146 
62171 
62156 
62163 
62177 
62198 
62235 
62247 
62253 
62227 
62227 
62211 
62199 
62197 
62173 
62144 
62116 
62107 
62146 
62142 
62169 
62158 
62147 
62151 
62160 
62116 
62109 
62146 
62183 
62248 
62294 
62303 
62303 
62295 
62244 
62220 
62250 
62200 
62058 
61962 
61934 
61907 
61861 
61835 
61777 
61695 
61604 
61496 
61467 
61441 
61387 
61376 
61397 
61384 
61408 
61427 
61423 
61510 
61554 
61581 
61655 
61703 
61758 
61782 
61880 
62020 
62094 
62165 
62225 
62299 
62348 
62423 
62516 
62586 
62615 
62609 
62652 
62722 
62773 
62840 
62908 
62940 
62990 
63091 
63174 
63303 
63398 
63467 
63532 
63553 
63627 
63684 
63755 
63816 
63875 
63929 
63977 
64038 
64106 
64136 
64157 
64160 
64236 
64297 
64368 
64423 
64416 
64406 
64421 
64410 
64406 
64393 
64376 
64331 
64279 
64227 
64242 
64254 
64292 
64291 
64242 
64203 
64202 
64180 
64217 
64214 
64178 
64095 
64067 
64078 
64065 
64033 
63982 
63942 
63908 
63851 
63807 
63762 
63714 
63689 
63705 
63677 
63633 
63579 
63498 
63446 
63362 
63292 
63245 
63189 
63112 
63093 
63073 
63037 
63008 
63004 
63027 
63069 
63047 
63030 
63052 
63045 
63006 
62994 
62986 
63033 
63082 
63122 
63146 
63126 
63128 
63144 
63173 
63244 
63290 
63308 
63324 
63379 
63427 
63490 
63518 
63538 
63554 
63596 
63641 
63614 
63606 
63633 
63626 
63579 
63602 
63647 
63663 
63683 
63682 
63673 
63633 
63576 
63494 
63364 
63255 
63169 
63114 
63035 
62920 
62818 
62712 
62592 
62477 
62412 
62281 
62117 
62015 
61938 
61881 
61789 
61724 
61691 
61638 
61571 
61530 
61544 
61540 
61585 
61659 
61718 
61763 
61812 
61855 
61963 
62039 
62091 
62185 
62234 
62280 
62350 
62466 
62571 
62678 
62737 
62797 
62920 
63078 
63153 
63224 
63298 
63361 
63413 
63525 
63575 
63625 
63610 
63633 
63692 
63710 
63741 
63780 
63781 
63811 
63858 
63892 
63933 
63938 
63924 
63913 
63921 
63878 
63825 
63807 
63807 
63779 
63717 
63652 
63522 
63334 
63144 
62882 
62589 
62247 
61889 
61581 
61273 
60934 
60587 
60315 
60110 
59922 
59801 
59699 
59614 
59578 
59550 
59514 
59510 
59538 
59538 
59522 
59570 
59612 
59668 
59722 
59762 
59836 
59947 
60046 
60132 
60204 
60242 
60200 
60136 
60103 
60092 
60082 
60021 
59964 
59919 
59809 
59664 
59518 
59342 
59187 
59007 
58769 
58574 
58434 
58363 
58365 
58366 
58357 
58374 
58352 
58239 
58080 
57870 
57621 
57366 
57071 
56764 
56394 
56123 
55936 
55782 
55605 
55488 
55506 
55611 
55805 
56027 
56242 
56500 
56740 
57011 
57268 
57560 
57920 
58212 
58543 
58887 
59206 
59566 
59877 
60123 
60345 
60550 
60686 
60819 
60943 
61006 
61039 
61072 
61046 
60974 
60873 
60732 
60605 
60460 
60308 
60144 
59963 
59731 
59505 
59371 
59239 
59128 
59079 
59044 
59073 
59147 
59225 
59298 
59329 
59368 
59441 
59561 
59612 
59673 
59689 
59697 
59695 
59686 
59718 
59736 
59850 
59956 
60024 
60004 
59964 
59993 
60043 
60077 
60123 
60194 
60221 
60260 
60271 
60249 
60222 
60150 
60163 
60161 
60162 
60191 
60204 
60172 
60200 
60290 
60292 
60225 
60189 
60142 
60085 
60030 
59941 
59854 
59787 
59672 
59501 
59299 
59140 
59014 
58857 
58661 
58558 
58441 
58320 
58253 
58146 
58018 
57936 
57902 
57911 
57840 
57794 
57752 
57724 
57667 
57683 
57731 
57771 
57797 
57780 
57753 
57764 
57784 
57861 
57904 
57886 
57878 
57879 
57915 
57936 
57955 
57972 
57959 
58001 
58035 
58059 
58023 
58003 
58004 
57974 
57968 
57982 
58010 
58006 
57991 
57978 
57951 
57910 
57886 
57875 
57827 
57788 
57742 
57717 
57708 
57698 
57674 
57656 
57631 
57626 
57623 
57623 
57604 
57626 
57560 
57510 
57459 
57358 
57211 
57077 
56979 
56848 
56700 
56595 
56496 
56336 
56159 
56000 
55833 
55652 
55470 
55344 
55206 
54999 
54849 
54698 
54503 
54350 
54227 
54149 
54135 
54103 
54029 
53943 
53869 
53850 
53848 
53888 
53929 
53921 
53947 
53972 
53919 
53831 
53802 
53847 
53830 
53795 
53800 
53808 
53782 
53769 
53724 
53639 
53563 
53551 
53567 
53546 
53572 
53617 
53649 
53707 
53778 
53853 
53889 
53928 
53988 
54111 
54261 
54387 
54509 
54580 
54668 
54790 
54915 
55052 
55137 
55250 
55331 
55393 
55503 
55595 
55679 
55763 
55786 
55725 
55716 
55692 
55650 
55572 
55486 
55445 
55368 
55225 
55120 
54977 
54829 
54705 
54562 
54395 
54182 
54007 
53853 
53666 
53487 
53328 
53138 
52969 
52870 
52790 
52671 
52617 
52594 
52593 
52592 
52566 
52597 
52647 
52682 
52783 
52865 
52944 
53022 
53100 
53171 
53297 
53459 
53582 
53741 
53921 
54095 
54237 
54370 
54483 
54585 
54690 
54824 
54984 
55136 
55262 
55348 
55432 
55595 
55758 
55879 
56005 
56140 
56281 
56415 
56498 
56602 
56736 
56859 
56954 
57029 
57074 
57186 
57310 
57449 
57593 
57693 
57817 
57953 
58098 
58262 
58396 
58510 
58646 
58800 
58919 
58979 
59099 
59233 
59367 
59545 
59689 
59764 
59818 
59866 
59939 
60001 
60071 
60185 
60323 
60440 
60578 
60729 
60811 
60905 
61041 
61188 
61327 
61478 
61560 
61684 
61849 
61988 
62067 
62160 
62230 
62259 
62381 
62482 
62562 
62656 
62759 
62875 
63033 
63161 
63321 
63456 
63581 
63710 
63847 
63961 
64067 
64233 
64421 
64566 
64699 
64842 
65022 
65207 
65455 
65617 
65798 
65940 
66069 
66275 
66443 
66609 
66771 
66889 
67023 
67187 
67318 
67472 
67581 
67698 
67860 
67962 
68013 
68059 
68130 
68175 
68220 
68300 
68366 
68384 
68398 
68403 
68320 
68259 
68202 
68113 
68032 
67948 
67870 
67835 
67790 
67797 
67730 
67617 
67599 
67629 
67586 
67490 
67442 
67384 
67328 
67287 
67278 
67254 
67229 
67137 
67078 
66991 
66886 
66710 
66591 
66532 
66481 
66375 
66286 
66196 
66054 
65881 
65706 
65529 
65346 
65115 
64837 
64556 
64219 
63896 
63595 
63299 
62980 
62695 
62426 
62120 
61796 
61558 
61343 
61078 
60866 
60674 
60449 
60162 
59878 
59583 
59328 
59088 
58800 
58522 
58230 
57908 
57535 
57191 
56910 
56634 
56395 
56168 
55988 
55804 
55628 
55457 
55310 
55206 
55111 
55019 
54992 
54923 
54925 
54974 
54988 
54941 
54883 
54802 
54689 
54590 
54512 
54417 
54323 
54234 
54078 
53920 
53776 
53686 
53621 
53584 
53517 
53475 
53363 
53292 
53236 
53192 
53229 
53220 
53130 
53083 
53085 
53083 
53033 
52972 
52859 
52727 
52674 
52631 
52540 
52457 
52399 
52341 
52191 
52037 
51882 
51758 
51605 
51515 
51452 
51426 
51378 
51307 
51301 
51293 
51261 
51237 
51237 
51230 
51194 
51149 
51142 
51118 
51055 
50976 
50871 
50791 
50721 
50670 
50626 
50538 
50434 
50321 
50230 
50152 
50104 
50075 
50068 
50063 
50028 
49943 
49827 
49764 
49742 
49647 
49540 
49392 
49244 
49084 
48906 
48731 
48553 
48383 
48200 
48022 
47888 
47768 
47690 
47603 
47581 
47572 
47512 
47390 
47242 
47091 
47018 
46906 
46744 
46589 
46404 
46220 
46036 
45760 
45476 
45209 
44998 
44801 
44638 
44493 
44345 
44203 
44060 
43928 
43795 
43699 
43709 
43711 
43668 
43622 
43601 
43613 
43603 
43620 
43673 
43738 
43769 
43817 
43914 
44026 
44146 
44229 
44307 
44384 
44401 
44466 
44545 
44618 
44670 
44737 
44812 
44818 
44866 
44965 
45047 
45157 
45275 
45403 
45521 
45574 
45665 
45753 
45816 
45872 
46034 
46161 
46271 
46422 
46604 
46760 
46874 
46983 
47138 
47265 
47371 
47537 
47708 
47872 
47990 
48129 
48255 
48359 
48452 
48480 
48549 
48668 
48819 
48939 
49028 
49144 
49298 
49471 
49629 
49750 
49880 
50049 
50176 
50268 
50362 
50437 
50595 
50788 
50914 
51034 
51176 
51323 
51497 
51716 
51941 
52101 
52307 
52493 
52666 
52879 
53053 
53276 
53532 
53750 
53899 
54107 
54293 
54450 
54613 
54739 
54870 
55018 
55213 
55397 
55502 
55612 
55734 
55869 
56012 
56160 
56328 
56457 
56549 
56682 
56764 
56859 
56949 
57056 
57156 
57278 
57373 
57420 
57418 
57460 
57498 
57499 
57532 
57573 
57609 
57566 
57477 
57373 
57255 
57101 
56980 
56876 
56752 
56605 
56475 
56349 
56232 
56134 
56000 
55890 
55758 
55627 
55506 
55405 
55361 
55306 
55302 
55283 
55211 
55219 
55218 
55228 
55223 
55193 
55154 
55138 
55148 
55154 
55129 
55076 
55041 
55025 
55016 
55009 
54990 
54990 
54993 
54937 
54904 
54858 
54772 
54681 
54638 
54592 
54547 
54548 
54571 
54606 
54622 
54595 
54597 
54628 
54675 
54737 
54801 
54911 
55007 
55054 
55111 
55146 
55191 
55194 
55206 
55317 
55361 
55393 
55452 
55505 
55638 
55760 
55830 
55887 
55901 
55883 
55894 
55970 
56095 
56166 
56220 
56269 
56305 
56389 
56500 
56624 
56696 
56748 
56812 
56883 
56961 
57081 
57199 
57309 
57386 
57468 
57604 
57762 
57868 
58014 
58200 
58408 
58600 
58767 
58910 
59099 
59251 
59366 
59511 
59675 
59830 
59968 
60028 
60119 
60215 
60278 
60341 
60326 
60323 
60330 
60287 
60224 
60177 
60157 
60101 
60050 
60010 
59929 
59826 
59730 
59603 
59485 
59333 
59177 
59004 
58824 
58682 
58527 
58347 
58193 
58024 
57867 
57617 
57361 
57138 
56884 
56640 
56383 
56125 
55823 
55541 
55284 
55049 
54804 
54546 
54323 
54117 
53873 
53665 
53497 
53330 
53203 
53106 
52992 
52855 
52789 
52724 
52711 
52689 
52612 
52609 
52660 
52750 
52821 
52899 
52976 
53081 
53132 
53160 
53265 
53416 
53627 
53852 
54039 
54199 
54370 
54587 
54805 
55046 
55242 
55358 
55470 
55615 
55771 
55893 
56050 
56195 
56321 
56440 
56569 
56719 
56850 
56931 
57023 
57125 
57264 
57446 
57515 
57510 
57545 
57657 
57754 
57828 
57855 
57932 
57987 
58021 
58005 
57989 
58010 
58045 
58041 
58008 
57958 
57922 
57922 
57925 
57942 
57937 
58006 
58045 
58045 
58040 
58006 
58047 
58084 
58081 
58056 
58055 
58075 
58102 
58141 
58152 
58144 
58144 
58173 
58187 
58212 
58252 
58288 
58327 
58336 
58400 
58413 
58418 
58452 
58510 
58550 
58567 
58640 
58718 
58763 
58806 
58827 
58883 
58944 
59020 
58990 
59005 
59047 
59067 
59065 
59105 
59154 
59179 
59155 
59112 
59071 
59088 
59065 
59061 
59004 
58968 
58949 
58893 
58797 
58673 
58545 
58458 
58379 
58236 
58095 
57975 
57809 
57679 
57555 
57445 
57342 
57215 
57039 
56802 
56610 
56436 
56292 
56218 
56157 
56055 
55925 
55816 
55741 
55625 
55504 
55415 
55325 
55247 
55175 
55092 
55022 
54925 
54877 
54796 
54690 
54645 
54592 
54551 
54500 
54441 
54426 
54454 
54515 
54568 
54566 
54591 
54696 
54769 
54821 
54897 
55053 
55201 
55381 
55511 
55597 
55711 
55852 
55981 
56048 
56115 
56190 
56291 
56354 
56366 
56362 
56368 
56419 
56516 
56529 
56413 
56317 
56264 
56211 
56147 
56032 
55959 
56016 
56012 
55989 
55953 
55925 
55943 
56005 
56061 
56058 
56055 
56103 
56178 
56139 
56069 
56037 
56062 
56059 
56056 
56080 
56113 
56103 
56139 
56159 
56139 
56155 
56195 
56197 
56214 
56225 
56217 
56236 
56276 
56283 
56326 
56370 
56376 
56395 
56457 
56490 
56481 
56461 
56464 
56540 
56666 
56715 
56691 
56673 
56699 
56719 
56777 
56884 
56939 
56929 
56967 
57007 
57015 
57021 
56990 
56946 
56930 
56892 
56850 
56815 
56775 
56718 
56621 
56528 
56398 
56254 
56113 
55975 
55836 
55652 
55509 
55373 
55203 
55070 
54949 
54850 
54685 
54549 
54450 
54293 
54162 
54063 
53985 
53888 
53779 
53691 
53601 
53485 
53454 
53459 
53458 
53432 
53417 
53415 
53403 
53395 
53430 
53473 
53534 
53593 
53661 
53721 
53774 
53783 
53810 
53858 
53943 
54049 
54189 
54332 
54433 
54561 
54699 
54812 
54932 
55073 
55184 
55294 
55396 
55519 
55622 
55702 
55827 
55979 
56039 
56103 
56151 
56243 
56331 
56448 
56499 
56541 
56635 
56687 
56737 
56760 
56743 
56813 
56834 
56866 
56830 
56781 
56813 
56816 
56790 
56742 
56720 
56695 
56703 
56685 
56602 
56510 
56440 
56411 
56361 
56315 
56242 
56154 
56135 
56090 
56033 
56018 
56006 
55976 
55979 
55954 
55968 
55983 
56029 
56086 
56095 
56103 
56110 
56099 
56088 
56034 
55979 
55996 
56035 
56020 
55984 
55941 
55884 
55804 
55733 
55695 
55708 
55722 
55680 
55670 
55724 
55743 
55763 
55788 
55788 
55776 
55812 
55837 
55890 
55934 
55942 
55940 
55901 
55882 
55885 
55881 
55873 
55877 
55825 
55720 
55576 
55447 
55352 
55250 
55093 
54939 
54812 
54687 
54593 
54462 
54274 
54135 
53985 
53844 
53688 
53525 
53422 
53310 
53170 
53015 
52906 
52767 
52630 
52510 
52369 
52261 
52213 
52117 
51997 
51987 
52010 
51958 
51919 
51801 
51680 
51645 
51668 
51677 
51656 
51646 
51635 
51636 
51685 
51708 
51747 
51778 
51751 
51815 
51930 
52050 
52075 
52139 
52205 
52293 
52438 
52561 
52706 
52829 
52997 
53112 
53191 
53329 
53413 
53550 
53690 
53822 
53946 
54047 
54135 
54194 
54260 
54310 
54356 
54471 
54634 
54764 
54814 
54873 
54979 
55113 
55241 
55297 
55324 
55400 
55534 
55627 
55693 
55719 
55703 
55728 
55809 
55872 
55926 
55956 
55944 
55948 
55944 
55949 
56022 
56072 
56150 
56201 
56251 
56283 
56334 
56408 
56462 
56493 
56527 
56503 
56442 
56484 
56536 
56597 
56640 
56679 
56715 
56741 
56787 
56839 
56909 
56966 
56999 
56958 
56892 
56879 
57002 
57069 
57044 
57050 
57032 
57001 
57070 
57136 
57127 
57102 
57165 
57215 
57278 
57347 
57414 
57431 
57455 
57480 
57511 
57581 
57596 
57496 
57420 
57397 
57389 
57362 
57310 
57279 
57223 
57094 
57047 
57005 
56876 
56775 
56635 
56476 
56351 
56265 
56173 
56041 
55827 
55635 
55486 
55377 
55286 
55155 
54984 
54791 
54680 
54601 
54469 
54337 
54251 
54183 
54100 
54110 
54122 
54101 
54035 
53951 
53872 
53853 
53899 
53924 
53937 
53940 
53957 
53939 
53965 
53971 
54069 
54192 
54258 
54308 
54362 
54433 
54494 
54551 
54659 
54789 
54888 
55009 
55162 
55267 
55338 
55412 
55464 
55520 
55666 
55756 
55784 
55850 
55940 
56015 
56094 
56171 
56242 
56287 
56281 
56271 
56271 
56341 
56387 
56410 
56435 
56422 
56418 
56423 
56451 
56509 
56502 
56431 
56382 
56378 
56379 
56362 
56358 
56359 
56341 
56313 
56268 
56251 
56213 
56225 
56261 
56266 
56221 
56167 
56155 
56163 
56124 
56117 
56077 
56007 
55969 
55932 
55883 
55829 
55848 
55881 
55903 
55930 
55919 
55897 
55867 
55792 
55733 
55719 
55708 
55659 
55600 
55559 
55541 
55559 
55616 
55643 
55629 
55604 
55569 
55527 
55581 
55628 
55669 
55686 
55654 
55672 
55690 
55763 
55840 
55811 
55803 
55811 
55833 
55823 
55747 
55674 
55657 
55624 
55564 
55510 
55368 
55280 
55160 
54998 
54849 
54682 
54530 
54379 
54245 
54089 
53922 
53732 
53545 
53413 
53243 
53053 
52855 
52712 
52569 
52447 
52336 
52225 
52119 
52027 
51887 
51745 
51683 
51603 
51520 
51477 
51461 
51410 
51376 
51341 
51269 
51144 
51062 
51035 
51083 
51162 
51247 
51252 
51246 
51261 
51282 
51318 
51329 
51362 
51438 
51529 
51606 
51694 
51749 
51820 
51986 
52151 
52337 
52505 
52646 
52854 
53041 
53168 
53303 
53471 
53590 
53690 
53799 
53875 
53978 
54153 
54291 
54363 
54474 
54600 
54622 
54637 
54714 
54816 
54887 
54969 
55036 
55082 
55129 
55142 
55167 
55232 
55252 
55297 
55313 
55281 
55291 
55336 
55418 
55433 
55438 
55476 
55490 
55487 
55453 
55412 
55399 
55457 
55455 
55478 
55448 
55419 
55462 
55522 
55584 
55630 
55659 
55659 
55668 
55734 
55816 
55797 
55716 
55693 
55668 
55747 
55757 
55720 
55673 
55667 
55740 
55859 
55923 
55918 
55892 
55832 
55803 
55828 
55843 
55903 
56001 
56035 
56048 
56068 
56122 
56195 
56228 
56165 
56141 
56100 
55965 
55848 
55719 
55600 
55455 
55293 
55151 
54983 
54813 
54629 
54429 
54248 
54021 
53802 
53609 
53400 
53172 
52979 
52775 
52608 
52439 
52290 
52171 
52060 
51921 
51764 
51651 
51554 
51387 
51223 
51094 
50905 
50740 
50549 
50390 
50229 
50074 
49897 
49743 
49596 
49454 
49324 
49211 
49093 
48988 
48887 
48775 
48712 
48712 
48624 
48536 
48477 
48433 
48399 
48394 
48350 
48331 
48326 
48330 
48377 
48403 
48442 
48539 
48624 
48712 
48788 
48805 
48837 
48908 
49011 
49099 
49180 
49266 
49322 
49444 
49530 
49600 
49614 
49732 
49905 
49998 
50089 
50215 
50345 
50439 
50492 
50558 
50675 
50751 
50797 
50807 
50815 
50844 
50941 
50991 
50996 
51079 
51141 
51119 
51081 
51112 
51163 
51298 
51416 
51441 
51446 
51503 
51570 
51663 
51741 
51767 
51789 
51846 
51921 
52044 
52178 
52214 
52278 
52397 
52471 
52531 
52628 
52747 
52854 
52966 
53086 
53180 
53307 
53470 
53623 
53766 
53874 
53983 
54104 
54209 
54270 
54405 
54531 
54641 
54711 
54816 
54897 
54981 
55034 
55099 
55159 
55247 
55372 
55461 
55541 
55583 
55592 
55618 
55647 
55646 
55633 
55664 
55641 
55578 
55527 
55417 
55264 
55122 
54983 
54833 
54732 
54621 
54450 
54288 
54106 
53861 
53685 
53556 
53387 
53219 
53033 
52838 
52618 
52394 
52259 
52106 
51949 
51858 
51742 
51612 
51488 
51357 
51253 
51150 
51078 
50967 
50874 
50822 
50794 
50771 
50720 
50644 
50601 
50585 
50618 
50677 
50732 
50740 
50745 
50746 
50822 
50873 
50960 
51043 
51117 
51184 
51263 
51299 
51356 
51464 
51539 
51611 
51708 
51812 
51858 
51966 
52135 
52254 
52339 
52390 
52431 
52501 
52606 
52703 
52795 
52878 
52971 
53028 
53050 
53153 
53265 
53322 
53359 
53395 
53438 
53496 
53514 
53615 
53679 
53726 
53785 
53830 
53935 
54037 
54053 
54117 
54231 
54346 
54434 
54515 
54631 
54730 
54768 
54810 
54873 
54945 
54977 
55010 
55048 
55077 
55100 
55143 
55241 
55298 
55296 
55329 
55361 
55420 
55528 
55605 
55648 
55688 
55693 
55777 
55870 
55950 
56009 
55977 
55965 
56015 
56088 
56116 
56102 
56114 
56132 
56053 
56004 
56024 
56037 
56050 
56006 
55931 
55863 
55807 
55773 
55688 
55564 
55456 
55375 
55317 
55282 
55254 
55168 
55066 
54918 
54750 
54610 
54456 
54293 
54152 
54019 
53903 
53774 
53620 
53484 
53320 
53215 
53104 
52977 
52851 
52721 
52635 
52591 
52505 
52413 
52378 
52305 
52209 
52151 
52072 
52078 
52036 
51987 
51959 
51990 
52007 
52009 
52029 
52052 
51974 
51929 
51899 
51885 
51899 
51895 
51889 
51874 
51911 
51917 
51941 
51996 
51989 
51965 
51955 
51965 
52036 
52084 
52141 
52178 
52192 
52217 
52217 
52253 
52296 
52375 
52454 
52536 
52658 
52749 
52856 
52926 
52996 
53061 
53114 
53186 
53255 
53340 
53357 
53380 
53460 
53493 
53507 
53573 
53630 
53683 
53703 
53734 
53791 
53863 
53907 
54004 
54109 
54238 
54315 
54431 
54593 
54725 
54846 
54992 
55059 
55145 
55317 
55431 
55487 
55527 
55578 
55606 
55675 
55736 
55833 
55896 
55937 
56022 
56075 
56098 
56132 
56136 
56110 
56098 
56152 
56140 
56040 
55963 
55914 
55925 
55907 
55855 
55831 
55781 
55752 
55668 
55575 
55498 
55415 
55350 
55294 
55231 
55204 
55194 
55136 
55111 
55035 
54936 
54836 
54726 
54609 
54539 
54495 
54485 
54476 
54473 
54411 
54367 
54321 
54267 
54259 
54256 
54232 
54169 
54091 
54037 
53931 
53819 
53711 
53620 
53501 
53425 
53322 
53166 
53001 
52797 
52593 
52426 
52298 
52223 
52083 
51951 
51851 
51737 
51584 
51407 
51258 
51117 
51014 
50902 
50830 
50802 
50771 
50771 
50762 
50742 
50697 
50697 
50673 
50645 
50685 
50730 
50804 
50893 
50941 
50983 
51050 
51148 
51211 
51225 
51311 
51457 
51524 
51590 
51683 
51800 
51889 
52035 
52226 
52369 
52510 
52631 
52743 
52842 
52962 
53101 
53200 
53325 
53443 
53548 
53623 
53726 
53812 
53932 
54015 
54047 
54143 
54198 
54235 
54325 
54399 
54454 
54506 
54474 
54472 
54480 
54477 
54451 
54414 
54406 
54443 
54506 
54509 
54431 
54332 
54286 
54258 
54236 
54169 
54066 
53963 
53922 
53895 
53839 
53712 
53624 
53569 
53514 
53468 
53415 
53382 
53282 
53185 
53134 
53065 
53003 
52941 
52913 
52953 
52999 
53052 
53087 
53091 
53128 
53148 
53195 
53233 
53270 
53323 
53344 
53403 
53459 
53524 
53616 
53666 
53728 
53846 
53928 
53987 
54057 
54129 
54215 
54354 
54475 
54558 
54613 
54698 
54742 
54794 
54802 
54798 
54854 
54885 
54888 
54863 
54804 
54750 
54726 
54687 
54622 
54574 
54479 
54370 
54250 
54090 
53909 
53764 
53652 
53533 
53430 
53295 
53140 
53034 
52961 
52893 
52854 
52857 
52797 
52727 
52666 
52630 
52635 
52679 
52695 
52684 
52679 
52687 
52702 
52728 
52708 
52753 
52810 
52822 
52863 
52927 
52950 
52992 
53088 
53204 
53297 
53336 
53391 
53412 
53470 
53582 
53644 
53722 
53825 
53874 
53911 
53956 
53920 
53963 
54017 
54026 
54068 
54075 
54036 
54029 
54085 
54092 
54074 
54099 
54154 
54230 
54251 
54247 
54187 
54117 
54097 
54119 
54140 
54176 
54181 
54129 
54094 
54060 
54078 
54141 
54197 
54217 
54222 
54235 
54238 
54265 
54325 
54403 
54435 
54475 
54531 
54533 
54586 
54713 
54837 
54904 
54952 
55004 
55060 
55109 
55126 
55112 
55127 
55153 
55201 
55246 
55257 
55287 
55291 
55306 
55360 
55443 
55495 
55519 
55541 
55496 
55477 
55501 
55523 
55474 
55465 
55464 
55465 
55461 
55468 
55444 
55463 
55513 
55525 
55530 
55500 
55516 
55536 
55551 
55558 
55572 
55559 
55534 
55549 
55627 
55668 
55696 
55721 
55765 
55821 
55879 
55964 
56033 
56115 
56136 
56134 
56107 
56097 
56074 
56055 
55983 
55904 
55793 
55680 
55611 
55552 
55477 
55414 
55365 
55269 
55139 
55010 
54869 
54726 
54572 
54467 
54388 
54281 
54178 
54138 
54063 
53930 
53820 
53687 
53541 
53430 
53293 
53144 
53007 
52872 
52786 
52700 
52639 
52575 
52467 
52373 
52327 
52235 
52107 
52025 
51945 
51858 
51761 
51689 
51630 
51587 
51625 
51654 
51660 
51707 
51672 
51651 
51640 
51637 
51629 
51650 
51690 
51718 
51769 
51828 
51856 
51937 
51999 
52037 
52080 
52134 
52248 
52350 
52422 
52531 
52671 
52829 
53007 
53183 
53291 
53366 
53466 
53573 
53690 
53787 
53888 
54022 
54174 
54301 
54456 
54559 
54639 
54789 
54967 
55121 
55223 
55252 
55292 
55301 
55329 
55413 
55543 
55673 
55745 
55797 
55845 
55908 
56060 
56136 
56174 
56151 
56144 
56212 
56224 
56196 
56155 
56155 
56235 
56272 
56285 
56289 
56339 
56393 
56448 
56584 
56702 
56742 
56811 
56874 
56970 
57085 
57175 
57274 
57368 
57446 
57461 
57458 
57549 
57627 
57677 
57741 
57842 
57963 
58038 
58109 
58177 
58177 
58167 
58181 
58200 
58209 
58213 
58218 
58135 
57987 
57925 
57882 
57794 
57702 
57618 
57555 
57390 
57258 
57161 
57024 
56869 
56706 
56563 
56384 
56169 
55977 
55825 
55665 
55497 
55310 
55151 
55030 
54900 
54747 
54607 
54449 
54312 
54213 
54126 
54051 
53975 
53836 
53680 
53531 
53428 
53338 
53234 
53198 
53128 
53008 
52856 
52743 
52671 
52630 
52547 
52475 
52432 
52443 
52458 
52460 
52474 
52524 
52556 
52557 
52555 
52557 
52586 
52633 
52661 
52699 
52784 
52825 
52853 
52887 
52970 
53049 
53173 
53282 
53343 
53418 
53538 
53670 
53794 
53899 
53946 
54038 
54152 
54279 
54391 
54442 
54514 
54598 
54687 
54797 
54923 
55063 
55155 
55221 
55305 
55407 
55483 
55604 
55672 
55736 
55815 
55865 
55910 
56022 
56064 
56080 
56108 
56148 
56247 
56320 
56393 
56435 
56430 
56430 
56493 
56584 
56625 
56679 
56734 
56788 
56848 
56923 
57022 
57059 
57057 
57064 
57063 
57118 
57216 
57248 
57264 
57239 
57228 
57234 
57230 
57246 
57265 
57327 
57392 
57417 
57427 
57419 
57428 
57384 
57327 
57330 
57317 
57317 
57308 
57329 
57382 
57340 
57289 
57273 
57347 
57408 
57367 
57300 
57248 
57230 
57192 
57114 
57007 
56936 
56895 
56867 
56759 
56629 
56516 
56469 
56374 
56289 
56256 
56217 
56107 
55968 
55925 
55901 
55899 
55881 
55796 
55751 
55706 
55626 
55545 
55535 
55558 
55546 
55517 
55476 
55464 
55470 
55469 
55474 
55471 
55519 
55509 
55549 
55590 
55625 
55663 
55668 
55698 
55782 
55817 
55772 
55781 
55810 
55810 
55800 
55770 
55777 
55802 
55808 
55847 
55860 
55866 
55888 
55899 
55866 
55846 
55856 
55824 
55774 
55767 
55749 
55731 
55727 
55710 
55668 
55626 
55629 
55597 
55541 
55512 
55467 
55427 
55402 
55370 
55345 
55355 
55333 
55319 
55392 
55442 
55519 
55609 
55631 
55631 
55699 
55800 
55855 
55860 
55925 
55993 
56082 
56195 
56261 
56305 
56434 
56569 
56695 
56785 
56840 
56897 
56957 
57044 
57140 
57192 
57246 
57272 
57330 
57405 
57423 
57474 
57557 
57583 
57569 
57598 
57631 
57668 
57762 
57756 
57755 
57795 
57812 
57747 
57689 
57648 
57648 
57694 
57729 
57698 
57650 
57637 
57662 
57683 
57695 
57622 
57573 
57576 
57600 
57632 
57664 
57635 
57589 
57561 
57539 
57557 
57513 
57479 
57424 
57363 
57329 
57292 
57261 
57265 
57270 
57286 
57265 
57199 
57157 
57064 
56979 
56871 
56822 
56743 
56607 
56525 
56476 
56414 
56287 
56191 
56136 
56077 
56075 
56092 
56051 
56021 
55985 
55952 
55878 
55778 
55759 
55766 
55819 
55819 
55808 
55818 
55795 
55792 
55804 
55777 
55758 
55685 
55654 
55620 
55616 
55596 
55569 
55567 
55498 
55414 
55352 
55266 
55231 
55199 
55231 
55247 
55270 
55245 
55238 
55236 
55225 
55231 
55225 
55218 
55179 
55177 
55172 
55125 
55158 
55187 
55171 
55194 
55219 
55152 
55119 
55112 
55124 
55117 
55103 
55141 
55181 
55162 
55133 
55121 
55152 
55151 
55149 
55183 
55251 
55258 
55254 
55269 
55260 
55240 
55251 
55332 
55346 
55351 
55339 
55339 
55352 
55392 
55418 
55442 
55474 
55484 
55451 
55469 
55511 
55583 
55629 
55689 
55731 
55770 
55844 
55888 
55886 
55940 
55965 
55992 
56041 
56091 
56109 
56202 
56277 
56281 
56296 
56316 
56314 
56346 
56394 
56452 
56492 
56543 
56569 
56579 
56519 
56517 
56558 
56527 
56505 
56519 
56449 
56412 
56381 
56355 
56309 
56223 
56112 
56029 
55980 
55946 
55917 
55898 
55869 
55851 
55800 
55728 
55648 
55522 
55439 
55412 
55383 
55324 
55293 
55264 
55213 
55201 
55196 
55193 
55176 
55183 
55192 
55180 
55125 
55102 
55112 
55149 
55167 
55201 
55248 
55226 
55234 
55285 
55351 
55416 
55485 
55547 
55594 
55594 
55546 
55566 
55610 
55655 
55691 
55766 
55785 
55749 
55733 
55773 
55806 
55805 
55845 
55823 
55810 
55827 
55864 
55901 
55948 
55925 
55881 
55869 
55865 
55817 
55836 
55884 
55920 
55901 
55936 
55914 
55871 
55804 
55744 
55748 
55770 
55754 
55726 
55705 
55693 
55717 
55741 
55689 
55650 
55664 
55689 
55689 
55655 
55623 
55647 
55691 
55705 
55726 
55765 
55791 
55767 
55709 
55681 
55691 
55720 
55742 
55768 
55822 
55862 
55821 
55776 
55734 
55739 
55776 
55823 
55893 
55908 
55903 
55859 
55828 
55829 
55833 
55852 
55901 
55912 
55852 
55845 
55859 
55861 
55886 
55913 
55899 
55895 
55929 
55899 
55889 
55869 
55839 
55827 
55774 
55758 
55713 
55703 
55693 
55675 
55639 
55574 
55518 
55504 
55492 
55498 
55462 
55444 
55419 
55395 
55376 
55377 
55407 
55429 
55447 
55452 
55449 
55448 
55472 
55486 
55495 
55445 
55443 
55543 
55622 
55671 
55729 
55741 
55762 
55789 
55885 
56010 
56121 
56211 
56320 
56439 
56500 
56571 
56686 
56773 
56877 
56967 
57125 
57231 
57263 
57350 
57454 
57519 
57604 
57724 
57781 
57827 
57894 
57968 
58022 
58105 
58206 
58258 
58301 
58349 
58456 
58555 
58652 
58698 
58716 
58722 
58793 
58875 
58893 
58932 
58982 
59034 
59013 
58980 
59041 
59097 
59141 
59097 
59039 
59021 
58949 
58896 
58815 
58772 
58763 
58754 
58762 
58742 
58697 
58699 
58669 
58598 
58587 
58595 
58581 
58622 
58674 
58738 
58775 
58818 
58913 
58995 
59043 
59063 
59064 
59026 
59024 
59096 
59177 
59201 
59207 
59211 
59224 
59237 
59213 
59208 
59227 
59280 
59285 
59338 
59384 
59390 
59455 
59491 
59546 
59629 
59692 
59712 
59772 
59796 
59836 
59876 
59980 
60068 
60113 
60206 
60224 
60196 
60365 
60353 
60336 
60279 
60271 
60273 
60284 
60282 
60217 
60156 
60091 
60051 
59988 
59967 
59935 
59896 
59758 
59657 
59565 
59555 
59540 
59539 
59504 
59443 
59415 
59403 
59469 
59526 
59536 
59514 
59475 
59459 
59418 
59366 
59341 
59347 
59348 
59341 
59306 
59310 
59374 
59434 
59449 
59413 
59384 
59400 
59417 
59386 
59365 
59355 
59376 
59408 
59420 
59440 
59460 
59481 
59517 
59599 
59640 
59628 
59604 
59614 
59666 
59726 
59761 
59762 
59793 
59801 
59799 
59867 
59919 
59923 
59907 
59909 
59918 
59921 
59867 
59866 
59855 
59915 
59944 
59971 
59950 
59910 
59912 
59908 
59862 
59808 
59719 
59666 
59638 
59655 
59603 
59574 
59510 
59438 
59374 
59324 
59295 
59292 
59330 
59359 
59287 
59228 
59191 
59141 
59087 
59075 
59051 
58984 
58973 
58985 
59043 
59138 
59199 
59241 
59285 
59325 
59341 
58676 
58726 
58749 
58723 
58734 
58724 
58712 
58682 
58649 
58662 
58717 
58779 
58802 
58831 
58860 
58875 
58895 
58910 
58905 
58888 
58920 
58895 
58918 
58942 
58924 
58863 
58799 
58737 
58713 
58661 
58616 
58613 
58587 
58577 
58537 
58511 
58544 
58557 
58536 
58465 
58466 
58518 
58509 
58455 
58420 
58442 
58461 
58479 
58467 
58500 
58539 
58556 
58569 
58576 
58560 
58590 
58627 
58646 
58621 
58545 
58454 
58394 
58326 
58331 
58345 
58340 
58330 
58343 
58337 
58296 
58299 
58271 
58285 
58300 
58322 
58348 
58334 
58307 
58275 
58234 
58259 
58234 
58216 
58223 
58222 
58223 
58243 
58271 
58286 
58305 
58349 
58386 
58368 
58361 
58354 
58364 
58363 
58335 
58405 
58434 
58461 
58464 
58448 
58453 
58519 
58574 
58587 
58602 
58600 
58578 
58593 
58593 
58554 
58539 
58520 
58561 
58556 
58513 
57891 
57841 
57864 
57919 
57918 
57919 
57881 
57839 
57814 
57770 
57792 
57840 
57859 
57843 
57813 
57753 
57742 
57800 
57848 
57845 
57785 
57768 
57730 
57673 
57666 
57711 
57732 
57732 
57743 
57739 
57748 
57724 
57749 
57801 
57807 
57818 
57843 
57838 
57797 
57767 
57791 
57818 
57850 
57866 
57870 
57910 
57948 
57973 
58001 
58035 
58051 
58080 
58103 
58082 
58036 
58047 
58071 
58109 
58124 
58098 
58068 
58069 
58062 
58020 
57948 
57915 
57961 
58055 
58063 
58033 
58031 
57988 
57934 
57968 
58001 
57990 
57993 
57982 
57944 
57923 
57894 
57847 
57847 
57839 
57812 
57808 
57763 
57786 
57784 
57722 
57703 
57721 
57726 
57727 
57742 
57797 
57806 
57803 
57787 
57815 
57850 
57882 
57898 
57948 
58009 
58004 
57993 
57991 
57993 
58020 
58049 
58066 
58070 
58128 
58113 
58132 
58183 
58225 
58254 
58283 
58308 
58347 
58369 
58384 
58361 
58382 
58447 
58484 
58429 
58357 
58338 
58353 
58359 
58345 
58312 
58274 
58255 
58288 
58318 
58289 
58264 
58249 
58236 
58215 
58205 
58223 
58207 
58182 
58204 
58244 
58233 
58248 
58260 
58276 
58312 
58318 
58368 
58425 
58444 
58456 
58490 
58586 
58621 
58632 
58668 
58662 
58593 
58609 
58683 
58714 
58721 
58743 
58757 
58714 
58687 
58670 
58673 
58658 
58617 
58604 
58591 
58515 
58470 
58569 
58679 
58704 
58723 
58690 
58695 
58668 
58649 
58614 
58607 
58602 
58623 
58655 
58657 
58603 
58546 
58520 
58515 
58511 
58546 
58546 
58540 
58474 
58394 
58382 
58394 
58373 
58351 
58375 
58372 
58356 
58324 
58262 
58202 
58169 
58171 
58185 
58189 
58225 
58237 
58228 
58198 
58227 
58217 
58179 
58208 
58226 
58255 
58268 
58300 
58331 
58383 
58420 
58416 
58408 
58418 
58423 
58432 
58467 
58494 
58487 
58482 
58518 
58566 
58562 
58556 
58564 
58554 
58502 
58493 
58532 
58551 
58576 
58540 
58461 
58434 
58450 
58444 
58472 
58502 
58436 
58418 
58425 
58421 
58394 
58397 
58425 
58444 
58453 
58452 
58427 
58382 
58381 
58366 
58364 
58378 
58426 
58419 
58383 
58362 
58307 
58301 
58326 
58378 
58393 
58386 
58399 
58496 
58547 
58493 
58489 
58556 
58565 
58573 
58626 
58657 
58680 
58707 
58674 
58656 
58667 
58660 
58662 
58711 
58771 
58811 
58809 
58780 
58745 
58772 
58790 
58818 
58856 
58888 
58859 
58823 
58817 
58857 
58840 
58816 
58850 
58878 
58856 
58899 
58897 
58908 
58900 
58891 
58880 
58887 
58940 
58955 
58940 
58932 
58893 
58892 
58905 
58914 
58979 
58987 
58966 
58951 
58907 
58865 
58850 
58930 
59012 
59034 
59003 
58970 
58937 
58948 
58947 
58970 
59010 
59047 
59065 
59073 
59069 
59060 
58997 
59004 
59066 
59080 
59067 
59094 
59100 
59076 
59042 
59024 
59074 
59113 
59125 
59131 
59119 
59104 
59100 
59114 
59140 
59200 
59235 
59205 
59178 
59172 
59173 
59184 
59157 
59157 
59166 
59105 
59064 
59057 
59022 
59015 
59040 
59086 
59101 
59069 
59045 
59008 
59049 
59091 
59100 
59073 
59078 
59057 
59033 
59030 
59027 
59054 
59027 
59028 
59045 
59040 
58991 
58944 
58896 
58898 
58932 
58957 
59012 
59040 
59013 
58955 
58985 
58971 
58999 
59042 
59046 
59055 
59058 
59077 
59143 
59171 
59168 
59214 
59247 
59265 
59319 
59369 
59370 
59374 
59386 
59380 
59392 
59390 
59441 
59456 
59459 
59504 
59495 
59441 
59435 
59457 
59447 
59457 
59503 
59488 
59511 
59541 
59558 
59556 
59560 
59507 
59462 
59462 
59413 
59403 
59435 
59424 
59360 
59295 
59263 
59249 
59252 
59259 
59221 
59215 
59244 
59234 
59213 
59171 
59174 
59156 
59111 
59106 
59094 
59027 
59038 
59088 
59139 
59150 
59141 
59088 
59075 
59079 
59070 
59095 
59156 
59127 
59097 
59091 
59099 
59098 
59094 
59086 
59055 
59013 
58975 
59001 
58992 
58971 
58995 
59006 
58985 
58946 
58910 
58894 
58938 
58963 
58952 
58958 
58943 
58927 
58880 
58883 
58867 
58847 
58867 
58858 
58852 
58803 
58775 
58776 
58728 
58690 
58631 
58567 
58581 
58592 
58549 
58513 
58475 
58497 
58534 
58532 
58518 
58501 
58490 
58432 
58387 
58406 
58427 
58401 
58304 
58232 
58208 
58131 
58053 
58058 
58068 
58115 
58109 
58093 
58014 
57948 
57956 
57955 
57963 
57966 
58039 
58118 
58110 
58073 
58075 
58108 
58131 
58130 
58144 
58226 
58320 
58313 
58287 
58254 
58268 
58276 
58325 
58368 
58396 
58433 
58479 
58514 
58596 
58631 
58661 
58723 
58793 
58854 
58914 
58998 
59009 
59013 
59054 
59126 
59183 
59213 
59227 
59295 
59377 
59426 
59475 
59592 
59694 
59693 
59679 
59668 
59647 
59656 
59686 
59717 
59736 
59828 
59807 
59789 
59812 
59858 
59901 
59912 
59909 
59896 
59862 
59886 
59926 
59933 
59972 
59966 
59970 
59969 
59973 
59968 
59955 
59959 
59934 
59919 
59919 
59943 
59917 
59876 
59872 
59887 
59921 
59958 
59941 
59933 
59926 
59918 
59883 
59823 
59814 
59804 
59747 
59707 
59672 
59674 
59689 
59746 
59791 
59797 
59797 
59749 
59687 
59678 
59671 
59684 
59719 
59718 
59709 
59728 
59737 
59696 
59664 
59666 
59663 
59721 
59828 
59872 
59894 
59960 
60025 
60052 
60043 
60030 
60025 
60041 
60112 
60189 
60176 
60141 
60107 
60082 
60098 
60117 
60090 
60070 
60050 
60032 
59988 
59973 
59975 
59901 
59882 
59936 
59929 
59924 
59956 
59941 
59896 
59819 
59757 
59716 
59706 
59669 
59639 
59688 
59712 
59720 
59705 
59663 
59681 
59662 
59585 
59582 
59582 
59542 
59527 
59508 
59479 
59452 
59408 
59343 
59332 
59352 
59344 
59317 
59301 
59276 
59284 
59283 
59287 
59290 
59307 
59348 
59359 
59357 
59365 
59399 
59418 
59385 
59332 
59304 
59342 
59345 
59330 
59344 
59341 
59325 
59314 
59274 
59239 
59188 
59166 
59180 
59207 
59211 
59217 
59213 
59220 
59264 
59306 
59329 
59303 
59292 
59307 
59262 
59220 
59193 
59140 
59143 
59207 
59234 
59188 
59173 
59177 
59196 
59211 
59223 
59261 
59251 
59222 
59180 
59187 
59208 
59231 
59234 
59219 
59194 
59182 
59177 
59182 
59178 
59101 
59063 
59094 
59093 
59040 
58999 
59028 
58998 
58990 
58991 
58930 
58898 
58894 
58895 
58867 
58880 
58912 
58828 
58791 
58816 
58869 
58915 
58899 
58821 
58754 
58717 
58736 
58787 
58803 
58798 
58771 
58717 
58688 
58681 
58675 
58664 
58657 
58671 
58707 
58705 
58701 
58702 
58680 
58675 
58709 
58753 
58712 
58665 
58714 
58758 
58801 
58814 
58809 
58790 
58807 
58796 
58789 
58775 
58783 
58836 
58871 
58904 
58943 
58971 
59000 
59041 
59072 
59060 
59108 
59149 
59234 
59283 
59292 
59306 
59285 
59325 
59363 
59382 
59411 
59396 
59392 
59418 
59443 
59458 
59452 
59457 
59503 
59494 
59480 
59496 
59558 
59587 
59600 
59597 
59557 
59560 
59602 
59598 
59607 
59672 
59769 
59781 
59779 
59800 
59790 
59760 
59784 
59820 
59832 
59838 
59829 
59824 
59801 
59802 
59798 
59791 
59725 
59685 
59661 
59714 
59706 
59657 
59630 
59640 
59652 
59685 
59667 
59632 
59645 
59620 
59614 
59608 
59611 
59618 
59630 
59673 
59688 
59692 
59737 
59747 
59782 
59775 
59777 
59794 
59851 
59931 
59959 
59940 
59934 
59975 
60036 
60071 
60058 
60042 
60047 
60093 
60171 
60265 
60311 
60395 
60409 
60425 
60457 
60439 
60409 
60389 
60340 
60321 
60330 
60352 
60305 
60243 
60281 
60319 
60332 
60280 
60221 
60188 
60200 
60235 
60212 
60207 
60258 
60294 
60274 
60225 
60225 
60252 
60335 
60400 
60373 
60288 
60267 
60275 
60236 
60182 
60134 
60101 
60115 
60107 
60045 
59940 
59861 
59824 
59802 
59767 
59697 
59658 
59652 
59620 
59560 
59501 
59418 
59357 
59290 
59233 
59211 
59157 
59118 
59149 
59154 
59118 
59124 
59155 
59146 
59144 
59085 
59054 
59071 
59123 
59148 
59127 
59106 
59093 
59104 
59097 
59074 
59072 
59107 
59125 
59133 
59201 
59197 
59219 
59247 
59275 
59250 
59203 
59166 
59165 
59180 
59167 
59142 
59117 
59080 
59048 
59062 
59099 
59147 
59203 
59219 
59225 
59267 
59356 
59398 
59381 
59368 
59407 
59443 
59418 
59399 
59378 
59374 
59344 
59296 
59284 
59291 
59313 
59335 
59346 
59363 
59342 
59303 
59270 
59255 
59238 
59232 
59264 
59321 
59371 
59419 
59446 
59454 
59449 
59494 
59565 
59607 
59643 
59681 
59703 
59756 
59773 
59781 
59825 
59900 
59935 
59928 
59901 
59899 
59943 
60013 
60051 
60013 
60026 
60047 
60024 
60033 
60075 
60123 
60166 
60153 
60159 
60125 
60038 
59995 
59961 
59937 
59924 
59961 
59936 
59890 
59839 
59811 
59805 
59813 
59773 
59699 
59626 
59614 
59600 
59593 
59553 
59505 
59570 
59639 
59679 
59676 
59663 
59643 
59622 
59644 
59661 
59677 
59696 
59720 
59791 
59783 
59781 
59813 
59849 
59855 
59891 
59922 
59953 
59977 
59989 
60026 
60030 
60054 
60104 
60149 
60194 
60207 
60169 
60197 
60248 
60270 
60268 
60290 
60432 
60523 
60507 
60427 
60450 
60494 
60522 
60543 
60563 
60550 
60559 
60478 
60448 
60490 
60493 
60490 
60508 
60480 
60390 
60331 
60343 
60317 
60319 
60288 
60177 
60085 
59987 
59959 
59954 
59937 
59900 
59847 
59818 
59785 
59698 
59625 
59602 
59567 
59471 
59396 
59400 
59384 
59354 
59311 
59270 
59256 
59276 
59254 
59189 
59125 
59073 
59012 
58926 
58863 
58855 
58809 
58799 
58773 
58688 
58648 
58679 
58725 
58736 
58785 
58814 
58827 
58794 
58788 
58799 
58824 
58859 
58909 
58967 
58986 
59034 
59043 
59050 
59098 
59136 
59101 
59062 
59060 
59125 
59235 
59307 
59331 
59347 
59413 
59432 
59414 
59425 
59476 
59547 
59608 
59654 
59664 
59605 
59611 
59646 
59651 
59661 
59687 
59667 
59603 
59595 
59636 
59664 
59648 
59601 
59613 
59592 
59493 
59434 
59389 
59350 
59379 
59390 
59375 
59372 
59324 
59256 
59205 
59206 
59147 
59137 
59172 
59174 
59111 
59069 
59040 
58979 
58967 
58970 
58970 
58966 
58976 
58989 
59000 
59034 
59068 
59094 
59091 
59119 
59172 
59184 
59158 
59166 
59199 
59221 
59265 
59358 
59462 
59508 
59518 
59527 
59542 
59565 
59623 
59693 
59745 
59753 
59732 
59721 
59768 
59843 
59858 
59830 
59846 
59833 
59859 
59894 
59962 
60016 
60069 
60120 
60139 
60142 
60155 
60156 
60206 
60234 
60230 
60255 
60294 
60321 
60400 
60457 
60456 
60432 
60411 
60393 
60405 
60447 
60493 
60555 
60584 
60557 
60530 
60554 
60571 
60545 
60527 
60564 
60585 
60660 
60670 
60667 
60662 
60646 
60652 
60660 
60667 
60706 
60686 
60647 
60620 
60641 
60661 
60690 
60699 
60763 
60778 
60759 
60746 
60776 
60795 
60801 
60804 
60784 
60782 
60810 
60848 
60892 
60859 
60880 
60881 
60860 
60885 
60925 
60919 
60919 
60887 
60858 
60859 
60849 
60821 
60833 
60828 
60749 
60703 
60679 
60654 
60645 
60593 
60576 
60586 
60588 
60568 
60561 
60524 
60446 
60428 
60434 
60402 
60386 
60414 
60440 
60430 
60384 
60325 
60255 
60199 
60180 
60206 
60192 
60121 
60116 
60161 
60187 
60186 
60219 
60268 
60296 
60319 
60340 
60392 
60474 
60514 
60543 
60601 
60673 
60701 
60705 
60721 
60730 
60749 
60817 
60845 
60861 
60913 
60949 
60924 
60959 
60990 
61078 
61155 
61197 
61245 
61258 
61297 
61328 
61385 
61498 
61537 
61578 
61645 
61717 
61776 
61865 
61881 
61938 
62034 
62122 
62169 
62224 
62365 
62419 
62416 
62494 
62607 
62698 
62795 
62859 
62913 
62953 
62992 
63067 
63157 
63205 
63269 
63360 
63456 
63536 
63557 
63552 
63610 
63669 
63743 
63834 
63925 
63976 
64025 
64072 
64120 
64210 
64275 
64336 
64428 
64489 
64563 
64630 
64692 
64794 
64880 
64935 
65022 
65076 
65117 
65145 
65182 
65220 
65236 
65269 
65358 
65426 
65456 
65511 
65545 
65551 
65504 
65443 
65404 
65364 
65236 
65076 
64862 
64587 
64299 
64017 
63788 
63551 
63336 
63114 
62882 
62677 
62507 
62336 
62172 
62049 
61927 
61738 
61596 
61472 
61366 
61317 
61253 
61173 
61138 
61082 
60961 
60865 
60811 
60719 
60596 
60475 
60350 
60242 
60134 
60025 
59998 
59998 
59986 
60014 
60013 
59956 
59931 
59903 
59890 
59924 
59949 
59958 
60001 
60036 
60054 
60054 
60015 
59969 
59955 
59952 
59944 
59980 
60059 
60071 
60034 
60017 
60076 
60150 
60194 
60203 
60184 
60161 
60118 
60126 
60162 
60205 
60206 
60218 
60275 
60347 
60358 
60394 
60460 
60542 
60614 
60689 
60717 
60768 
60761 
60796 
60872 
60937 
60938 
60913 
60911 
60917 
60949 
61002 
61028 
61021 
60985 
60994 
60999 
60974 
60961 
60980 
61068 
61121 
61125 
61099 
61391 
61430 
61444 
61442 
61467 
61516 
61553 
61573 
61618 
61671 
61690 
61670 
61640 
61612 
61573 
61606 
61616 
61653 
61649 
61679 
61715 
61720 
61748 
61778 
61753 
61758 
61777 
61810 
61817 
61841 
61929 
61996 
62029 
62042 
62108 
62159 
62172 
62175 
62177 
62218 
62230 
62256 
62279 
62320 
62307 
62317 
62336 
62402 
62451 
62473 
62540 
62605 
62623 
62640 
62664 
62637 
62670 
62761 
62748 
62724 
62757 
62775 
62797 
62837 
62881 
62897 
62879 
62892 
62928 
62986 
63026 
63096 
63148 
63119 
63069 
63041 
63019 
62980 
62924 
62906 
62845 
62745 
62671 
62646 
62619 
62523 
62410 
62298 
62197 
62095 
61983 
61900 
61795 
61696 
61611 
61475 
61421 
61363 
61296 
61261 
61186 
61099 
60994 
60953 
60936 
60896 
60871 
60838 
60762 
60728 
60735 
60712 
60744 
60724 
60694 
60719 
60727 
60697 
60658 
60639 
60642 
60641 
60672 
60715 
60710 
60716 
60756 
60769 
60820 
60880 
60957 
61040 
61088 
61123 
61188 
61288 
61400 
61515 
61570 
61661 
61788 
61879 
61897 
61883 
61939 
62031 
62113 
62178 
62239 
62220 
62243 
62327 
62371 
62446 
62504 
62513 
62503 
62550 
62594 
62624 
62687 
62731 
62726 
62756 
62836 
62972 
63075 
63168 
63221 
63250 
63269 
63356 
63439 
63439 
63470 
63478 
63493 
63555 
63670 
63727 
63746 
63796 
63811 
63838 
63872 
63996 
64107 
64210 
64287 
64290 
64346 
64397 
64447 
64565 
64670 
64746 
64779 
64807 
64864 
64946 
64974 
64992 
65045 
65120 
65202 
65276 
65306 
65310 
65330 
65368 
65415 
65468 
65540 
65549 
65544 
65560 
65593 
65636 
65696 
65695 
65631 
65606 
65601 
65601 
65638 
65677 
65682 
65651 
65613 
65672 
65706 
65709 
65676 
65573 
65499 
65397 
65275 
65172 
65098 
65001 
64815 
64656 
64544 
64390 
64253 
64076 
63889 
63740 
63651 
63532 
63401 
63272 
63154 
63015 
62902 
62863 
62878 
62807 
62711 
62697 
62661 
62602 
62524 
62471 
62428 
62391 
62399 
62421 
62387 
62371 
62393 
62371 
62365 
62407 
62439 
62478 
62487 
62487 
62476 
62463 
62504 
62524 
62539 
62614 
62695 
62822 
62912 
62945 
62962 
63028 
63098 
63120 
63146 
63223 
63320 
63402 
63430 
63516 
63559 
63554 
63619 
63716 
63780 
63822 
63852 
63838 
63817 
63830 
63876 
63901 
63892 
63882 
63910 
63961 
63937 
63943 
63979 
64025 
64019 
64002 
64009 
63987 
63972 
63978 
63950 
63894 
63886 
63920 
63952 
63948 
63945 
63901 
63860 
63841 
63822 
63764 
63667 
63624 
63643 
63665 
63667 
63669 
63671 
63675 
63660 
63658 
63701 
63685 
63617 
63560 
63562 
63516 
63486 
63488 
63459 
63439 
63438 
63428 
63427 
63366 
63270 
63244 
63271 
63268 
63209 
63172 
63145 
63085 
63041 
63055 
63050 
63035 
62992 
63017 
63051 
63042 
63031 
62990 
62969 
62983 
62940 
62900 
62874 
62830 
62791 
62715 
62626 
62549 
62471 
62364 
62231 
62091 
61908 
61726 
61605 
61493 
61336 
61144 
60959 
60786 
60647 
60508 
60337 
60158 
60047 
59979 
59899 
59782 
59687 
59565 
59468 
59404 
59353 
59342 
59339 
59322 
59266 
59226 
59234 
59229 
59232 
59218 
59166 
59121 
59133 
59156 
59177 
59145 
59184 
59225 
59272 
59331 
59398 
59437 
59439 
59465 
59496 
59527 
59594 
59689 
59763 
59797 
59866 
59944 
59993 
60058 
60099 
60075 
60065 
60080 
60080 
60136 
60154 
60153 
60200 
60240 
60279 
60299 
60283 
60317 
60308 
60300 
60320 
60345 
60396 
60467 
60494 
60515 
60553 
60596 
60663 
60711 
60774 
60876 
60912 
60944 
61012 
61096 
61144 
61203 
61275 
61399 
61466 
61535 
61622 
61668 
61727 
61803 
61886 
61914 
61927 
61947 
61999 
62057 
62131 
62256 
62370 
62434 
62501 
62546 
62579 
62632 
62686 
62743 
62786 
62853 
62920 
63010 
63071 
63066 
63137 
63250 
63285 
63302 
63376 
63475 
63512 
63556 
63628 
63687 
63734 
63747 
63725 
63718 
63763 
63822 
63812 
63793 
63843 
63838 
63745 
63626 
63551 
63468 
63373 
63254 
63086 
62963 
62811 
62662 
62521 
62358 
62200 
62034 
61836 
61645 
61481 
61328 
61200 
61063 
60923 
60803 
60703 
60602 
60513 
60435 
60355 
60305 
60258 
60236 
60194 
60160 
60158 
60155 
60146 
60108 
60095 
60088 
60038 
60023 
60085 
60164 
60177 
60153 
60141 
60149 
60163 
60206 
60225 
60250 
60328 
60439 
60552 
60623 
60659 
60673 
60683 
60722 
60798 
60862 
60974 
61062 
61087 
61192 
61274 
61305 
61313 
61288 
61329 
61422 
61478 
61514 
61520 
61546 
61584 
61599 
61646 
61688 
61755 
61810 
61863 
61927 
61999 
62049 
62096 
62138 
62159 
62233 
62282 
62307 
62356 
62362 
62367 
62349 
62340 
62350 
62365 
62330 
62289 
62299 
62285 
62239 
62228 
62260 
62270 
62262 
62261 
62218 
62183 
62141 
62112 
62097 
62088 
62051 
61998 
61972 
62011 
62020 
61981 
61879 
61824 
61798 
61788 
61802 
61799 
61771 
61733 
61693 
61690 
61664 
61640 
61661 
61679 
61693 
61677 
61659 
61657 
61654 
61611 
61585 
61573 
61541 
61484 
61396 
61352 
61298 
61236 
61179 
61095 
60916 
60728 
60562 
60449 
60296 
60115 
59971 
59839 
59644 
59415 
59210 
59025 
58759 
58516 
58306 
58053 
57804 
57575 
57358 
57168 
56995 
56818 
56589 
56453 
56306 
56131 
55980 
55777 
55634 
55545 
55477 
55375 
55304 
55256 
55163 
55041 
54972 
54943 
54887 
54802 
54753 
54707 
54679 
54695 
54741 
54741 
54760 
54767 
54782 
54825 
54869 
54900 
54978 
55073 
55164 
55251 
55375 
55488 
55607 
55680 
55763 
55803 
55808 
55842 
55872 
55959 
56010 
56053 
56086 
56110 
56131 
56148 
56178 
56212 
56201 
56200 
56226 
56226 
56224 
56227 
56157 
56158 
56203 
56241 
56299 
56321 
56280 
56287 
56358 
56362 
56411 
56479 
56512 
56545 
56539 
56577 
56578 
56605 
56601 
56644 
56629 
56591 
56528 
56523 
56531 
56486 
56436 
56443 
56458 
56453 
56457 
56455 
56465 
56464 
56510 
56509 
56522 
56536 
56486 
56442 
56391 
56389 
56453 
56448 
56446 
56478 
56513 
56501 
56505 
56498 
56478 
56468 
56439 
56468 
56498 
56547 
56587 
56556 
56502 
56520 
56544 
56536 
56474 
56457 
56413 
56335 
56319 
56298 
56162 
56003 
55886 
55809 
55683 
55535 
55407 
55262 
55094 
54939 
54797 
54609 
54418 
54261 
54067 
53901 
53771 
53636 
53462 
53312 
53162 
53056 
52958 
52830 
52721 
52650 
52615 
52517 
52398 
52351 
52333 
52310 
52271 
52190 
52091 
52024 
52017 
52024 
52011 
51990 
51952 
51959 
51991 
52049 
52115 
52159 
52187 
52299 
52418 
52554 
52689 
52792 
52880 
52994 
53076 
53209 
53362 
53604 
53819 
53971 
54121 
54323 
54518 
54750 
54961 
55135 
55304 
55476 
55612 
55711 
55824 
55943 
56021 
56089 
56220 
56362 
56454 
56506 
56582 
56662 
56691 
56760 
56801 
56852 
56914 
56971 
57052 
57123 
57210 
57279 
57358 
57453 
57577 
57658 
57698 
57752 
57843 
57863 
57911 
57937 
58003 
58084 
58189 
58288 
58332 
58409 
58434 
58478 
58526 
58615 
58700 
58672 
58645 
58662 
58696 
58672 
58663 
58647 
58590 
58608 
58653 
58640 
58647 
58691 
58753 
58777 
58813 
58848 
58877 
58905 
58893 
58902 
58938 
58968 
59000 
58994 
58974 
58920 
58923 
58949 
58964 
58961 
58920 
58878 
58855 
58852 
58825 
58772 
58761 
58671 
58468 
58272 
58048 
57828 
57655 
57501 
57350 
57203 
57001 
56769 
56544 
56303 
56027 
55785 
55602 
55408 
55236 
55021 
54804 
54581 
54372 
54197 
54040 
53881 
53725 
53589 
53460 
53324 
53207 
53170 
53090 
52974 
52854 
52728 
52665 
52644 
52577 
52462 
52456 
52450 
52454 
52504 
52531 
52548 
52591 
52647 
52740 
52820 
52878 
52930 
52975 
53044 
53116 
53140 
53195 
53259 
53340 
53405 
53439 
53530 
53619 
53680 
53756 
53804 
53887 
53929 
54034 
54155 
54177 
54240 
54333 
54398 
54490 
54535 
54535 
54540 
54550 
54563 
54537 
54516 
54524 
54574 
54572 
54589 
54575 
54564 
54597 
54711 
54830 
54828 
54787 
54769 
54828 
54832 
54811 
54762 
54740 
54740 
54769 
54817 
54818 
54849 
54925 
54969 
54932 
54894 
54906 
54971 
55035 
55076 
55071 
55085 
55118 
55139 
55183 
55259 
55268 
55220 
55280 
55367 
55399 
55458 
55556 
55616 
55656 
55676 
55722 
55836 
55879 
55850 
55826 
55865 
55875 
55904 
55991 
56045 
56032 
56026 
56019 
55984 
55974 
55936 
55881 
55807 
55738 
55661 
55564 
55392 
55230 
55090 
54974 
54814 
54653 
54448 
54269 
54106 
53940 
53793 
53642 
53460 
53251 
53063 
52961 
52820 
52682 
52538 
52402 
52200 
52069 
51987 
51900 
51786 
51684 
51591 
51474 
51367 
51341 
51314 
51300 
51345 
51452 
51476 
51491 
51530 
51564 
51576 
51642 
51666 
51739 
51881 
51996 
52075 
52161 
52272 
52429 
52556 
52642 
52704 
52855 
53023 
53150 
53234 
53361 
53535 
53646 
53765 
53883 
53962 
54043 
54163 
54257 
54328 
54426 
54521 
54658 
54773 
54868 
54916 
54982 
55052 
55143 
55211 
55246 
55337 
55421 
55499 
55560 
55637 
55694 
55707 
55746 
55805 
55858 
55867 
55816 
55828 
55837 
55865 
55921 
56002 
56082 
56152 
56170 
56118 
56133 
56175 
56211 
56200 
56225 
56264 
56325 
56351 
56415 
56491 
56498 
56523 
56536 
56559 
56574 
56570 
56591 
56625 
56658 
56622 
56573 
56555 
56563 
56558 
56568 
56593 
56635 
56688 
56717 
56711 
56682 
56687 
56664 
56604 
56636 
56699 
56693 
56661 
56623 
56572 
56478 
56367 
56283 
56126 
55934 
55737 
55594 
55428 
55215 
54988 
54827 
54645 
54442 
54207 
53934 
53704 
53527 
53358 
53154 
52949 
52774 
52640 
52499 
52292 
52076 
51886 
51716 
51560 
51466 
51332 
51191 
51082 
50984 
50881 
50810 
50787 
50745 
50661 
50609 
50602 
50606 
50617 
50649 
50710 
50707 
50719 
50785 
50842 
50900 
50943 
50984 
51060 
51122 
51161 
51270 
51418 
51493 
51592 
51653 
51689 
51754 
51900 
52000 
52048 
52099 
52221 
52348 
52474 
52564 
52608 
52647 
52739 
52821 
52910 
53013 
53079 
53115 
53142 
53173 
53170 
53170 
53157 
53189 
53245 
53282 
53293 
53298 
53340 
53471 
53565 
53555 
53548 
53580 
53614 
53662 
53732 
53801 
53828 
53831 
53857 
53900 
53939 
53968 
54017 
54055 
54082 
54137 
54188 
54211 
54239 
54345 
54398 
54434 
54491 
54487 
54490 
54466 
54470 
54516 
54566 
54602 
54675 
54734 
54796 
54825 
54841 
54856 
54906 
54947 
55042 
55185 
55284 
55314 
55369 
55441 
55532 
55588 
55659 
55775 
55843 
55862 
55887 
55897 
55855 
55771 
55686 
55583 
55454 
55282 
55096 
54929 
54776 
54652 
54531 
54394 
54205 
54033 
53855 
53709 
53563 
53423 
53294 
53059 
52800 
52602 
52419 
52244 
52139 
52042 
51866 
51694 
51567 
51451 
51367 
51234 
51086 
50931 
50744 
50546 
50367 
50213 
50022 
49865 
49741 
49653 
49538 
49425 
49434 
49470 
49493 
49558 
49616 
49697 
49821 
49977 
50084 
50183 
50341 
50511 
50651 
50746 
50845 
50927 
51009 
51195 
51327 
51407 
51490 
51547 
51606 
51660 
51751 
51840 
51882 
51922 
51954 
51974 
52022 
52028 
52080 
52192 
52279 
52362 
52441 
52517 
52549 
52628 
52715 
52764 
52798 
52868 
52892 
52914 
52987 
53069 
53132 
53192 
53228 
53223 
53240 
53289 
53307 
53245 
53183 
53207 
53279 
53306 
53292 
53275 
53280 
53314 
53364 
53396 
53465 
53529 
53516 
53522 
53550 
53613 
53631 
53626 
53632 
53655 
53711 
53746 
53773 
53762 
53833 
53915 
53931 
53938 
53984 
54044 
54077 
54112 
54198 
54254 
54296 
54329 
54380 
54439 
54449 
54422 
54407 
54400 
54447 
54426 
54355 
54304 
54220 
54108 
53978 
53872 
53734 
53509 
53355 
53201 
53020 
52821 
52611 
52371 
52119 
51897 
51670 
51415 
51166 
50921 
50745 
50586 
50385 
50148 
49911 
49730 
49546 
49396 
49205 
48975 
48824 
48739 
48672 
48560 
48429 
48340 
48237 
48178 
48197 
48224 
48224 
48265 
48346 
48382 
48442 
48598 
48738 
48864 
48968 
49100 
49288 
49446 
49631 
49804 
49965 
50169 
50371 
50560 
50691 
50811 
50953 
51097 
51218 
51378 
51519 
51612 
51685 
51832 
52042 
52131 
52204 
52387 
52574 
52754 
52990 
53248 
53475 
53680 
53871 
54064 
54294 
54508 
54705 
54859 
55006 
55152 
55286 
55391 
55470 
55467 
55485 
55549 
55584 
55596 
55574 
55596 
55631 
55647 
55682 
55692 
55686 
55680 
55632 
55591 
55532 
55488 
55454 
55393 
55340 
55260 
55214 
55188 
55192 
55197 
55202 
55226 
55289 
55342 
55431 
55534 
55653 
55769 
55874 
55970 
56104 
56249 
56307 
56404 
56501 
56618 
56763 
56925 
57073 
57177 
57280 
57401 
57508 
57633 
57646 
57651 
57676 
57693 
57664 
57586 
57461 
57398 
57302 
57131 
56920 
56756 
56585 
56401 
56149 
55866 
55585 
55280 
55004 
54696 
54367 
54061 
53752 
53398 
53031 
52654 
52286 
51932 
51573 
51198 
50829 
50428 
50020 
49573 
49161 
48718 
48280 
47816 
47365 
46954 
46556 
46204 
45820 
45468 
45102 
44755 
44416 
44099 
43844 
43616 
43356 
43132 
42913 
42709 
42548 
42410 
42345 
42318 
42208 
42139 
42164 
42233 
42295 
42381 
42510 
42693 
42961 
43302 
43677 
44122 
44705 
45455 
46320 
47202 
48121 
49054 
49915 
50554 
51040 
51558 
52020 
52424 
52778 
53180 
53565 
53886 
54176 
54393 
54517 
54630 
54703 
54713 
54721 
54761 
54737 
54627 
54441 
54270 
54137 
53925 
53693 
53454 
53179 
52954 
52738 
52540 
52337 
52136 
51970 
51849 
51773 
51681 
51590 
51491 
51412 
51322 
51211 
51104 
51002 
50900 
50864 
50777 
50656 
50548 
50452 
50336 
50195 
50010 
49810 
49637 
49505 
49402 
49317 
49260 
49177 
49119 
49053 
49019 
49041 
49054 
49089 
49142 
49217 
49298 
49359 
49416 
49522 
49651 
49722 
49790 
49870 
49983 
50083 
50198 
50297 
50336 
50383 
50478 
50633 
50706 
50809 
50894 
50946 
50987 
50977 
50993 
51070 
51080 
50996 
50972 
50946 
50865 
50783 
50790 
50761 
50675 
50630 
50566 
50454 
50370 
50287 
50255 
50236 
50100 
49883 
49713 
49604 
49476 
49330 
49188 
49088 
49010 
48922 
48845 
48822 
48814 
48780 
48746 
48745 
48766 
48785 
48808 
48892 
49073 
49223 
49382 
49545 
49695 
49901 
50132 
50370 
50595 
50778 
51004 
51246 
51509 
51726 
51927 
52205 
52475 
52701 
53021 
53347 
53703 
54109 
54525 
54955 
55469 
56064 
56661 
57285 
57866 
58436 
59006 
59510 
59994 
60414 
60718 
61043 
61412 
61695 
61876 
61956 
61950 
61895 
61881 
61850 
61817 
61761 
61731 
61745 
61827 
61950 
62028 
62094 
62188 
62279 
62303 
62260 
62221 
62203 
62193 
62127 
62101 
62167 
62219 
62259 
62279 
62271 
62336 
62384 
62470 
62539 
62570 
62617 
62665 
62750 
62796 
62872 
62982 
63095 
63252 
63426 
63593 
63727 
63941 
64093 
64214 
64373 
64526 
64733 
64903 
65159 
65425 
65670 
65894 
66165 
66396 
66600 
66860 
67171 
67508 
67785 
68118 
68415 
68679 
68956 
69210 
69487 
69717 
69914 
70152 
70388 
70591 
70765 
70883 
71007 
71138 
71245 
71368 
71460 
71537 
71676 
71883 
72073 
72248 
72361 
72435 
72525 
72623 
72663 
72722 
72783 
72805 
72839 
72922 
73004 
73015 
73034 
73055 
73015 
73007 
73030 
73032 
73013 
72991 
72958 
72984 
72943 
72827 
72751 
72658 
72545 
72396 
72248 
72127 
71896 
71654 
71388 
71107 
70852 
70610 
70278 
69943 
69608 
69342 
69023 
68683 
68367 
68037 
67750 
67408 
67034 
66686 
66356 
66042 
65720 
65402 
65142 
64902 
64628 
64359 
64097 
63847 
63582 
63311 
63091 
62871 
62666 
62479 
62257 
62051 
61814 
61589 
61319 
61103 
60966 
60754 
60531 
60340 
60165 
59990 
59821 
59639 
59443 
59262 
59041 
58810 
58602 
58465 
58317 
58180 
58036 
57860 
57670 
57525 
57363 
57193 
57043 
56853 
56693 
56536 
56311 
56082 
55819 
55583 
55385 
55183 
54918 
54627 
54346 
54070 
53752 
53365 
53028 
52657 
52270 
51885 
51533 
51220 
50905 
50584 
50255 
49915 
49538 
49217 
48932 
48617 
48263 
47885 
47529 
47184 
46849 
46518 
46143 
45798 
45538 
45293 
44986 
44661 
44379 
44139 
43884 
43619 
43352 
43143 
42956 
42703 
42489 
42303 
42085 
41866 
41676 
41543 
41386 
41285 
51434 
51778 
52101 
52452 
52861 
53219 
53513 
53762 
54023 
54184 
54315 
54423 
54588 
54725 
54804 
54903 
54966 
54996 
54980 
54933 
54975 
55024 
55020 
55046 
55085 
55071 
55017 
55027 
55045 
54988 
54966 
54957 
54917 
54970 
55055 
55119 
55211 
55252 
55280 
55276 
55281 
55320 
55375 
55362 
55387 
55435 
55457 
55489 
55548 
55585 
55582 
55521 
55467 
55452 
55486 
55515 
55499 
55511 
55528 
55537 
55544 
55574 
55564 
55586 
55641 
55693 
55732 
55795 
55812 
55814 
55852 
55895 
55951 
55947 
55955 
55942 
55935 
55940 
55980 
56039 
56016 
55949 
55952 
56035 
56097 
56134 
56226 
56284 
56295 
56338 
56334 
56333 
56318 
56317 
56383 
56383 
56349 
56320 
56289 
56181 
56103 
55983 
55802 
55657 
55509 
55265 
55004 
54679 
54390 
54077 
53743 
53413 
53097 
52817 
52528 
52241 
51955 
51657 
48646 
48561 
48508 
48432 
48364 
48320 
48342 
48329 
48308 
48310 
48268 
48252 
48262 
48265 
48278 
48326 
48352 
48325 
48338 
48354 
48396 
48430 
48415 
48396 
48440 
48481 
48489 
48451 
48420 
48442 
48479 
48496 
48587 
48659 
48753 
48811 
48923 
49012 
49100 
49163 
49252 
49324 
49366 
49421 
49456 
49532 
49649 
49733 
49799 
49780 
49744 
49694 
49644 
49618 
49597 
49541 
49442 
49397 
49360 
49303 
49141 
49055 
49007 
48878 
48832 
48832 
48838 
48841 
48884 
48874 
48838 
48841 
48871 
48961 
49031 
49129 
49219 
49287 
49368 
49539 
49715 
49917 
50147 
50347 
50540 
50710 
50840 
50969 
51098 
51240 
51382 
51546 
51734 
51931 
52075 
52170 
52279 
52372 
52491 
52656 
52856 
53032 
53143 
53254 
53382 
53546 
53638 
53707 
53750 
53821 
53862 
53913 
53934 
53896 
53853 
53865 
53876 
53941 
53974 
53996 
57420 
57798 
58188 
58501 
58827 
59148 
59421 
59651 
59888 
60118 
60290 
60422 
60577 
60645 
60721 
60812 
60887 
61012 
61084 
61102 
61170 
61243 
61246 
61220 
61200 
61119 
61028 
60897 
60772 
60645 
60486 
60324 
60113 
59886 
59642 
59433 
59194 
59006 
58848 
58648 
58475 
58333 
58260 
58172 
58107 
58037 
57964 
57879 
57789 
57663 
57584 
57543 
57486 
57406 
57315 
57244 
57158 
57133 
57113 
57063 
57009 
56889 
56702 
56536 
56385 
56259 
56110 
55939 
55850 
55745 
55604 
55441 
55311 
55181 
55041 
54890 
54694 
54567 
54495 
54425 
54326 
54225 
54102 
53995 
53905 
53762 
53668 
53622 
53556 
53530 
53500 
53481 
53521 
53641 
53747 
53854 
53925 
53977 
54015 
54063 
54082 
54079 
54069 
54010 
53932 
53830 
53659 
53485 
53278 
53071 
52768 
52448 
52191 
51927 
51692 
51415 
51088 
50726 
50407 
50167 
49901 
49661 
49458 
49275 
49106 
48994 
48866 
48761 
48645 
48536 
48458 
48424 
48350 
48272 
48237 
48225 
48239 
48222 
48238 
48229 
48193 
48174 
48184 
48247 
48351 
48497 
48637 
48728 
48840 
48969 
49126 
49245 
49332 
49479 
49694 
49929 
50116 
50247 
50402 
50546 
50661 
50813 
50973 
51111 
51224 
51297 
51384 
51458 
51563 
51649 
51694 
51715 
51724 
51770 
51774 
51716 
51705 
51718 
51722 
51785 
51807 
51781 
51760 
51754 
51789 
51753 
51783 
51819 
51815 
51802 
51824 
51822 
51828 
51910 
52018 
52010 
51981 
51957 
51919 
51884 
51855 
51833 
51865 
51903 
51887 
51863 
51892 
51948 
51979 
51996 
52047 
52075 
52144 
52201 
52211 
52249 
52288 
52348 
52403 
52522 
52597 
52649 
52756 
52845 
52928 
52960 
53038 
53149 
53248 
53363 
53487 
53543 
53595 
53680 
53739 
53790 
53846 
53944 
54046 
54133 
54154 
54173 
54225 
54282 
54301 
54303 
54369 
54406 
54389 
54370 
54345 
54312 
54256 
54186 
54096 
54026 
53917 
53755 
53562 
53352 
53082 
52801 
52555 
52300 
52079 
51815 
51554 
51328 
51111 
50840 
50486 
50201 
49985 
49809 
49620 
49422 
49272 
49123 
48969 
48767 
48560 
48377 
48156 
48013 
47884 
47753 
47646 
47578 
47454 
47315 
47213 
47123 
47042 
46988 
46954 
46929 
46875 
46833 
46833 
46764 
46743 
46744 
46760 
46793 
46893 
46955 
46976 
47067 
47216 
47352 
47441 
47473 
47548 
47584 
47692 
47817 
47842 
47915 
48000 
48012 
48007 
47946 
47906 
47933 
47936 
47904 
47891 
47883 
47865 
47824 
47811 
47805 
47779 
47751 
47699 
47617 
47527 
47493 
47424 
47363 
47287 
47274 
47275 
47284 
47335 
47286 
47194 
47144 
47144 
47133 
47116 
47092 
47078 
47045 
47088 
47109 
47100 
47124 
47141 
47137 
47126 
47145 
47159 
47150 
47214 
47308 
47389 
47418 
47408 
47407 
47451 
47512 
47590 
47679 
47760 
47777 
47836 
47928 
48101 
48177 
48211 
48280 
48389 
48446 
48527 
48652 
48715 
48748 
48788 
48824 
48836 
48908 
48978 
49037 
49074 
49104 
49150 
49157 
49126 
49089 
48985 
48902 
48822 
48696 
48522 
48362 
48232 
48046 
47850 
47647 
47383 
47152 
46955 
46708 
46425 
46151 
45961 
45745 
45521 
45309 
45100 
44934 
44769 
44624 
44490 
44304 
44164 
44088 
43961 
43846 
43763 
43682 
43552 
43488 
43468 
43386 
43334 
43324 
43309 
43356 
43395 
43430 
43494 
43509 
43529 
43626 
43755 
43851 
43944 
44078 
44224 
44334 
44428 
44555 
44688 
44874 
44982 
45072 
45234 
45378 
45524 
45680 
45807 
45898 
46039 
46193 
46325 
46467 
46558 
46667 
46839 
46958 
47099 
47209 
47294 
47429 
47574 
47673 
47749 
47838 
47978 
48048 
48091 
48139 
48206 
48284 
48316 
48402 
48511 
48538 
48555 
48608 
48658 
48770 
48922 
48988 
49056 
49106 
49144 
49239 
49365 
49411 
49442 
49488 
49500 
49533 
49587 
49647 
49690 
49724 
49802 
49878 
49977 
50076 
50109 
50154 
50252 
50324 
50371 
50504 
50647 
50768 
50844 
50896 
50955 
51010 
51074 
51176 
51284 
51363 
51441 
51487 
51611 
51689 
51756 
51864 
51932 
51989 
52059 
52069 
52077 
52091 
52026 
51988 
52003 
51987 
51912 
51819 
51691 
51572 
51416 
51168 
50950 
50716 
50397 
50063 
49764 
49484 
49228 
48956 
48706 
48447 
48203 
47939 
47698 
47468 
47258 
47068 
46857 
46666 
46526 
46424 
46302 
46147 
46022 
45891 
45739 
45625 
45544 
45487 
45466 
45407 
45290 
45239 
45217 
45155 
45142 
45141 
45069 
45012 
45003 
45076 
45159 
45235 
45315 
45393 
45506 
45671 
45889 
46111 
46325 
46474 
46601 
46718 
46888 
47088 
47219 
47308 
47411 
47546 
47718 
47907 
48020 
48103 
48237 
48325 
48416 
48591 
48708 
48780 
48846 
48963 
49081 
49183 
49282 
49310 
49321 
49319 
49383 
49516 
49624 
49693 
49771 
49821 
49875 
49946 
50089 
50160 
50168 
50272 
50361 
50394 
50464 
50536 
50585 
50589 
50525 
50574 
50625 
50626 
50664 
50748 
50841 
50886 
50926 
50983 
51070 
51118 
51146 
51174 
51266 
51366 
51437 
51479 
51564 
51592 
51597 
51657 
51725 
51797 
51836 
51920 
52035 
52097 
52104 
52154 
52192 
52226 
52301 
52394 
52468 
52558 
52657 
52654 
52625 
52643 
52680 
52730 
52756 
52767 
52824 
52858 
52931 
52995 
52990 
52963 
52871 
52800 
52638 
52398 
52210 
52004 
51718 
51449 
51162 
50897 
50620 
50274 
49914 
49585 
49306 
48990 
48673 
48411 
48087 
47787 
47489 
47233 
46986 
46788 
46614 
46445 
46262 
46053 
45870 
45678 
45519 
45432 
45366 
45288 
45190 
45092 
45015 
45003 
44946 
44898 
44865 
44863 
44869 
44883 
44963 
45038 
45077 
45102 
45169 
45283 
45377 
45507 
45681 
45792 
45902 
45979 
46145 
46341 
46524 
46690 
46778 
46916 
47054 
47174 
47357 
47482 
47635 
47809 
47936 
48096 
48256 
48393 
48544 
48677 
48804 
48891 
48974 
49120 
49277 
49391 
49481 
49568 
49653 
49696 
49745 
49820 
49856 
49913 
49971 
50061 
50153 
50173 
50247 
50385 
50517 
50603 
50696 
50747 
50884 
51035 
51153 
51233 
51366 
51500 
51615 
51719 
51821 
51962 
52088 
52161 
52289 
52413 
52483 
52555 
52674 
52716 
52726 
52712 
52736 
52830 
52890 
52950 
53005 
52993 
53030 
53050 
53096 
53157 
53220 
53312 
53376 
53454 
53531 
53582 
53621 
53701 
53777 
53807 
53854 
53943 
54001 
54073 
54113 
54087 
54114 
54168 
54213 
54268 
54288 
54290 
54272 
54208 
54141 
54074 
54020 
53898 
53730 
53529 
53348 
53191 
52985 
52707 
52453 
52212 
51934 
51670 
51397 
51061 
50730 
50420 
50136 
49842 
49502 
49207 
48973 
48725 
48495 
48237 
47976 
47717 
47502 
47322 
47097 
46865 
46668 
46521 
46365 
46207 
46090 
45950 
45837 
45782 
45736 
45725 
45741 
45733 
45707 
45677 
45763 
45850 
45900 
45994 
46075 
46075 
46136 
46184 
46296 
46400 
46511 
46667 
46805 
46896 
47025 
47145 
47227 
47360 
47562 
47710 
47842 
48009 
48121 
48256 
48397 
48442 
48513 
48624 
48757 
48887 
49010 
49132 
49229 
49313 
49419 
49563 
49637 
49712 
49773 
49821 
49962 
