34140 
34147 
34179 
34212 
34214 
34165 
34239 
34321 
34306 
34258 
34309 
34329 
34418 
34407 
34391 
34415 
34445 
34380 
34403 
34382 
34327 
34252 
34202 
34152 
34166 
34125 
34060 
34048 
34043 
34002 
33936 
33895 
33882 
33965 
33942 
33902 
33898 
33935 
33872 
33867 
33907 
33941 
33903 
33915 
33920 
33926 
33928 
33870 
33906 
33950 
33906 
33868 
33892 
33949 
33917 
33879 
33866 
33891 
33898 
33892 
33892 
33907 
33982 
33885 
33858 
33897 
33930 
33898 
33887 
33909 
33951 
33905 
33881 
33895 
33945 
33933 
33872 
33862 
33900 
33914 
33879 
33886 
33900 
33887 
33871 
33882 
33900 
33932 
33912 
33895 
33884 
33911 
33949 
33954 
33956 
34011 
33995 
33944 
33984 
34004 
33999 
33997 
33979 
34018 
33989 
33956 
33961 
33910 
33922 
33892 
33885 
33886 
33891 
33847 
33844 
33856 
33890 
33876 
33860 
33865 
33911 
33833 
33815 
33787 
33780 
33819 
33833 
33893 
34074 
34260 
34475 
34588 
34634 
34723 
34578 
34283 
33918 
33681 
33637 
33707 
33811 
33873 
33892 
33864 
33872 
33910 
33898 
33847 
33840 
33876 
33903 
33898 
33889 
33924 
33964 
33931 
33958 
33998 
33985 
33948 
33979 
33970 
33981 
33964 
33995 
33994 
33987 
34000 
33978 
34044 
34094 
34080 
34071 
34087 
34112 
34119 
34112 
34111 
34135 
34209 
34223 
34230 
34234 
34272 
34235 
34305 
34351 
34352 
34287 
34317 
34374 
34347 
34372 
34367 
34354 
34327 
34275 
34163 
34163 
34189 
34107 
34072 
34035 
33998 
33980 
33930 
33902 
33916 
33937 
33934 
33903 
33877 
33906 
33864 
33851 
33868 
33909 
33867 
33850 
33886 
33865 
33887 
33824 
33860 
33866 
33858 
33833 
33895 
33845 
33865 
33896 
33881 
33879 
33909 
33859 
33853 
33863 
33895 
33861 
33822 
33884 
33902 
33850 
33838 
33844 
33903 
33872 
33861 
33870 
33870 
33891 
33915 
33881 
33839 
33896 
33865 
33866 
33882 
33897 
33892 
33904 
33859 
33849 
33820 
33821 
33861 
33937 
33935 
33843 
33853 
33912 
33917 
33882 
33876 
33857 
33866 
33812 
33874 
33926 
33940 
33929 
33908 
33921 
33927 
33944 
34014 
33978 
33991 
33958 
33968 
34016 
33994 
33985 
33904 
33900 
33951 
33920 
33829 
33844 
33896 
33874 
33835 
33860 
33869 
33884 
33860 
33863 
33865 
33891 
33853 
33819 
33803 
33788 
33836 
33930 
34107 
34292 
34453 
34606 
34660 
34676 
34633 
34329 
33929 
33695 
33624 
33653 
33716 
33819 
33863 
33886 
33873 
33909 
33956 
33911 
33883 
33935 
33967 
33920 
33939 
33961 
33950 
33984 
33901 
33909 
33982 
34006 
33964 
33914 
33981 
34063 
34038 
34015 
34013 
34030 
33994 
34009 
34085 
34127 
34110 
34112 
34117 
34179 
34147 
34163 
34153 
34216 
34259 
34226 
34222 
34273 
34314 
34348 
34334 
34368 
34438 
34431 
34424 
34443 
34441 
34387 
34379 
34402 
34366 
34346 
34234 
34229 
34239 
34148 
34082 
34043 
34042 
34041 
34019 
33992 
33953 
34047 
34010 
33985 
33929 
33919 
33901 
33878 
33943 
33998 
33951 
33907 
33972 
33951 
33894 
33911 
33935 
34004 
33986 
33924 
33978 
33987 
33912 
33919 
33953 
33938 
33978 
33944 
33904 
33923 
33984 
33941 
33955 
33960 
33962 
33946 
33912 
33942 
33969 
33912 
33910 
33986 
34036 
33973 
33947 
33954 
33928 
33931 
33943 
33947 
33990 
33993 
33911 
33906 
33938 
33960 
33944 
33949 
33979 
34019 
33926 
33944 
34067 
34078 
33991 
33963 
34008 
34077 
34109 
34071 
34047 
34070 
34055 
33986 
33997 
34021 
34018 
33936 
33903 
33969 
33960 
33922 
33910 
33907 
33966 
33937 
33928 
33944 
33960 
33927 
33878 
33899 
33905 
33902 
33917 
34020 
34189 
34378 
34553 
34710 
34748 
34666 
34526 
34238 
33831 
33705 
33705 
33741 
33784 
33916 
33948 
33926 
33907 
33956 
34021 
33943 
33930 
34003 
34056 
33994 
33982 
33996 
34033 
34036 
34013 
34027 
34097 
34032 
34052 
34111 
34095 
34054 
34053 
34089 
34126 
34097 
34100 
34145 
34183 
34163 
34118 
34162 
34172 
34179 
34199 
34248 
34258 
34316 
34291 
34330 
34395 
34403 
34355 
34428 
34462 
34421 
34439 
34474 
34506 
34561 
34511 
34438 
34456 
34463 
34414 
34297 
34239 
34233 
34215 
34118 
34076 
34107 
34113 
34060 
34039 
34002 
34043 
33989 
33996 
34003 
33992 
33969 
33950 
33963 
34007 
33954 
33932 
33989 
33999 
33966 
33980 
33971 
33962 
33967 
33986 
33995 
33952 
33947 
33916 
33938 
34011 
34016 
33948 
33985 
33978 
33975 
33942 
33953 
33947 
33980 
33977 
33941 
33945 
34018 
33973 
33960 
33968 
33988 
34040 
33968 
33969 
33993 
33988 
33971 
34007 
33975 
33975 
33955 
33955 
33971 
34002 
33995 
34002 
34015 
34031 
34022 
33997 
34031 
34067 
34091 
34062 
34064 
34099 
34097 
34061 
34057 
34082 
34086 
34044 
34045 
34030 
33993 
33996 
33945 
33935 
33964 
33947 
33958 
33969 
33971 
33927 
33915 
33933 
33951 
33960 
33925 
33923 
33913 
33943 
34004 
34140 
34310 
34487 
34645 
34783 
34747 
34694 
34415 
34040 
33806 
33758 
33822 
33882 
33919 
33950 
33987 
34062 
34012 
34001 
34009 
33978 
33974 
34013 
34043 
33993 
34048 
34081 
34090 
34048 
34058 
34105 
34133 
34087 
34038 
34027 
34135 
34134 
34096 
34118 
34150 
34198 
34140 
34147 
34198 
34179 
34174 
34161 
34184 
34252 
34249 
34278 
34324 
34338 
34346 
34343 
34348 
34429 
34513 
34445 
34437 
34473 
34504 
34500 
34484 
34538 
34499 
34437 
34397 
34424 
34412 
34281 
34313 
34294 
34238 
34165 
34094 
34091 
34067 
34101 
34100 
34084 
34073 
34026 
34005 
34065 
34094 
34042 
34003 
34014 
34035 
34005 
33997 
34019 
34040 
34009 
33998 
33981 
33995 
34066 
34051 
33983 
33967 
34044 
34035 
34058 
34037 
34059 
34038 
34001 
34031 
34097 
34062 
34015 
34033 
34027 
33998 
34002 
34001 
34032 
34044 
34012 
34004 
34018 
34076 
34009 
34006 
34049 
34015 
34043 
34059 
34059 
34057 
34022 
34017 
34058 
34107 
34046 
33976 
34011 
34032 
34066 
34039 
34023 
34060 
34128 
34094 
34075 
34102 
34090 
34062 
34102 
34145 
34156 
34159 
34117 
34101 
34149 
34121 
34065 
34060 
34105 
34048 
33946 
33971 
34043 
34054 
33953 
33938 
33973 
33981 
33964 
33988 
34038 
34001 
33944 
33924 
33985 
34139 
34306 
34471 
34659 
34856 
34861 
34735 
34645 
34311 
33949 
33776 
33834 
33874 
33941 
33934 
33959 
34008 
34085 
34054 
33971 
34021 
34070 
34038 
34034 
34058 
34099 
34061 
34095 
34107 
34125 
34133 
34047 
34087 
34144 
34126 
34108 
34148 
34153 
34172 
34167 
34150 
34200 
34207 
34224 
34212 
34251 
34264 
34273 
34274 
34315 
34321 
34324 
34311 
34341 
34383 
34433 
34446 
34462 
34470 
34462 
34529 
34557 
34524 
34574 
34572 
34532 
34535 
34584 
34485 
34434 
34381 
34385 
34309 
34247 
34258 
34298 
34185 
34109 
34097 
34108 
34127 
34097 
34101 
34136 
34084 
34006 
34014 
34058 
34086 
34042 
34053 
34082 
34059 
34056 
34064 
34096 
34098 
34061 
33972 
34016 
34097 
34069 
34033 
34042 
34065 
34053 
34016 
34069 
34072 
34067 
34004 
34050 
34110 
34102 
34036 
33985 
34052 
34110 
34016 
33992 
34008 
34064 
34056 
34011 
34067 
34092 
34045 
33976 
34044 
34094 
34052 
34035 
34029 
34032 
34022 
34004 
34054 
34124 
34136 
34072 
34022 
34078 
34160 
34127 
34136 
34127 
34133 
34155 
34133 
34140 
34179 
34130 
34099 
34127 
34125 
34078 
34031 
34000 
34006 
34104 
34012 
33984 
33992 
34030 
34015 
33983 
34006 
34050 
34011 
33970 
33968 
33967 
34011 
34125 
34353 
34527 
34693 
34805 
34799 
34774 
34596 
34208 
33910 
33826 
33806 
33814 
33891 
34000 
34003 
33990 
34050 
34072 
34064 
34006 
34041 
34107 
34102 
34055 
34088 
34145 
34117 
34062 
34079 
34093 
34143 
34133 
34110 
34145 
34149 
34161 
34146 
34150 
34180 
34202 
34148 
34209 
34233 
34254 
34226 
34220 
34251 
34287 
34243 
34293 
34346 
34392 
34411 
34386 
34390 
34416 
34480 
34494 
34476 
34543 
34548 
34521 
34506 
34519 
34547 
34501 
34484 
34465 
34460 
34381 
34369 
34317 
34263 
34206 
34171 
34163 
34154 
34132 
34069 
34037 
34060 
34084 
34050 
34042 
34056 
34048 
33966 
34024 
34029 
34042 
34022 
34034 
34067 
34049 
34045 
34002 
34005 
34051 
33999 
33984 
33996 
34070 
34038 
33988 
33974 
33995 
34052 
34007 
34016 
34057 
34047 
34008 
34012 
34010 
34050 
34030 
34030 
34006 
34010 
34067 
34076 
34049 
34036 
34039 
34013 
34032 
34061 
34107 
34086 
34084 
34107 
34090 
34052 
34067 
34107 
34136 
34080 
34106 
34104 
34151 
34165 
34077 
34080 
34090 
34070 
34037 
33995 
34025 
34014 
33967 
33972 
33975 
33989 
34008 
34022 
33995 
33994 
33982 
33953 
33899 
33922 
33956 
34100 
34367 
34580 
34695 
34792 
34757 
34717 
34510 
34149 
33869 
33779 
33833 
33865 
33894 
33978 
34052 
33976 
33973 
34039 
34031 
33979 
34002 
34064 
34072 
33973 
34002 
34095 
34111 
34075 
34058 
34083 
34111 
34083 
34094 
34105 
34099 
34130 
34128 
34112 
34172 
34175 
34143 
34162 
34201 
34218 
34247 
34236 
34214 
34258 
34273 
34258 
34252 
34333 
34361 
34358 
34371 
34422 
34413 
34428 
34437 
34487 
34488 
34476 
34500 
34533 
34515 
34468 
34431 
34404 
34394 
34386 
34305 
34252 
34248 
34163 
34148 
34123 
34104 
34063 
34022 
34072 
34097 
34070 
34002 
33985 
34045 
34072 
34030 
34020 
34040 
34043 
34049 
34058 
34012 
34017 
34001 
34023 
34081 
34075 
34026 
33986 
33990 
34044 
34037 
34006 
34017 
34022 
34035 
34011 
34013 
34053 
34038 
34008 
34014 
34031 
34072 
34043 
34044 
34067 
34078 
34038 
34018 
34047 
34046 
34034 
34006 
34040 
34082 
34072 
34058 
34018 
34046 
34101 
34107 
34116 
34122 
34153 
34134 
34120 
34157 
34180 
34125 
34131 
34155 
34153 
34100 
34131 
34062 
34067 
34048 
33988 
34023 
34063 
33999 
34004 
34053 
34043 
34050 
34031 
34015 
33988 
33990 
33963 
33999 
34111 
34257 
34424 
34582 
34774 
34871 
34815 
34717 
34464 
34095 
33809 
33789 
33942 
34003 
34018 
34051 
34075 
34080 
34072 
34076 
34109 
34141 
34117 
34096 
34101 
34133 
34157 
34123 
34115 
34144 
34182 
34156 
34090 
34161 
34208 
34164 
34187 
34188 
34241 
34253 
34195 
34231 
34276 
34265 
34223 
34262 
34318 
34352 
34360 
34380 
34367 
34379 
34377 
34359 
34396 
34430 
34470 
34475 
34523 
34596 
34582 
34542 
34582 
34650 
34581 
34547 
34586 
34578 
34539 
34482 
34448 
34437 
34424 
34305 
34254 
34230 
34218 
34189 
34170 
34198 
34207 
34156 
34108 
34115 
34181 
34158 
34130 
34135 
34130 
34121 
34090 
34149 
34157 
34145 
34139 
34142 
34115 
34111 
34077 
34116 
34146 
34161 
34149 
34113 
34122 
34108 
34107 
34160 
34167 
34181 
34179 
34092 
34106 
34161 
34169 
34112 
34080 
34122 
34161 
34118 
34097 
34178 
34185 
34137 
34153 
34175 
34174 
34137 
34109 
34144 
34191 
34183 
34149 
34170 
34190 
34159 
34175 
34190 
34261 
34246 
34226 
34252 
34238 
34257 
34232 
34224 
34281 
34286 
34220 
34191 
34200 
34226 
34173 
34151 
34167 
34192 
34168 
34142 
34148 
34156 
34143 
34101 
34119 
34186 
34169 
34115 
34106 
34103 
34153 
34230 
34408 
34614 
34747 
34851 
34964 
34978 
34873 
34459 
34067 
33947 
33959 
33968 
34065 
34148 
34231 
34193 
34157 
34145 
34143 
34193 
34190 
34202 
34196 
34201 
34203 
34258 
34256 
34291 
34270 
34212 
34237 
34335 
34316 
34272 
34258 
34293 
34335 
34315 
34293 
34289 
34301 
34343 
34356 
34401 
34433 
34403 
34378 
34410 
34479 
34469 
34472 
34534 
34568 
34516 
34504 
34592 
34661 
34686 
34639 
34657 
34703 
34720 
34700 
34705 
34702 
34652 
34614 
34634 
34626 
34557 
34492 
34492 
34470 
34403 
34342 
34352 
34342 
34320 
34291 
34249 
34236 
34260 
34248 
34278 
34231 
34257 
34284 
34238 
34234 
34235 
34263 
34222 
34217 
34218 
34273 
34218 
34194 
34182 
34248 
34238 
34231 
34267 
34269 
34237 
34218 
34221 
34273 
34261 
34226 
34218 
34239 
34190 
34182 
34252 
34265 
34293 
34224 
34234 
34252 
34210 
34205 
34266 
34293 
34283 
34217 
34190 
34219 
34225 
34208 
34220 
34255 
34285 
34302 
34296 
34254 
34292 
34296 
34321 
34317 
34347 
34384 
34310 
34322 
34327 
34345 
34337 
34315 
34342 
34371 
34344 
34313 
34290 
34239 
34213 
34225 
34259 
34304 
34239 
34217 
34238 
34252 
34249 
34213 
34229 
34218 
34182 
34132 
34154 
34384 
34632 
34794 
34928 
35002 
35058 
34979 
34745 
34375 
34083 
33962 
33992 
34081 
34146 
34160 
34229 
34226 
34294 
34311 
34290 
34278 
34300 
34299 
34251 
34266 
34316 
34329 
34362 
34306 
34287 
34303 
34271 
34321 
34366 
34325 
34355 
34416 
34403 
34395 
34409 
34387 
34386 
34436 
34421 
34444 
34467 
34493 
34508 
34481 
34517 
34518 
34591 
34565 
34581 
34642 
34675 
34649 
34662 
34665 
34738 
34732 
34727 
34765 
34765 
34749 
34692 
34690 
34719 
34687 
34628 
34579 
34572 
34509 
34497 
34496 
34451 
34418 
34336 
34321 
34316 
34313 
34270 
34244 
34249 
34305 
34329 
34276 
34261 
34298 
34309 
34246 
34268 
34299 
34268 
34235 
34244 
34291 
34281 
34260 
34227 
34257 
34278 
34260 
34241 
34251 
34269 
34309 
34256 
34268 
34272 
34260 
34247 
34262 
34326 
34277 
34290 
34284 
34257 
34330 
34294 
34262 
34266 
34305 
34285 
34238 
34234 
34262 
34263 
34260 
34310 
34356 
34302 
34257 
34274 
34326 
34330 
34341 
34346 
34426 
34446 
34314 
34303 
34399 
34424 
34347 
34345 
34328 
34349 
34293 
34292 
34271 
34289 
34244 
34283 
34281 
34277 
34221 
34247 
34305 
34292 
34248 
34191 
34197 
34232 
34245 
34182 
34288 
34442 
34661 
34774 
34925 
35045 
35113 
34997 
34675 
34283 
34100 
34017 
34031 
34157 
34275 
34264 
34272 
34260 
34286 
34276 
34245 
34266 
34335 
34328 
34278 
34298 
34328 
34369 
34331 
34314 
34308 
34337 
34377 
34414 
34401 
34400 
34352 
34363 
34457 
34484 
34411 
34344 
34417 
34473 
34467 
34500 
34479 
34492 
34515 
34496 
34507 
34605 
34639 
34579 
34567 
34615 
34685 
34683 
34732 
34776 
34757 
34744 
34727 
34750 
34778 
34756 
34728 
34732 
34655 
34649 
34655 
34579 
34517 
34528 
34464 
34443 
34446 
34420 
34350 
34329 
34336 
34377 
34286 
34267 
34317 
34337 
34292 
34256 
34269 
34310 
34284 
34238 
34267 
34298 
34286 
34239 
34241 
34279 
34323 
34304 
34286 
34343 
34332 
34282 
34279 
34282 
34290 
34280 
34277 
34281 
34288 
34285 
34270 
34310 
34315 
34283 
34225 
34271 
34302 
34253 
34237 
34288 
34309 
34320 
34253 
34281 
34268 
34328 
34268 
34240 
34245 
34311 
34300 
34257 
34279 
34333 
34338 
34315 
34287 
34325 
34352 
34284 
34319 
34390 
34427 
34374 
34325 
34345 
34360 
34382 
34379 
34374 
34325 
34274 
34260 
34290 
34325 
34267 
34264 
34291 
34287 
34242 
34199 
34248 
34332 
34305 
34219 
34226 
34199 
34180 
34180 
34300 
34485 
34735 
34862 
34979 
35056 
35065 
34928 
34602 
34239 
33992 
34009 
34089 
34153 
34254 
34265 
34259 
34255 
34327 
34345 
34320 
34296 
34281 
34315 
34322 
34309 
34334 
34353 
34309 
34372 
34367 
34359 
34327 
34325 
34365 
34393 
34418 
34427 
34376 
34411 
34399 
34399 
34454 
34477 
34442 
34389 
34445 
34510 
34547 
34567 
34549 
34594 
34611 
34555 
34565 
34629 
34656 
34641 
34682 
34734 
34764 
34746 
34719 
34746 
34748 
34809 
34744 
34699 
34671 
34594 
34602 
34617 
34596 
34564 
34505 
34446 
34361 
34419 
34376 
34295 
34301 
34306 
34304 
34303 
34282 
34260 
34247 
34265 
34303 
34324 
34303 
34246 
34255 
34298 
34272 
34302 
34340 
34344 
34308 
34232 
34242 
34292 
34312 
34260 
34254 
34262 
34296 
34278 
34251 
34234 
34295 
34242 
34236 
34262 
34270 
34249 
34237 
34289 
34349 
34357 
34303 
34238 
34287 
34277 
34217 
34217 
34272 
34298 
34292 
34285 
34280 
34324 
34268 
34236 
34242 
34245 
34217 
34251 
34286 
34296 
34304 
34331 
34291 
34275 
34272 
34252 
34284 
34322 
34345 
34304 
34330 
34336 
34319 
34319 
34296 
34338 
34424 
34413 
34300 
34339 
34382 
34361 
34326 
34331 
34375 
34373 
34255 
34257 
34266 
34285 
34253 
34196 
34191 
34232 
34249 
34272 
34246 
34252 
34250 
34228 
34215 
34233 
34256 
34275 
34394 
34575 
34838 
34971 
35033 
35047 
34994 
34735 
34348 
34087 
34070 
34058 
34091 
34186 
34272 
34242 
34275 
34326 
34357 
34334 
34309 
34298 
34321 
34309 
34268 
34279 
34331 
34327 
34317 
34349 
34366 
34356 
34373 
34393 
34378 
34396 
34315 
34348 
34469 
34518 
34442 
34403 
34445 
34483 
34431 
34432 
34478 
34507 
34511 
34554 
34552 
34547 
34597 
34607 
34601 
34621 
34643 
34637 
34697 
34771 
34764 
34748 
34772 
34740 
34750 
34712 
34731 
34733 
34715 
34643 
34597 
34577 
34566 
34489 
34424 
34420 
34468 
34394 
34306 
34286 
34330 
34363 
34329 
34273 
34284 
34313 
34292 
34277 
34277 
34306 
34272 
34260 
34324 
34318 
34242 
34228 
34262 
34310 
34304 
34278 
34261 
34253 
34266 
34269 
34296 
34307 
34297 
34245 
34235 
34266 
34307 
34272 
34246 
34247 
34298 
34298 
34278 
34240 
34284 
34278 
34248 
34246 
34271 
34254 
34263 
34271 
34335 
34293 
34203 
34205 
34259 
34291 
34272 
34281 
34293 
34243 
34213 
34260 
34343 
34275 
34229 
34206 
34256 
34295 
34292 
34296 
34290 
34356 
34355 
34275 
34342 
34391 
34321 
34299 
34377 
34414 
34431 
34402 
34337 
34332 
34350 
34315 
34301 
34262 
34293 
34246 
34197 
34212 
34338 
34240 
34196 
34271 
34275 
34245 
34225 
34194 
34193 
34196 
34159 
34209 
34345 
34502 
34643 
34869 
35062 
35088 
34936 
34822 
34570 
34221 
33988 
33953 
34040 
34077 
34170 
34208 
34272 
34303 
34287 
34292 
34226 
34246 
34283 
34216 
34211 
34295 
34319 
34267 
34259 
34252 
34318 
34308 
34323 
34358 
34375 
34362 
34324 
34357 
34391 
34375 
34335 
34372 
34416 
34390 
34389 
34412 
34453 
34476 
34455 
34446 
34459 
34536 
34532 
34557 
34572 
34630 
34576 
34561 
34607 
34655 
34702 
34700 
34687 
34714 
34726 
34759 
34749 
34696 
34679 
34613 
34574 
34586 
34564 
34439 
34383 
34378 
34361 
34330 
34279 
34239 
34252 
34284 
34257 
34233 
34237 
34244 
34246 
34231 
34235 
34251 
34221 
34213 
34278 
34235 
34237 
34180 
34188 
34194 
34214 
34185 
34185 
34222 
34201 
34193 
34236 
34257 
34217 
34156 
34194 
34257 
34242 
34208 
34225 
34259 
34243 
34205 
34208 
34227 
34239 
34187 
34152 
34225 
34298 
34247 
34191 
34238 
34279 
34196 
34172 
34187 
34246 
34231 
34175 
34210 
34252 
34204 
34149 
34182 
34251 
34209 
34178 
34227 
34234 
34203 
34172 
34191 
34269 
34309 
34314 
34244 
34242 
34279 
34303 
34277 
34320 
34287 
34276 
34305 
34329 
34351 
34343 
34268 
34291 
34311 
34295 
34248 
34197 
34223 
34256 
34222 
34229 
34231 
34227 
34177 
34156 
34189 
34219 
34214 
34187 
34168 
34183 
34130 
34074 
34113 
34331 
34523 
34666 
34820 
34939 
34975 
34883 
34778 
34504 
34117 
33888 
33906 
33980 
34142 
34229 
34238 
34221 
34240 
34222 
34184 
34191 
34243 
34250 
34206 
34195 
34210 
34237 
34250 
34280 
34368 
34302 
34260 
34265 
34288 
34301 
34262 
34303 
34328 
34371 
34310 
34330 
34340 
34351 
34352 
34379 
34367 
34406 
34437 
34470 
34500 
34490 
34488 
34468 
34490 
34559 
34571 
34536 
34566 
34655 
34697 
34644 
34670 
34700 
34721 
34697 
34652 
34674 
34686 
34626 
34589 
34590 
34573 
34447 
34397 
34406 
34384 
34376 
34317 
34260 
34289 
34305 
34230 
34226 
34219 
34250 
34186 
34207 
34211 
34213 
34180 
34207 
34211 
34221 
34198 
34167 
34190 
34204 
34221 
34194 
34205 
34178 
34166 
34176 
34224 
34270 
34223 
34157 
34163 
34169 
34190 
34204 
34145 
34191 
34249 
34266 
34186 
34163 
34225 
34239 
34220 
34184 
34187 
34196 
34158 
34186 
34259 
34225 
34151 
34176 
34166 
34261 
34186 
34196 
34217 
34225 
34194 
34177 
34182 
34238 
34212 
34181 
34216 
34248 
34203 
34195 
34254 
34248 
34210 
34212 
34224 
34276 
34329 
34293 
34271 
34301 
34349 
34332 
34331 
34339 
34375 
34291 
34158 
34235 
34329 
34276 
34183 
34136 
34187 
34180 
34164 
34162 
34222 
34214 
34169 
34136 
34159 
34227 
34165 
34118 
34094 
34169 
34249 
34382 
34561 
34758 
34883 
34928 
34934 
34897 
34665 
34297 
34035 
33952 
33968 
34011 
34133 
34181 
34251 
34241 
34263 
34341 
34237 
34193 
34227 
34225 
34223 
34201 
34216 
34267 
34331 
34322 
34234 
34241 
34301 
34325 
34320 
34325 
34359 
34342 
34301 
34345 
34403 
34367 
34323 
34378 
34380 
34389 
34402 
34419 
34471 
34527 
34466 
34479 
34512 
34564 
34580 
34574 
34554 
34648 
34633 
34586 
34646 
34727 
34723 
34710 
34741 
34737 
34700 
34661 
34691 
34647 
34623 
34554 
34496 
34512 
34538 
34435 
34397 
34344 
34376 
34325 
34252 
34242 
34230 
34255 
34238 
34227 
34310 
34288 
34203 
34172 
34267 
34284 
34268 
34267 
34256 
34272 
34212 
34207 
34231 
34245 
34247 
34206 
34166 
34249 
34260 
34231 
34195 
34225 
34231 
34223 
34227 
34238 
34276 
34245 
34201 
34216 
34229 
34204 
34235 
34257 
34255 
34198 
34195 
34281 
34274 
34196 
34168 
34183 
34222 
34245 
34228 
34264 
34255 
34206 
34220 
34259 
34267 
34257 
34214 
34237 
34290 
34263 
34218 
34211 
34236 
34273 
34284 
34244 
34327 
34344 
34317 
34323 
34366 
34362 
34368 
34366 
34371 
34406 
34373 
34345 
34342 
34318 
34290 
34231 
34243 
34325 
34304 
34197 
34220 
34261 
34274 
34187 
34180 
34311 
34278 
34204 
34190 
34240 
34233 
34139 
34196 
34395 
34632 
34770 
34893 
35042 
35130 
35023 
34778 
34520 
34200 
34020 
34025 
34078 
34165 
34206 
34267 
34290 
34310 
34305 
34297 
34352 
34318 
34288 
34342 
34326 
34348 
34387 
34434 
34410 
34401 
34428 
34448 
34394 
34340 
34360 
34491 
34454 
34465 
34481 
34516 
34481 
34451 
34478 
34536 
34539 
34523 
34543 
34610 
34623 
34601 
34635 
34671 
34670 
34643 
34705 
34742 
34786 
34782 
34839 
34856 
34868 
34825 
34825 
34918 
34931 
34904 
34873 
34838 
34821 
34795 
34741 
34731 
34700 
34685 
34605 
34540 
34595 
34596 
34487 
34449 
34448 
34461 
34437 
34460 
34486 
34462 
34432 
34429 
34439 
34451 
34412 
34395 
34410 
34488 
34464 
34456 
34449 
34473 
34441 
34401 
34419 
34496 
34521 
34457 
34452 
34484 
34493 
34448 
34450 
34475 
34479 
34464 
34454 
34485 
34506 
34430 
34477 
34531 
34523 
34468 
34457 
34445 
34516 
34484 
34449 
34495 
34546 
34522 
34502 
34483 
34494 
34527 
34501 
34469 
34530 
34598 
34548 
34555 
34552 
34593 
34546 
34592 
34610 
34629 
34633 
34630 
34632 
34636 
34656 
34655 
34644 
34662 
34696 
34695 
34605 
34609 
34625 
34593 
34568 
34542 
34571 
34546 
34523 
34603 
34564 
34517 
34551 
34593 
34578 
34546 
34505 
34489 
34537 
34584 
34678 
34852 
35095 
35239 
35340 
35392 
35360 
35260 
34937 
34536 
34358 
34371 
34408 
34445 
34524 
34629 
34634 
34667 
34683 
34672 
34678 
34697 
34730 
34701 
34685 
34677 
34700 
34714 
34770 
34727 
34713 
34790 
34856 
34811 
34799 
34770 
34811 
34797 
34841 
34825 
34849 
34838 
34857 
34895 
34922 
34918 
34943 
34917 
34949 
34998 
34977 
35015 
35093 
35062 
35077 
35098 
35127 
35185 
35183 
35206 
35230 
35276 
35247 
35236 
35284 
35294 
35262 
35180 
35206 
35224 
35118 
35076 
35033 
35020 
35019 
34931 
34888 
34911 
34918 
34836 
34811 
34853 
34860 
34799 
34763 
34778 
34830 
34789 
34821 
34850 
34836 
34798 
34735 
34790 
34828 
34845 
34851 
34819 
34824 
34846 
34805 
34813 
34788 
34826 
34842 
34840 
34856 
34864 
34861 
34873 
34848 
34847 
34848 
34804 
34800 
34841 
34838 
34851 
34873 
34887 
34848 
34810 
34860 
34885 
34855 
34838 
34875 
34878 
34884 
34872 
34853 
34869 
34942 
34906 
34840 
34848 
34879 
34817 
34880 
34925 
34912 
34891 
34893 
34901 
34965 
34906 
34905 
34941 
34978 
35013 
34942 
34928 
35014 
35011 
34955 
34984 
35040 
35046 
34997 
34956 
34947 
34934 
34863 
34866 
34896 
34926 
34889 
34860 
34842 
34878 
34901 
34879 
34871 
34879 
34878 
34818 
34827 
34837 
34869 
34933 
35083 
35287 
35592 
35675 
35695 
35658 
35622 
35357 
34909 
34693 
34675 
34687 
34733 
34836 
34966 
34962 
34977 
34966 
34957 
34961 
34966 
34968 
34968 
34982 
34974 
34961 
35017 
35010 
35039 
35057 
35088 
35048 
35003 
35017 
35084 
35128 
35078 
35070 
35124 
35128 
35103 
35084 
35090 
35164 
35198 
35132 
35180 
35203 
35241 
35226 
35226 
35259 
35321 
35301 
35290 
35343 
35405 
35407 
35430 
35433 
35415 
35446 
35417 
35474 
35560 
35498 
35407 
35413 
35388 
35372 
35258 
35246 
35236 
35200 
35147 
35117 
35093 
35105 
35055 
35044 
35023 
35037 
34951 
34913 
34966 
34966 
35006 
34989 
34957 
34985 
35012 
34958 
34958 
34967 
34980 
34961 
34945 
34962 
34986 
34962 
34949 
35028 
35013 
34937 
34909 
34923 
34992 
34999 
34947 
34961 
34990 
34957 
34928 
34897 
34945 
34885 
34905 
34969 
34958 
34987 
34979 
34921 
34914 
34911 
34931 
34959 
34972 
34939 
34924 
34959 
34930 
34894 
34910 
34899 
34910 
34915 
34927 
34925 
34907 
34915 
34919 
34915 
34896 
34924 
34932 
34918 
34920 
34915 
34991 
34993 
34998 
34994 
34971 
34894 
34910 
35015 
35026 
34995 
34991 
35039 
35100 
35055 
34966 
34979 
35030 
34976 
34865 
34846 
34905 
34917 
34870 
34867 
34884 
34889 
34823 
34825 
34827 
34866 
34886 
34867 
34868 
34849 
34794 
34800 
34902 
35087 
35268 
35398 
35550 
35657 
35666 
35534 
35280 
34928 
34689 
34557 
34611 
34701 
34835 
34827 
34826 
34866 
34918 
34857 
34827 
34867 
34910 
34878 
34817 
34861 
34892 
34905 
34865 
34912 
34988 
34935 
34879 
34896 
34950 
34963 
34921 
34896 
34941 
34974 
34972 
34960 
34953 
34984 
34995 
34931 
34989 
35026 
35060 
35033 
35058 
35109 
35123 
35079 
35143 
35208 
35209 
35247 
35205 
35257 
35299 
35260 
35246 
35274 
35356 
35351 
35302 
35248 
35245 
35179 
35157 
35129 
35065 
35059 
35010 
34936 
34962 
34954 
34910 
34898 
34883 
34867 
34798 
34797 
34822 
34801 
34753 
34763 
34826 
34820 
34749 
34728 
34767 
34744 
34803 
34838 
34745 
34785 
34762 
34764 
34801 
34808 
34772 
34728 
34748 
34755 
34799 
34761 
34710 
34717 
34760 
34754 
34738 
34757 
34795 
34751 
34711 
34729 
34798 
34729 
34665 
34674 
34741 
34733 
34642 
34693 
34734 
34695 
34696 
34710 
34776 
34786 
34643 
34641 
34687 
34731 
34672 
34666 
34701 
34708 
34714 
34680 
34627 
34652 
34626 
34614 
34659 
34712 
34716 
34671 
34666 
34700 
34738 
34674 
34648 
34762 
34780 
34735 
34723 
34722 
34814 
34754 
34692 
34697 
34697 
34686 
34691 
34731 
34744 
34656 
34551 
34550 
34642 
34625 
34599 
34602 
34613 
34599 
34566 
34516 
34540 
34574 
34514 
34542 
34506 
34484 
34603 
34742 
34994 
35239 
35254 
35305 
35325 
35378 
35109 
34634 
34342 
34295 
34312 
34312 
34430 
34540 
34589 
34549 
34517 
34577 
34620 
34532 
34547 
34588 
34611 
34572 
34582 
34603 
34620 
34610 
34563 
34565 
34645 
34643 
34570 
34598 
34674 
34658 
34629 
34655 
34676 
34649 
34669 
34672 
34677 
34713 
34730 
34695 
34774 
34763 
34704 
34746 
34810 
34841 
34781 
34776 
34839 
34945 
34956 
34919 
34972 
34999 
34971 
34991 
35008 
35012 
34999 
34924 
34913 
34923 
34884 
34831 
34746 
34715 
34739 
34618 
34585 
34578 
34552 
34560 
34506 
34473 
34491 
34481 
34472 
34441 
34461 
34471 
34430 
34413 
34462 
34469 
34466 
34427 
34406 
34389 
34377 
34371 
34410 
34438 
34440 
34424 
34385 
34384 
34408 
34387 
34397 
34403 
34386 
34357 
34363 
34377 
34371 
34352 
34349 
34343 
34342 
34315 
34342 
34368 
34335 
34340 
34396 
34380 
34323 
34343 
34331 
34378 
34388 
34309 
34288 
34331 
34351 
34323 
34268 
34298 
34306 
34276 
34248 
34305 
34354 
34316 
34306 
34317 
34345 
34379 
34376 
34357 
34350 
34379 
34383 
34404 
34418 
34383 
34354 
34319 
34330 
34380 
34335 
34319 
34305 
34286 
34293 
34236 
34155 
34208 
34319 
34238 
34198 
34192 
34190 
34183 
34213 
34196 
34203 
34179 
34137 
34126 
34177 
34244 
34412 
34630 
34841 
34977 
35015 
34949 
34882 
34575 
34124 
33923 
33931 
33989 
33972 
34071 
34176 
34221 
34198 
34208 
34214 
34211 
34214 
34220 
34219 
34246 
34211 
34193 
34233 
34256 
34230 
34248 
34213 
34222 
34292 
34277 
34249 
34257 
34307 
34308 
34329 
34341 
34317 
34282 
34222 
34319 
34385 
34345 
34363 
34347 
34387 
34406 
34393 
34428 
34478 
34526 
34485 
34478 
34532 
34613 
34597 
34625 
34641 
34646 
34621 
34547 
34592 
34654 
34613 
34556 
34544 
34514 
34437 
34423 
34414 
34333 
34230 
34176 
34192 
34185 
34176 
34146 
34118 
34145 
34170 
34072 
34038 
34062 
34090 
34090 
34112 
34103 
34090 
34062 
34043 
34073 
34092 
34042 
34021 
34028 
34035 
34000 
33977 
34026 
34060 
34058 
34000 
33999 
34021 
34083 
34043 
34071 
34067 
34066 
33965 
33944 
33988 
34084 
34063 
34013 
34019 
34018 
33929 
33975 
34034 
34029 
34000 
33991 
33990 
34011 
34004 
33983 
33993 
33984 
33961 
33944 
33985 
33999 
34025 
33951 
33930 
33971 
33978 
33952 
33932 
33935 
33982 
33960 
33939 
34000 
34022 
33974 
33964 
34072 
34081 
34047 
34006 
34031 
34058 
34055 
34017 
34039 
34088 
34098 
34018 
33999 
33986 
33994 
33984 
33890 
33901 
33958 
33938 
33942 
33985 
33985 
33910 
33870 
33839 
33872 
33942 
33892 
33891 
33876 
33831 
33793 
33852 
33968 
34143 
34300 
34494 
34627 
34762 
34669 
34537 
34290 
33940 
33687 
33604 
33646 
33769 
33905 
33893 
33894 
33902 
33887 
33913 
33899 
33912 
33914 
33913 
33920 
33959 
33935 
33921 
33936 
33954 
33971 
33997 
33956 
33983 
33954 
33929 
33981 
33955 
34008 
34071 
34022 
33956 
33986 
34055 
34044 
34098 
34089 
34084 
34084 
34100 
34142 
34161 
34135 
34118 
34168 
34240 
34221 
34238 
34264 
34294 
34285 
34268 
34280 
34379 
34365 
34344 
34334 
34324 
34325 
34244 
34222 
34245 
34177 
34091 
34020 
34023 
34006 
33919 
33897 
33914 
33873 
33866 
33849 
33855 
33894 
33876 
33812 
33804 
33844 
33826 
33791 
33788 
33851 
33825 
33800 
33817 
33829 
33795 
33751 
33772 
33774 
33775 
33797 
33854 
33814 
33793 
33771 
33735 
33779 
33848 
33796 
33755 
33752 
33800 
33773 
33756 
33731 
33791 
33779 
33745 
33793 
33798 
33810 
33754 
33751 
33780 
33820 
33778 
33723 
33740 
33786 
33780 
33734 
33729 
33791 
33783 
33738 
33753 
33741 
33719 
33749 
33778 
33800 
33804 
33790 
33786 
33799 
33849 
33786 
33817 
33878 
33886 
33838 
33836 
33885 
33913 
33874 
33839 
33812 
33824 
33846 
33750 
33689 
33775 
33781 
33708 
33682 
33696 
33696 
33675 
33684 
33723 
33737 
33684 
33668 
33666 
33674 
33620 
33694 
33741 
33966 
34160 
34307 
34459 
34536 
34486 
34392 
34195 
33810 
33472 
33380 
33504 
33613 
33686 
33677 
33690 
33711 
33703 
33682 
33741 
33800 
33780 
33719 
33726 
33809 
33825 
33792 
33764 
33737 
33801 
33775 
33747 
33822 
33865 
33796 
33770 
33809 
33865 
33843 
33829 
33823 
33896 
33913 
33870 
33895 
33928 
33964 
33966 
33966 
33967 
34013 
33977 
33977 
34035 
34101 
34107 
34106 
34136 
34150 
34165 
34185 
34202 
34245 
34240 
34166 
34195 
34233 
34210 
34137 
34109 
34094 
34042 
33944 
33872 
33914 
33940 
33815 
33737 
33779 
33814 
33785 
33709 
33710 
33715 
33709 
33711 
33706 
33780 
33774 
33674 
33698 
33745 
33733 
33647 
33684 
33724 
33728 
33699 
33692 
33722 
33742 
33714 
33642 
33675 
33729 
33744 
33702 
33734 
33752 
33713 
33661 
33699 
33688 
33661 
33659 
33698 
33697 
33695 
33706 
33697 
33681 
33684 
33708 
33736 
33680 
33675 
33715 
33660 
33690 
33715 
33701 
33678 
33651 
33648 
33685 
33678 
33712 
33758 
33751 
33721 
33728 
33736 
33755 
33759 
33792 
33800 
33791 
33785 
33773 
33823 
33817 
33793 
33722 
33718 
33780 
33730 
33718 
33670 
33664 
33700 
33644 
33659 
33707 
33694 
33615 
33611 
33633 
33669 
33629 
33623 
33645 
33616 
33573 
33626 
33698 
33921 
34121 
34293 
34475 
34535 
34410 
34251 
33968 
33574 
33420 
33369 
33406 
33503 
33586 
33610 
33648 
33661 
33640 
33677 
33664 
33695 
33738 
33705 
33692 
33710 
33744 
33753 
33737 
33772 
33780 
33768 
33750 
33808 
33795 
33768 
33739 
33773 
33806 
33795 
33787 
33839 
33860 
33878 
33808 
33830 
33937 
33912 
33908 
33935 
33948 
33993 
34038 
34018 
34018 
34061 
34072 
34055 
34119 
34145 
34191 
34156 
34122 
34222 
34246 
34174 
34161 
34183 
34166 
34081 
34034 
34043 
34011 
33937 
33854 
33863 
33813 
33756 
33745 
33754 
33793 
33724 
33693 
33727 
33714 
33713 
33660 
33685 
33691 
33674 
33711 
33755 
33710 
33679 
33657 
33661 
33686 
33726 
33665 
33656 
33661 
33710 
33686 
33637 
33688 
33739 
33680 
33619 
33664 
33723 
33699 
33713 
33685 
33663 
33691 
33671 
33654 
33655 
33712 
33683 
33623 
33652 
33717 
33732 
33692 
33689 
33731 
33691 
33642 
33667 
33721 
33724 
33695 
33665 
33668 
33662 
33658 
33697 
33697 
33792 
33750 
33671 
33732 
33768 
33730 
33774 
33822 
33769 
33815 
33803 
33795 
33848 
33815 
33738 
33762 
33757 
33742 
33691 
33665 
33727 
33732 
33655 
33640 
33642 
33687 
33679 
33677 
33687 
33699 
33611 
33598 
33636 
33679 
33586 
33588 
33660 
33811 
34041 
34225 
34367 
34473 
34484 
34442 
34219 
33898 
33584 
33403 
33428 
33530 
33583 
33602 
33720 
33741 
33741 
33652 
33644 
33718 
33746 
33736 
33742 
33750 
33762 
33747 
33772 
33810 
33779 
33738 
33756 
33800 
33806 
33799 
33791 
33849 
33846 
33866 
33821 
33837 
33863 
33909 
33843 
33862 
33903 
33930 
33925 
33942 
33970 
33977 
34021 
33941 
33997 
34094 
34117 
34077 
34142 
34199 
34208 
34153 
34173 
34265 
34227 
34174 
34161 
34222 
34243 
34137 
34068 
34016 
33995 
33941 
33901 
33903 
33928 
33845 
33765 
33798 
33793 
33805 
33729 
33735 
33762 
33748 
33722 
33705 
33785 
33743 
33700 
33709 
33730 
33745 
33693 
33707 
33747 
33772 
33751 
33737 
33783 
33795 
33717 
33631 
33664 
33727 
33714 
33748 
33723 
33710 
33730 
33725 
33713 
33719 
33719 
33697 
33736 
33728 
33766 
33745 
33778 
33771 
33749 
33686 
33669 
33739 
33768 
33732 
33687 
33672 
33698 
33654 
33681 
33758 
33793 
33757 
33763 
33735 
33767 
33751 
33730 
33768 
33747 
33683 
33679 
33749 
33791 
33775 
33769 
33729 
33763 
33740 
33712 
33751 
33821 
33889 
33858 
33803 
33847 
33887 
33914 
33870 
33822 
33833 
33824 
33769 
33736 
33748 
33772 
33712 
33728 
33719 
33756 
33748 
33703 
33701 
33738 
33720 
33677 
33701 
33690 
33628 
33685 
33695 
33753 
33898 
34085 
34261 
34461 
34571 
34564 
34441 
34202 
33829 
33490 
33472 
33553 
33619 
33694 
33794 
33804 
33807 
33767 
33705 
33706 
33783 
33820 
33753 
33745 
33869 
33845 
33838 
33806 
33801 
33806 
33791 
33828 
33817 
33896 
33899 
33898 
33898 
33894 
33908 
33868 
33877 
33948 
33979 
33951 
33978 
34002 
33987 
33961 
33973 
34044 
34073 
34079 
34076 
34094 
34152 
34121 
34138 
34210 
34245 
34253 
34292 
34271 
34299 
34300 
34302 
34302 
34303 
34247 
34163 
34143 
34183 
34131 
34023 
34000 
33990 
33929 
33904 
33898 
33917 
33847 
33772 
33841 
33864 
33860 
33804 
33793 
33771 
33810 
33819 
33832 
33807 
33834 
33815 
33844 
33824 
33833 
33866 
33838 
33845 
33830 
33827 
33813 
33779 
33833 
33793 
33814 
33855 
33838 
33814 
33792 
33761 
33820 
33874 
33829 
33810 
33815 
33828 
33828 
33824 
33827 
33840 
33824 
33787 
33791 
33821 
33864 
33896 
33825 
33795 
33834 
33814 
33809 
33846 
33848 
33792 
33803 
33815 
33834 
33865 
33822 
33835 
33866 
33839 
33813 
33811 
33830 
33827 
33759 
33776 
33851 
33850 
33829 
33849 
33889 
33948 
33884 
33884 
33922 
33952 
33901 
33923 
33957 
33966 
33951 
33918 
33901 
33930 
33947 
33885 
33904 
33884 
33796 
33793 
33834 
33900 
33901 
33810 
33786 
33848 
33828 
33762 
33798 
33820 
33870 
33783 
33667 
33749 
33834 
33934 
34106 
34347 
34516 
34624 
34656 
34587 
34492 
34171 
33729 
33549 
33532 
33643 
33687 
33707 
33791 
33856 
33886 
33916 
33854 
33852 
33895 
33914 
33877 
33894 
33906 
33899 
33912 
33940 
33909 
33863 
33893 
33996 
34002 
33941 
33940 
33946 
34004 
33987 
33976 
34053 
34110 
34021 
34014 
34040 
34058 
34037 
34045 
34113 
34189 
34171 
34113 
34143 
34212 
34199 
34212 
34257 
34321 
34354 
34336 
34375 
34380 
34365 
34373 
34439 
34412 
34425 
34375 
34326 
34348 
34322 
34223 
34145 
34130 
34129 
34046 
33960 
33989 
34015 
33960 
33954 
33936 
33952 
33964 
33939 
33924 
33934 
33930 
33852 
33892 
33915 
33964 
33935 
33937 
33887 
33823 
33850 
33879 
33880 
33934 
33907 
33907 
33923 
33936 
33876 
33809 
33925 
33960 
33903 
33875 
33934 
33914 
33929 
33917 
33903 
33864 
33903 
33931 
33946 
33895 
33873 
33883 
33890 
33876 
33912 
33916 
33918 
33903 
33888 
33870 
33851 
33911 
33927 
33893 
33881 
33934 
33978 
33929 
33933 
33899 
33890 
33908 
33923 
33957 
33981 
33964 
33928 
33962 
33961 
33977 
33974 
33969 
33961 
33992 
34045 
33981 
34030 
34052 
34035 
33948 
33973 
33976 
33966 
33885 
33866 
33883 
33887 
33867 
33883 
33951 
33916 
33846 
33836 
33860 
33876 
33838 
33829 
33853 
33859 
33873 
33919 
34091 
34332 
34453 
34602 
34718 
34692 
34595 
34354 
33931 
33660 
33635 
33642 
33735 
33828 
33848 
33861 
33902 
33928 
33986 
33926 
33890 
33895 
33988 
33963 
33920 
33966 
34035 
34043 
34007 
33971 
33982 
34012 
33993 
34004 
34036 
34065 
34011 
34018 
34069 
34138 
34075 
34068 
34099 
34130 
34120 
34119 
34125 
34146 
34243 
34209 
34226 
34272 
34236 
34237 
34283 
34352 
34392 
34374 
34366 
34410 
34474 
34444 
34432 
34427 
34472 
34480 
34445 
34396 
34414 
34340 
34293 
34280 
34214 
34152 
34108 
34099 
34116 
34078 
33978 
33999 
34056 
34044 
33938 
33970 
33973 
33960 
33925 
33974 
33988 
34000 
33976 
33957 
33918 
33948 
33948 
33964 
33953 
33978 
33993 
33889 
33968 
34005 
33981 
33947 
33976 
33979 
33999 
33929 
33904 
33982 
34003 
33926 
33945 
34019 
34026 
33959 
33934 
33938 
34000 
34008 
33937 
33957 
33999 
33991 
33973 
33968 
33993 
34026 
33943 
33961 
33982 
33993 
33933 
33972 
33972 
34013 
33970 
34003 
34000 
34010 
34016 
33973 
33980 
33986 
34005 
33971 
33977 
33951 
33952 
33999 
34045 
34048 
34046 
34020 
34048 
34127 
34146 
34096 
34085 
34104 
34194 
34130 
34068 
34064 
34087 
34089 
34040 
34005 
34036 
34009 
33942 
33952 
34020 
34019 
33976 
33988 
34022 
34000 
33965 
34013 
33970 
34024 
33974 
33935 
33942 
34025 
34122 
34337 
34535 
34701 
34793 
34813 
34740 
34567 
34180 
33865 
33706 
33775 
33899 
33959 
34028 
34057 
34081 
34036 
34007 
34082 
34078 
34035 
34073 
34115 
34133 
34087 
34113 
34131 
34132 
34147 
34131 
34148 
34183 
34151 
34122 
34172 
34206 
34175 
34198 
34250 
34245 
34247 
34227 
34270 
34257 
34310 
34251 
34309 
34366 
34370 
34363 
34372 
34384 
34444 
34475 
34461 
34488 
34518 
34500 
34463 
34544 
34639 
34644 
34621 
34618 
34591 
34617 
34580 
34522 
34534 
34507 
34401 
34394 
34347 
34335 
34285 
34250 
34229 
34248 
34168 
34084 
34135 
34203 
34216 
34145 
34114 
34167 
34140 
34077 
34152 
34184 
34150 
34067 
34073 
34151 
34206 
34125 
34106 
34177 
34193 
34165 
34154 
34150 
34214 
34169 
34089 
34134 
34202 
34201 
34179 
34182 
34187 
34196 
34166 
34176 
34152 
34158 
34166 
34197 
34171 
34196 
34142 
34175 
34185 
34189 
34193 
34154 
34149 
34194 
34209 
34178 
34197 
34242 
34214 
34168 
34181 
34220 
34266 
34221 
34139 
34170 
34248 
34209 
34167 
34207 
34224 
34210 
34250 
34246 
34199 
34190 
34242 
34250 
34244 
34212 
34235 
34252 
34302 
34312 
34234 
34281 
34303 
34307 
34279 
34298 
34369 
34377 
34304 
34312 
34375 
34401 
34387 
34352 
34341 
34290 
34286 
34331 
34285 
34307 
34315 
34244 
34256 
34246 
34204 
34214 
34300 
34294 
34251 
34255 
34276 
34262 
34232 
34148 
34193 
34375 
34558 
34751 
34931 
35067 
35116 
35055 
34921 
34625 
34309 
34057 
34018 
34136 
34261 
34289 
34285 
34305 
34342 
34350 
34321 
34315 
34364 
34377 
34335 
34349 
34414 
34432 
34411 
34397 
34414 
34467 
34452 
34375 
34448 
34476 
34459 
34469 
34488 
34484 
34490 
34448 
34475 
34565 
34590 
34580 
34565 
34559 
34578 
34579 
34601 
34625 
34652 
34684 
34688 
34758 
34812 
34747 
34710 
34807 
34873 
34888 
34827 
34857 
34911 
34938 
34937 
34910 
34899 
34866 
34826 
34813 
34776 
34749 
34641 
34582 
34631 
34632 
34533 
34449 
34456 
34474 
34491 
34465 
34431 
34450 
34443 
34394 
34374 
34454 
34472 
34445 
34435 
34441 
34422 
34400 
34413 
34397 
34474 
34460 
34415 
34423 
34431 
34427 
34440 
34426 
34442 
34429 
34422 
34468 
34477 
34478 
34435 
34444 
34461 
34408 
34377 
34420 
34477 
34478 
34416 
34411 
34484 
34450 
34430 
34446 
34467 
34482 
34446 
34435 
34436 
34430 
34440 
34462 
34473 
34482 
34480 
34468 
34449 
34453 
34490 
34481 
34492 
34511 
34482 
34486 
34537 
34534 
34542 
34532 
34557 
34545 
34558 
34546 
34551 
34604 
34637 
34550 
34469 
34513 
34589 
34566 
34495 
34507 
34490 
34475 
34457 
34447 
34429 
34474 
34452 
34453 
34507 
34458 
34427 
34436 
34439 
34437 
34394 
34407 
34510 
34660 
34868 
35023 
35223 
35310 
35250 
35111 
34861 
34487 
34227 
34212 
34248 
34262 
34355 
34399 
34472 
34502 
34516 
34522 
34490 
34488 
34524 
34541 
34496 
34530 
34588 
34555 
34578 
34581 
34559 
34535 
34504 
34516 
34612 
34646 
34554 
34592 
34650 
34648 
34588 
34605 
34642 
34704 
34743 
34746 
34685 
34671 
34686 
34730 
34765 
34845 
34789 
34752 
34766 
34848 
34860 
34880 
34885 
34923 
34987 
34924 
34941 
35001 
35018 
34982 
34982 
35001 
34987 
34928 
34881 
34815 
34803 
34750 
34717 
34684 
34655 
34600 
34525 
34530 
34581 
34549 
34475 
34487 
34527 
34522 
34463 
34491 
34515 
34512 
34464 
34461 
34440 
34486 
34464 
34449 
34484 
34483 
34459 
34485 
34438 
34460 
34486 
34465 
34457 
34524 
34524 
34456 
34460 
34487 
34483 
34468 
34449 
34484 
34472 
34454 
34450 
34473 
34485 
34431 
34460 
34483 
34457 
34441 
34445 
34483 
34524 
34489 
34461 
34502 
34496 
34476 
34479 
34482 
34504 
34454 
34436 
34467 
34482 
34504 
34472 
34467 
34511 
34538 
34560 
34515 
34517 
34580 
34614 
34581 
34582 
34598 
34584 
34529 
34496 
34494 
34481 
34418 
34439 
34453 
34413 
34392 
34381 
34386 
34459 
34461 
34380 
34371 
34415 
34434 
34371 
34344 
34395 
34440 
34532 
34697 
34942 
35111 
35201 
35207 
35175 
35051 
34663 
34284 
34196 
34226 
34219 
34294 
34362 
34431 
34406 
34394 
34442 
34533 
34467 
34415 
34475 
34492 
34471 
34477 
34519 
34491 
34480 
34497 
34514 
34525 
34516 
34523 
34512 
34511 
34533 
34538 
34543 
34606 
34623 
34569 
34568 
34569 
34612 
34629 
34637 
34667 
34706 
34709 
34680 
34699 
34751 
34767 
34771 
34799 
34858 
34899 
34871 
34840 
34885 
34922 
34908 
34924 
34940 
34930 
34902 
34887 
34890 
34867 
34772 
34707 
34691 
34612 
34586 
34568 
34540 
34547 
34545 
34460 
34433 
34475 
34502 
34413 
34326 
34392 
34468 
34424 
34434 
34440 
34448 
34412 
34392 
34481 
34463 
34430 
34390 
34393 
34418 
34370 
34347 
34423 
34423 
34416 
34346 
34366 
34456 
34416 
34409 
34413 
34425 
34439 
34397 
34422 
34429 
34398 
34378 
34379 
34415 
34442 
34425 
34371 
34374 
34427 
34368 
34361 
34383 
34377 
34416 
34408 
34377 
34400 
34389 
34351 
34399 
34411 
34422 
34395 
34363 
34386 
34387 
34350 
34344 
34392 
34427 
34443 
34452 
34444 
34464 
34417 
34484 
34425 
34474 
34547 
34503 
34495 
34499 
34499 
34450 
34393 
34448 
34499 
34363 
34331 
34388 
34386 
34316 
34301 
34354 
34371 
34335 
34269 
34321 
34382 
34383 
34283 
34249 
34302 
34309 
34287 
34386 
34647 
34875 
34924 
35064 
35198 
35177 
34971 
34661 
34301 
34142 
34080 
34151 
34247 
34354 
34383 
34342 
34356 
34399 
34385 
34357 
34365 
34395 
34437 
34404 
34363 
34410 
34443 
34406 
34391 
34420 
34442 
34422 
34439 
34505 
34500 
34413 
34437 
34490 
34526 
34551 
34524 
34519 
34527 
34519 
34504 
34555 
34619 
34598 
34568 
34618 
34656 
34660 
34656 
34688 
34715 
34746 
34740 
34822 
34838 
34810 
34839 
34832 
34862 
34885 
34882 
34842 
34810 
34820 
34745 
34679 
34653 
34653 
34583 
34529 
34529 
34502 
34478 
34388 
34403 
34412 
34408 
34350 
34342 
34386 
34430 
34342 
34324 
34378 
34369 
34362 
34311 
34326 
34358 
34356 
34319 
34346 
34373 
34360 
34323 
34323 
34324 
34410 
34404 
34326 
34298 
34336 
34295 
34348 
34375 
34378 
34344 
34297 
34291 
34314 
34351 
34338 
34324 
34354 
34360 
34326 
34341 
34331 
34338 
34306 
34286 
34365 
34400 
34320 
34287 
34330 
34386 
34341 
34300 
34315 
34329 
34289 
34296 
34329 
34398 
34375 
34282 
34307 
34336 
34315 
34277 
34264 
34294 
34349 
34302 
34303 
34317 
34388 
34372 
34359 
34366 
34425 
34395 
34366 
34377 
34411 
34384 
34368 
34411 
34427 
34391 
34378 
34371 
34371 
34350 
34250 
34276 
34323 
34285 
34267 
34288 
34298 
34347 
34263 
34246 
34250 
34272 
34205 
34205 
34211 
34202 
34207 
34329 
34467 
34721 
34901 
35013 
35066 
35106 
35029 
34690 
34238 
34044 
34049 
34048 
34128 
34197 
34217 
34247 
34287 
34319 
34293 
34237 
34226 
34280 
34367 
34369 
34286 
34285 
34359 
34373 
34357 
34378 
34377 
34344 
34326 
34358 
34399 
34429 
34343 
34339 
34404 
34470 
34447 
34397 
34428 
34455 
34439 
34435 
34479 
34510 
34535 
34535 
34582 
34616 
34635 
34624 
34626 
34676 
34674 
34670 
34719 
34776 
34788 
34723 
34726 
34773 
34785 
34735 
34682 
34679 
34667 
34650 
34598 
34574 
34532 
34485 
34468 
34430 
34422 
34347 
34332 
34311 
34324 
34311 
34285 
34244 
34248 
34278 
34247 
34225 
34235 
34244 
34244 
34266 
34227 
34263 
34236 
34216 
34191 
34278 
34291 
34273 
34227 
34286 
34276 
34186 
34213 
34283 
34267 
34210 
34192 
34252 
34265 
34213 
34228 
34280 
34309 
34224 
34212 
34213 
34234 
34233 
34273 
34276 
34230 
34248 
34231 
34172 
34210 
34244 
34203 
34212 
34214 
34273 
34214 
34225 
34222 
34235 
34197 
34202 
34264 
34274 
34227 
34244 
34240 
34294 
34296 
34294 
34297 
34317 
34309 
34229 
34304 
34364 
34337 
34286 
34326 
34350 
34350 
34240 
34228 
34236 
34259 
34205 
34211 
34234 
34257 
34191 
34167 
34199 
34235 
34185 
34118 
34178 
34245 
34234 
34168 
34133 
34167 
34358 
34592 
34799 
34941 
34969 
34928 
34906 
34650 
34175 
33888 
33937 
34047 
34017 
34071 
34161 
34236 
34241 
34219 
34237 
34256 
34209 
34171 
34238 
34312 
34281 
34197 
34228 
34269 
34274 
34287 
34299 
34321 
34301 
34244 
34295 
34374 
34379 
34326 
34337 
34348 
34376 
34364 
34329 
34376 
34414 
34402 
34407 
34399 
34416 
34457 
34492 
34470 
34531 
34596 
34545 
34541 
34583 
34697 
34646 
34666 
34721 
34744 
34705 
34671 
34641 
34733 
34690 
34610 
34565 
34579 
34531 
34441 
34432 
34433 
34388 
34291 
34281 
34284 
34286 
34261 
34220 
34231 
34217 
34210 
34203 
34280 
34200 
34131 
34156 
34210 
34163 
34137 
34153 
34182 
34223 
34160 
34182 
34220 
34184 
34154 
34140 
34223 
34256 
34172 
34114 
34152 
34221 
34212 
34155 
34166 
34244 
34213 
34173 
34181 
34190 
34160 
34174 
34167 
34167 
34169 
34237 
34176 
34191 
34204 
34182 
34197 
34142 
34141 
34124 
34146 
34169 
34216 
34210 
34166 
34179 
34194 
34176 
34184 
34156 
34143 
34236 
34259 
34215 
34231 
34230 
34231 
34218 
34225 
34297 
34242 
34281 
34276 
34330 
34277 
34251 
34270 
34299 
34240 
34175 
34174 
34220 
34162 
34132 
34166 
34175 
34198 
34159 
34120 
34128 
34125 
34117 
34112 
34076 
34108 
34079 
34047 
34138 
34295 
34412 
34587 
34794 
34901 
34920 
34889 
34740 
34483 
34154 
33919 
33891 
34012 
34062 
34091 
34156 
34184 
34199 
34154 
34202 
34237 
34226 
34155 
34145 
34216 
34227 
34160 
34169 
34225 
34284 
34271 
34243 
34250 
34261 
34238 
34256 
34263 
34281 
34288 
34283 
34305 
34327 
34364 
34311 
34352 
34383 
34431 
34351 
34340 
34400 
34458 
34476 
34459 
34494 
34536 
34503 
34540 
34608 
34624 
34584 
34568 
34605 
34664 
34694 
34651 
34678 
34682 
34659 
34590 
34553 
34529 
34501 
34408 
34329 
34322 
34355 
34266 
34246 
34266 
34265 
34197 
34157 
34168 
34199 
34196 
34179 
34139 
34211 
34180 
34105 
34135 
34180 
34193 
34165 
34142 
34142 
34158 
34097 
34105 
34110 
34150 
34147 
34144 
34194 
34187 
34183 
34148 
34158 
34187 
34156 
34119 
34143 
34147 
34156 
34144 
34182 
34162 
34154 
34167 
34131 
34160 
34170 
34162 
34126 
34126 
34175 
34148 
34097 
34175 
34225 
34172 
34149 
34111 
34147 
34155 
34128 
34158 
34179 
34143 
34128 
34155 
34149 
34185 
34153 
34174 
34203 
34214 
34154 
34199 
34235 
34233 
34224 
34189 
34216 
34270 
34264 
34271 
34315 
34305 
34254 
34204 
34260 
34360 
34276 
34194 
34198 
34227 
34179 
34144 
34175 
34199 
34213 
34148 
34132 
34202 
34213 
34133 
34108 
34162 
34202 
34081 
34060 
34138 
34256 
34393 
34489 
34718 
34917 
35011 
34999 
34926 
34673 
34320 
34021 
33948 
34030 
34111 
34116 
34182 
34207 
34208 
34189 
34183 
34232 
34275 
34239 
34209 
34229 
34263 
34251 
34219 
34313 
34312 
34287 
34281 
34271 
34259 
34373 
34349 
34285 
34329 
34360 
34361 
34345 
34344 
34400 
34404 
34351 
34390 
34474 
34479 
34442 
34478 
34485 
34480 
34517 
34586 
34640 
34661 
34615 
34610 
34622 
34672 
34648 
34675 
34772 
34801 
34760 
34739 
34747 
34799 
34747 
34673 
34649 
34609 
34606 
34536 
34478 
34459 
34421 
34367 
34353 
34404 
34350 
34285 
34294 
34323 
34320 
34250 
34263 
34308 
34308 
34285 
34250 
34267 
34315 
34307 
34306 
34298 
34301 
34293 
34267 
34266 
34298 
34348 
34327 
34311 
34316 
34307 
34274 
34290 
34329 
34326 
34285 
34276 
34286 
34324 
34282 
34237 
34269 
34330 
34323 
34262 
34302 
34386 
34323 
34269 
34316 
34359 
34361 
34311 
34275 
34323 
34359 
34329 
34280 
34297 
34350 
34329 
34326 
34313 
34328 
34325 
34310 
34296 
34375 
34355 
34349 
34359 
34404 
34415 
34363 
34400 
34433 
34451 
34393 
34434 
34479 
34477 
34439 
34382 
34395 
34428 
34381 
34348 
34342 
34378 
34325 
34248 
34334 
34420 
34377 
34369 
34314 
34384 
34348 
34254 
34251 
34272 
34290 
34258 
34315 
34469 
34640 
34810 
35005 
35130 
35189 
35089 
34884 
34547 
34268 
34138 
34089 
34151 
34226 
34296 
34319 
34345 
34408 
34430 
34384 
34365 
34425 
34457 
34391 
34426 
34417 
34445 
34417 
34442 
34470 
34458 
34435 
34440 
34435 
34509 
34504 
34519 
34493 
34518 
34513 
34483 
34516 
34554 
34559 
34580 
34608 
34647 
34642 
34636 
34597 
34677 
34766 
34759 
34734 
34755 
34808 
34789 
34796 
34869 
34896 
34879 
34902 
34883 
34942 
34925 
34849 
34875 
34934 
34861 
34825 
34760 
34779 
34769 
34647 
34603 
34540 
34551 
34577 
34481 
34485 
34461 
34415 
34457 
34478 
34482 
34488 
34438 
34402 
34448 
34455 
34414 
34421 
34466 
34459 
34418 
34442 
34426 
34420 
34432 
34397 
34442 
34526 
34458 
34409 
34430 
34447 
34441 
34405 
34455 
34504 
34464 
34420 
34405 
34436 
34467 
34443 
34480 
34496 
34454 
34420 
34428 
34455 
34471 
34459 
34456 
34472 
34458 
34452 
34469 
34497 
34511 
34442 
34419 
34504 
34547 
34512 
34444 
34479 
34561 
34571 
34515 
34553 
34591 
34544 
34526 
34543 
34605 
34628 
34573 
34540 
34527 
34526 
34459 
34433 
34443 
34433 
34413 
34423 
34428 
34488 
34455 
34425 
34448 
34477 
34444 
34381 
34404 
34401 
34422 
34391 
34424 
34636 
34830 
34955 
35142 
35281 
35238 
35165 
34967 
34598 
34353 
34170 
34178 
34273 
34361 
34394 
34401 
34419 
34519 
34528 
34481 
34449 
34500 
34557 
34515 
34479 
34509 
34509 
34496 
34523 
34561 
34587 
34541 
34504 
34548 
34580 
34533 
34563 
34580 
34594 
34586 
34560 
34596 
34639 
34676 
34614 
34615 
34710 
34716 
34717 
34712 
34734 
34837 
34827 
34846 
34833 
34845 
34824 
34799 
34864 
34944 
34998 
34949 
34938 
35009 
34974 
34933 
34925 
34930 
34896 
34830 
34787 
34771 
34730 
34616 
34601 
34629 
34636 
34518 
34464 
34524 
34523 
34464 
34487 
34479 
34539 
34494 
34452 
34469 
34482 
34453 
34453 
34481 
34483 
34501 
34475 
34494 
34493 
34508 
34421 
34423 
34514 
34552 
34493 
34468 
34438 
34501 
34482 
34456 
34470 
34489 
34518 
34463 
34430 
34492 
34535 
34489 
34492 
34528 
34516 
34453 
34479 
34566 
34516 
34462 
34490 
34514 
34512 
34516 
34446 
34449 
34526 
34467 
34439 
34462 
34519 
34543 
34541 
34521 
34582 
34556 
34506 
34528 
34576 
34589 
34524 
34535 
34626 
34606 
34563 
34594 
34576 
34588 
34566 
34526 
34520 
34490 
34474 
34447 
34458 
34498 
34477 
34436 
34448 
34467 
34497 
34447 
34434 
34457 
34479 
34419 
34349 
34350 
34404 
34513 
34691 
34919 
35120 
35209 
35244 
35267 
35188 
34842 
34423 
34210 
34210 
34274 
34303 
34376 
34508 
34529 
34451 
34436 
34494 
34537 
34477 
34444 
34488 
34513 
34506 
34501 
34496 
34579 
34514 
34515 
34522 
34556 
34526 
34496 
34517 
34542 
34551 
34533 
34578 
34611 
34625 
34586 
34542 
34562 
34627 
34589 
34625 
34700 
34735 
34700 
34689 
34745 
34812 
34751 
34780 
34849 
34898 
34875 
34861 
34936 
34957 
34932 
34945 
34987 
34956 
34932 
34885 
34843 
34849 
34839 
34767 
34753 
34717 
34690 
34599 
34548 
34542 
34539 
34445 
34448 
34445 
34410 
34372 
34382 
34436 
34487 
34418 
34352 
34425 
34474 
34484 
34444 
34384 
34415 
34428 
34411 
34452 
34422 
34459 
34482 
34412 
34373 
34364 
34359 
34342 
34320 
34341 
34359 
34336 
34278 
34366 
34396 
34419 
34405 
34338 
34327 
34362 
34376 
34392 
34405 
34388 
34349 
34371 
34413 
34405 
34393 
34397 
34409 
34391 
34387 
34444 
34386 
34359 
34412 
34436 
34527 
34484 
34393 
34401 
34434 
34439 
34389 
34405 
34411 
34431 
34436 
34491 
34530 
34539 
34526 
34523 
34531 
34555 
34569 
34547 
34583 
34596 
34499 
34509 
34535 
34545 
34544 
34496 
34465 
34456 
34402 
34382 
34449 
34441 
34427 
34362 
34409 
34483 
34497 
34429 
34384 
34376 
34462 
34371 
34332 
34383 
34441 
34537 
34691 
34885 
35102 
35230 
35199 
35188 
35080 
34701 
34301 
34128 
34179 
34303 
34321 
34317 
34368 
34416 
34399 
34464 
34477 
34475 
34427 
34440 
34418 
34444 
34453 
34435 
34459 
34532 
34520 
34455 
34448 
34504 
34522 
34448 
34477 
34534 
34593 
34568 
34512 
34530 
34592 
34539 
34519 
34554 
34647 
34659 
34653 
34654 
34668 
34695 
34690 
34682 
34710 
34757 
34744 
34757 
34817 
34890 
34874 
34844 
34871 
34904 
34883 
34888 
34886 
34914 
34817 
34817 
34779 
34751 
34661 
34598 
34620 
34636 
34565 
34526 
34452 
34424 
34444 
34418 
34413 
34451 
34434 
34355 
34355 
34401 
34389 
34360 
34385 
34378 
34396 
34374 
34379 
34349 
34355 
34394 
34412 
34388 
34381 
34379 
34343 
34327 
34398 
34385 
34329 
34372 
34374 
34368 
34357 
34351 
34404 
34433 
34384 
34358 
34353 
34398 
34393 
34422 
34403 
34378 
34384 
34395 
34420 
34414 
34372 
34343 
34368 
34445 
34470 
34401 
34385 
34425 
34461 
34435 
34385 
34440 
34480 
34440 
34438 
34478 
34486 
34515 
34512 
34474 
34473 
34491 
34523 
34535 
34549 
34562 
34503 
34510 
34547 
34527 
34515 
34489 
34508 
34534 
34451 
34415 
34436 
34432 
34361 
34353 
34416 
34465 
34393 
34378 
34407 
34401 
34351 
34356 
34331 
34348 
34355 
34448 
34655 
34900 
35064 
35175 
35194 
35166 
35054 
34722 
34331 
34145 
34155 
34135 
34239 
34385 
34418 
34409 
34409 
34424 
34425 
34406 
34417 
34437 
34441 
34471 
34452 
34443 
34485 
34464 
34421 
34460 
34513 
34542 
34507 
34467 
34522 
34536 
34545 
34570 
34577 
34591 
34557 
34596 
34565 
34603 
34638 
34635 
34678 
34711 
34658 
34628 
34648 
34705 
34811 
34772 
34806 
34851 
34834 
34813 
34861 
34894 
34969 
34989 
34948 
34901 
34906 
34871 
34850 
34887 
34864 
34818 
34752 
34754 
34714 
34601 
34555 
34552 
34522 
34557 
34523 
34450 
34492 
34475 
34429 
34424 
34487 
34472 
34419 
34417 
34419 
34480 
34437 
34407 
34414 
34390 
34408 
34419 
34439 
34440 
34416 
34404 
34422 
34422 
34443 
34407 
34407 
34438 
34446 
34411 
34397 
34397 
34449 
34462 
34443 
34441 
34461 
34407 
34422 
34446 
34433 
34405 
34381 
34420 
34484 
34455 
34414 
34414 
34426 
34467 
34443 
34411 
34371 
34401 
34455 
34416 
34435 
34485 
34390 
34325 
34408 
34459 
34428 
34445 
34425 
34420 
34464 
34477 
34527 
34547 
34528 
34432 
34419 
34552 
34570 
34536 
34551 
34538 
34524 
34476 
34440 
34473 
34463 
34412 
34419 
34430 
34467 
34380 
34367 
34381 
34434 
34433 
34360 
34351 
34391 
34427 
34390 
34330 
34322 
34403 
34464 
34596 
34800 
35047 
35138 
35190 
35223 
35111 
34801 
34384 
34167 
34166 
34232 
34282 
34348 
34446 
34458 
34403 
34391 
34412 
34431 
34403 
34385 
34469 
34526 
34479 
34435 
34428 
34489 
34505 
34515 
34489 
34474 
34522 
34492 
34503 
34565 
34578 
34558 
34516 
34538 
34555 
34541 
34583 
34644 
34654 
34580 
34614 
34718 
34700 
34662 
34679 
34721 
34785 
34735 
34721 
34759 
34800 
34818 
34804 
34885 
34953 
34917 
34913 
34895 
34917 
34877 
34835 
34849 
34841 
34778 
34737 
34699 
34664 
34642 
34555 
34482 
34522 
34527 
34431 
34408 
34449 
34452 
34422 
34392 
34405 
34474 
34467 
34405 
34396 
34405 
34410 
34392 
34389 
34396 
34461 
34356 
34348 
34385 
34465 
34398 
34328 
34374 
34430 
34393 
34386 
34409 
34419 
34389 
34360 
34376 
34423 
34390 
34353 
34435 
34427 
34437 
34377 
34366 
34375 
34385 
34326 
34343 
34408 
34417 
34403 
34351 
34346 
34358 
34385 
34325 
34327 
34387 
34351 
34322 
34363 
34382 
34356 
34338 
34351 
34371 
34398 
34324 
34309 
34364 
34382 
34328 
34304 
34328 
34426 
34418 
34346 
34401 
34426 
34367 
34382 
34412 
34425 
34379 
34402 
34463 
34501 
34447 
34386 
34421 
34426 
34393 
34326 
34253 
34311 
34316 
34279 
34302 
34366 
34352 
34286 
34252 
34257 
34342 
34357 
34247 
34238 
34267 
34254 
34292 
34335 
34500 
34710 
34846 
35000 
35080 
35108 
34984 
34741 
34361 
34151 
34035 
34094 
34185 
34287 
34301 
34348 
34336 
34344 
34303 
34278 
34317 
34324 
34305 
34279 
34307 
34377 
34393 
34364 
34358 
34404 
34411 
34357 
34370 
34364 
34431 
34424 
34418 
34435 
34430 
34388 
34404 
34426 
34489 
34488 
34448 
34454 
34471 
34531 
34503 
34530 
34554 
34576 
34548 
34572 
34634 
34680 
34656 
34684 
34711 
34713 
34718 
34734 
34712 
34739 
34787 
34791 
34721 
34691 
34660 
34619 
34605 
34591 
34524 
34464 
34460 
34447 
34388 
34300 
34310 
34328 
34329 
34258 
34251 
34236 
34280 
34235 
34230 
34263 
34292 
34247 
34202 
34192 
34259 
34257 
34247 
34247 
34223 
34239 
34209 
34216 
34273 
34240 
34215 
34248 
34240 
34227 
34190 
34246 
34266 
34249 
34184 
34192 
34223 
34239 
34215 
34170 
34222 
34304 
34250 
34176 
34197 
34193 
34222 
34208 
34199 
34179 
34188 
34196 
34235 
34232 
34208 
34148 
34177 
34201 
34220 
34148 
34154 
34191 
34208 
34213 
34198 
34156 
34246 
34177 
34167 
34201 
34236 
34225 
34193 
34218 
34220 
34245 
34240 
34217 
34200 
34277 
34256 
34289 
34339 
34353 
34315 
34287 
34308 
34336 
34290 
34176 
34126 
34177 
34197 
34137 
34154 
34196 
34196 
34131 
34111 
34136 
34180 
34154 
34127 
34146 
34153 
34090 
34050 
34177 
34357 
34519 
34715 
34879 
35000 
34922 
34845 
34590 
34190 
33911 
33846 
33897 
33981 
34066 
34082 
34120 
34165 
34161 
34134 
34121 
34143 
34189 
34163 
34121 
34135 
34245 
34204 
34171 
34189 
34234 
34183 
34181 
34245 
34303 
34278 
34216 
34231 
34276 
34279 
34253 
34264 
34312 
34297 
34278 
34270 
34358 
34366 
34316 
34362 
34423 
34426 
34402 
34429 
34505 
34502 
34519 
34523 
34529 
34573 
34599 
34567 
34579 
34626 
34625 
34585 
34593 
34617 
34619 
34577 
34505 
34454 
34390 
34314 
34293 
34300 
34309 
34248 
34182 
34189 
34196 
34126 
34056 
34099 
34114 
34140 
34068 
34074 
34094 
34092 
34092 
34122 
34074 
34151 
34109 
34051 
34087 
34111 
34043 
34000 
34042 
34111 
34073 
34071 
34045 
34039 
34044 
34015 
34104 
34108 
34093 
34045 
34040 
34043 
34095 
34051 
34065 
34121 
34123 
34075 
34023 
34066 
34090 
34060 
34000 
34022 
34062 
34028 
33999 
34067 
34112 
34064 
33986 
34002 
33992 
34015 
34008 
33979 
34005 
34073 
34039 
34078 
34041 
34039 
34077 
34121 
34117 
34129 
34122 
34131 
34151 
34178 
34184 
34179 
34137 
34086 
34081 
34081 
34079 
34035 
33995 
34051 
34104 
34015 
34009 
34037 
34028 
34038 
33997 
33994 
34051 
33997 
33933 
33920 
33954 
33972 
34098 
34290 
34515 
34655 
34725 
34765 
34722 
34561 
34231 
33888 
33721 
33734 
33750 
33859 
33960 
34002 
34016 
34022 
34038 
34070 
34001 
33992 
34023 
34064 
34058 
34022 
34039 
34085 
34096 
34041 
34060 
34102 
34095 
34083 
34101 
34116 
34089 
34109 
34104 
34081 
34135 
34189 
34137 
34146 
34169 
34139 
34160 
34228 
34226 
34223 
34224 
34251 
34315 
34342 
34325 
34323 
34373 
34429 
34407 
34412 
34411 
34453 
34449 
34462 
34461 
34455 
34434 
34400 
34383 
34348 
34305 
34267 
34229 
34206 
34139 
34094 
34107 
34078 
33988 
33954 
33978 
34035 
34036 
33992 
33941 
33918 
33979 
33976 
33929 
33957 
33978 
33955 
33913 
33924 
33942 
33874 
33904 
33964 
33991 
33966 
33909 
33903 
33974 
33935 
33919 
33926 
33968 
33925 
33923 
33884 
33921 
33921 
33873 
33845 
33893 
33927 
33868 
33888 
33891 
33907 
33852 
33911 
33908 
33909 
33921 
33932 
33927 
33917 
33913 
33853 
33835 
33862 
33884 
33884 
33841 
33914 
33948 
33890 
33924 
33873 
33898 
33930 
33919 
34004 
33957 
33902 
33920 
33979 
34026 
34040 
33986 
33984 
34020 
34018 
34017 
34066 
34065 
34048 
34022 
34025 
34043 
34044 
33982 
33929 
33962 
33930 
33900 
33974 
33968 
33963 
33954 
33952 
33994 
33975 
33900 
33867 
33916 
33904 
33905 
33851 
33971 
34135 
34309 
34403 
34590 
34717 
34724 
34621 
34444 
34046 
33784 
33600 
33674 
33751 
33842 
33848 
33862 
33896 
33952 
33950 
33913 
33892 
33916 
33913 
33915 
33963 
33972 
33993 
34006 
33956 
33963 
33988 
34000 
33963 
33941 
33953 
34026 
34040 
33998 
34025 
34036 
34002 
34005 
34069 
34088 
34086 
34111 
34107 
34095 
34130 
34152 
34184 
34189 
34213 
34190 
34155 
34229 
34288 
34269 
34312 
34348 
34334 
34360 
34379 
34398 
34368 
34353 
34303 
34328 
34348 
34262 
34223 
34211 
34182 
34098 
34046 
34035 
34024 
33946 
33926 
33979 
33969 
33875 
33823 
33899 
33954 
33929 
33879 
33858 
33882 
33885 
33859 
33913 
33921 
33907 
33880 
33910 
33929 
33895 
33882 
33905 
33897 
33912 
33894 
33863 
33889 
33874 
33858 
33860 
33908 
33908 
33869 
33876 
33866 
33863 
33900 
33910 
33901 
33925 
33904 
33861 
33882 
33913 
33938 
33840 
33865 
33918 
33917 
33885 
33856 
33832 
33920 
33916 
33847 
33880 
33874 
33875 
33872 
33879 
33863 
33862 
33850 
33860 
33847 
33871 
33876 
33860 
33904 
33924 
33891 
33885 
33957 
33936 
33921 
33940 
34002 
33993 
33937 
33941 
33965 
33982 
33953 
33958 
33966 
33937 
33919 
33880 
33839 
33829 
33839 
33861 
33842 
33798 
33853 
33833 
33859 
33889 
33879 
33828 
33831 
33817 
33847 
33785 
33768 
33910 
34109 
34263 
34430 
34622 
34675 
34617 
34498 
34274 
33929 
33717 
33605 
33680 
33758 
33791 
33795 
33851 
33925 
33940 
33901 
33859 
33850 
33918 
33940 
33908 
33941 
33958 
33944 
33976 
33966 
34006 
34009 
33961 
33946 
33961 
34024 
34004 
34054 
34099 
34061 
33983 
34002 
34051 
34146 
34078 
34125 
34164 
34214 
34182 
34136 
34153 
34194 
34222 
34239 
34246 
34291 
34298 
34237 
34297 
34381 
34381 
34377 
34422 
34461 
34467 
34457 
34397 
34378 
34361 
34269 
34296 
34273 
34251 
34198 
34163 
34126 
34113 
34052 
33969 
33927 
33950 
33971 
33980 
33987 
33997 
34003 
33877 
33852 
33910 
33940 
33906 
33900 
33918 
33926 
33880 
33885 
33945 
33980 
33880 
33853 
33922 
33963 
33963 
33915 
33905 
33938 
33917 
33897 
33944 
33954 
33915 
33897 
33924 
33908 
33908 
33911 
33911 
33898 
33917 
33860 
33896 
33894 
33946 
33954 
33902 
33893 
33903 
33910 
33876 
33896 
33936 
33947 
33877 
33857 
33912 
33924 
33908 
33887 
33892 
33890 
33878 
33917 
33947 
33972 
33949 
33956 
34015 
34014 
33974 
33980 
33971 
33993 
33998 
34018 
34053 
34050 
34013 
33947 
33963 
33950 
33967 
33939 
33894 
33889 
33929 
33936 
33903 
33868 
33901 
33861 
33868 
33927 
33918 
33887 
33849 
33834 
33833 
33821 
33916 
34086 
34307 
34511 
34633 
34692 
34665 
34590 
34333 
33914 
33646 
33672 
33667 
33672 
33769 
33860 
33882 
33912 
33909 
33948 
33904 
33937 
33955 
33921 
33916 
33942 
33948 
33968 
33988 
33942 
33974 
34053 
34026 
33963 
33980 
34038 
34022 
33996 
33987 
34079 
34053 
34000 
34009 
34012 
34090 
34167 
34115 
34085 
34171 
34173 
34160 
34208 
34271 
34266 
34239 
34265 
34279 
34311 
34276 
34324 
34362 
34432 
34353 
34388 
34425 
34450 
34396 
34322 
34394 
34433 
34352 
34259 
34227 
34238 
34139 
34068 
33998 
33978 
34019 
33983 
33944 
33960 
34010 
33916 
33931 
33937 
33985 
33941 
33906 
33876 
33915 
33942 
33967 
33899 
33952 
33902 
33865 
33917 
33905 
33896 
33852 
33855 
33879 
33878 
33808 
33813 
33868 
33930 
33893 
33874 
33844 
33899 
33917 
33876 
33914 
33975 
34001 
33923 
33929 
33956 
33914 
33890 
33860 
33881 
33898 
33859 
33887 
33928 
33883 
33835 
33839 
33890 
33919 
33864 
33819 
33862 
33925 
33923 
33906 
33919 
33918 
33910 
33953 
33953 
34008 
33998 
33915 
33941 
34020 
34052 
34042 
33985 
33971 
33976 
33913 
33844 
33869 
33876 
33837 
33814 
33880 
33897 
33825 
33786 
33837 
33871 
33823 
33822 
33807 
33812 
33775 
33762 
33783 
33862 
33990 
34070 
34276 
34600 
34705 
34657 
34572 
34402 
34113 
33729 
33516 
33598 
33673 
33703 
33806 
33869 
33889 
33869 
33810 
33827 
33863 
33855 
33865 
33868 
33911 
33855 
33862 
33942 
33958 
33890 
33862 
33851 
33971 
34006 
33965 
33998 
33991 
33970 
33955 
33968 
34052 
34048 
34032 
34029 
34034 
34050 
34036 
34063 
34160 
34125 
34069 
34111 
34206 
34251 
34175 
34175 
34299 
34367 
34342 
34284 
34361 
34351 
34347 
34369 
34365 
34359 
34322 
34295 
34245 
34208 
34192 
34149 
34108 
34082 
34024 
33949 
33917 
33951 
33893 
33849 
33872 
33871 
33889 
33863 
33876 
33849 
33858 
33855 
33850 
33885 
33914 
33898 
33843 
33841 
33868 
33848 
33800 
33813 
33853 
33883 
33812 
33784 
33824 
33849 
33844 
33878 
33883 
33860 
33844 
33849 
33833 
33872 
33903 
33819 
33821 
33825 
33791 
33782 
33803 
33838 
33844 
33854 
33870 
33837 
33811 
33824 
33827 
33862 
33869 
33841 
33848 
33824 
33887 
33875 
33838 
33867 
33876 
33882 
33953 
33988 
33890 
33883 
33892 
33940 
33977 
33948 
33921 
33931 
33919 
33844 
33846 
33860 
33837 
33764 
33716 
33812 
33862 
33807 
33802 
33824 
33845 
33836 
33736 
33755 
33792 
33753 
33708 
33773 
33952 
34117 
34286 
34467 
34606 
34670 
34568 
34432 
34051 
33635 
33498 
33599 
33626 
33712 
33764 
33791 
33818 
33835 
33825 
33798 
33799 
33860 
33863 
33809 
33863 
33859 
33880 
33865 
33906 
33886 
33925 
33894 
33874 
33865 
33932 
33901 
33876 
33929 
33931 
33925 
33957 
33929 
33996 
34015 
33994 
33997 
34041 
34035 
34019 
34087 
34098 
34108 
34090 
34120 
34202 
34294 
34266 
34238 
34255 
34280 
34279 
34300 
34374 
34389 
34357 
34321 
34320 
34285 
34243 
34244 
34209 
34190 
34147 
34067 
34085 
34080 
34041 
33956 
33928 
33917 
33884 
33866 
33882 
33867 
33907 
33865 
33846 
33847 
33833 
33799 
33821 
33844 
33928 
33915 
33840 
33859 
33855 
33865 
33883 
33833 
33870 
33910 
33858 
33836 
33862 
33878 
33810 
33830 
33922 
33917 
33863 
33848 
33875 
33920 
33923 
33889 
33914 
33945 
33925 
33912 
33909 
33938 
33892 
33897 
33857 
33870 
33970 
33957 
33879 
33879 
33895 
33875 
33885 
33924 
34014 
33961 
33949 
33956 
33983 
33955 
33955 
33979 
34020 
34005 
33943 
33973 
34082 
34086 
34003 
33984 
34010 
34054 
34023 
33980 
33974 
33982 
33937 
33914 
33928 
33954 
33932 
33903 
33914 
33952 
33931 
33888 
33898 
33922 
33915 
33818 
33837 
33877 
33956 
34069 
34292 
34580 
34785 
34772 
34694 
34653 
34462 
33972 
33654 
33660 
33764 
33793 
33841 
33879 
33950 
33939 
33926 
33964 
34002 
33996 
33975 
33992 
34041 
34060 
34040 
34058 
34047 
34082 
34010 
34028 
34115 
34124 
34097 
34078 
34092 
34144 
34100 
34067 
34133 
34177 
34173 
34140 
34191 
34245 
34200 
34212 
34254 
34259 
34283 
34250 
34276 
34384 
34431 
34372 
34379 
34412 
34412 
34449 
34467 
34508 
34601 
34557 
34489 
34471 
34544 
34504 
34471 
34443 
34413 
34369 
34323 
34285 
34240 
34231 
34189 
34128 
34127 
34146 
34123 
34041 
34078 
34064 
34056 
34024 
34055 
34077 
34043 
34025 
34057 
34067 
34012 
34012 
34036 
34081 
34078 
34033 
33990 
34048 
34069 
34016 
34058 
34111 
34119 
34029 
34004 
34021 
34046 
34013 
34017 
34025 
34108 
34025 
33996 
34033 
34091 
34075 
34012 
34014 
34068 
34086 
34073 
34050 
34066 
34067 
34057 
34026 
34054 
34085 
34014 
33998 
34043 
34103 
34080 
34108 
34095 
34049 
34050 
34091 
34121 
34175 
34122 
34074 
34115 
34183 
34210 
34116 
34119 
34192 
34165 
34060 
34077 
34101 
34079 
34036 
34001 
34043 
34071 
34000 
34025 
34030 
34051 
33996 
33993 
34005 
34000 
33977 
33953 
33956 
34015 
34140 
34251 
34444 
34706 
34837 
34841 
34791 
34664 
34354 
33915 
33708 
33750 
33843 
33883 
33924 
34000 
34096 
34108 
33999 
34019 
34078 
34062 
34054 
34082 
34053 
34004 
34011 
34092 
34142 
34140 
34076 
34046 
34063 
34137 
34141 
34121 
34101 
34126 
34113 
34123 
34125 
34162 
34195 
34162 
34187 
34223 
34212 
34172 
34218 
34296 
34315 
34302 
34265 
34307 
34351 
34401 
34405 
34395 
34444 
34412 
34431 
34445 
34475 
34460 
34463 
34457 
34485 
34414 
34339 
34356 
34357 
34295 
34236 
34223 
34180 
34171 
34105 
34045 
34013 
34030 
33969 
33976 
34029 
34025 
33927 
33944 
33967 
33983 
33963 
33923 
33958 
33946 
33951 
33943 
33943 
33972 
33983 
33914 
33889 
33945 
33949 
33902 
33908 
33932 
33935 
33910 
33877 
33928 
33941 
33887 
33897 
33912 
33950 
33916 
33895 
33898 
33944 
33913 
33862 
33900 
33871 
33879 
33854 
33869 
33855 
33891 
33867 
33837 
33862 
33861 
33810 
33798 
33874 
33932 
33832 
33794 
33855 
33860 
33845 
33838 
33842 
33821 
33790 
33788 
33866 
33900 
33905 
33914 
33902 
33883 
33915 
33890 
33879 
33928 
33946 
33875 
33893 
33871 
33884 
33805 
33751 
33796 
33812 
33759 
33729 
33729 
33751 
33694 
33689 
33697 
33737 
33761 
33700 
33678 
33695 
33668 
33586 
33614 
33782 
33926 
34069 
34260 
34394 
34503 
34510 
34455 
34107 
33692 
33439 
33355 
33456 
33543 
33552 
33639 
33684 
33698 
33679 
33611 
33590 
33612 
33667 
33689 
33687 
33682 
33671 
33668 
33640 
33667 
33710 
33688 
33690 
33692 
33727 
33702 
33671 
33669 
33673 
33692 
33730 
33713 
33729 
33732 
33698 
33738 
33777 
33839 
33777 
33755 
33806 
33810 
33789 
33836 
33907 
33921 
33879 
33847 
33907 
33966 
33983 
33938 
33964 
34019 
33986 
33935 
33934 
33945 
33909 
33876 
33860 
33832 
33804 
33687 
33652 
33654 
33592 
33507 
33476 
33467 
33527 
33455 
33456 
33446 
33473 
33444 
33359 
33372 
33427 
33381 
33337 
33376 
33449 
33445 
33382 
33365 
33390 
33405 
33340 
33323 
33366 
33419 
33370 
33333 
33275 
33322 
33326 
33306 
33295 
33339 
33320 
33269 
33256 
33339 
33355 
33273 
33287 
33302 
33313 
33280 
33248 
33304 
33288 
33198 
33226 
33318 
33279 
33230 
33229 
33197 
33219 
33258 
33212 
33199 
33255 
33296 
33224 
33181 
33184 
33179 
33127 
33134 
33181 
33227 
33210 
33236 
33242 
33222 
33142 
33186 
33252 
33252 
33227 
33224 
33252 
33254 
33232 
33231 
33233 
33303 
33253 
33172 
33215 
33214 
33142 
33073 
33068 
33102 
33126 
33071 
33080 
33085 
33074 
33039 
33036 
33014 
33043 
33063 
33056 
33065 
33000 
32950 
32952 
33079 
33243 
33496 
33682 
33806 
33841 
33809 
33617 
33277 
32941 
32795 
32748 
32789 
32894 
32945 
32985 
33011 
33010 
32994 
32967 
32990 
32960 
32970 
32994 
33025 
32984 
33000 
33047 
33014 
33028 
33072 
33034 
32986 
33030 
33057 
33012 
33006 
33051 
33021 
33072 
33046 
33058 
33061 
33103 
33067 
33049 
33115 
33194 
33160 
33121 
33126 
33145 
33200 
33207 
33201 
33220 
33281 
33259 
33288 
33303 
33310 
33288 
33298 
33391 
33330 
33274 
33235 
33286 
33297 
33240 
33167 
33139 
33149 
33067 
32964 
32982 
32926 
32892 
32845 
32812 
32868 
32849 
32761 
32744 
32768 
32825 
32772 
32791 
32773 
32773 
32726 
32693 
32701 
32760 
32727 
32697 
32733 
32783 
32748 
32662 
32696 
32726 
32679 
32664 
32697 
32715 
32721 
32690 
32719 
32711 
32659 
32654 
32638 
32641 
32671 
32682 
32703 
32670 
32662 
32657 
32614 
32634 
32712 
32650 
32610 
32572 
32603 
32669 
32655 
32605 
32613 
32634 
32588 
32595 
32596 
32608 
32581 
32565 
32563 
32623 
32608 
32577 
32561 
32565 
32614 
32568 
32602 
32649 
32592 
32572 
32677 
32639 
32650 
32649 
32673 
32688 
32673 
32574 
32588 
32628 
32640 
32565 
32591 
32546 
32581 
32518 
32465 
32476 
32526 
32496 
32469 
32475 
32482 
32486 
32445 
32499 
32424 
32412 
32397 
32493 
32572 
32698 
32856 
33039 
33224 
33305 
33238 
33164 
32963 
32501 
32174 
32178 
32240 
32331 
32370 
32381 
32404 
32479 
32491 
32448 
32464 
32503 
32500 
32440 
32477 
32515 
32530 
32499 
32460 
32452 
32488 
32506 
32524 
32517 
32566 
32524 
32440 
32484 
32555 
32579 
32574 
32565 
32573 
32549 
32539 
32547 
32599 
32609 
32600 
32607 
32657 
32619 
32606 
32741 
32790 
32752 
32736 
32759 
32769 
32853 
32831 
32779 
32821 
32912 
32905 
32820 
32831 
32821 
32742 
32726 
32695 
32673 
32674 
32578 
32549 
32567 
32538 
32472 
32403 
32380 
32378 
32367 
32362 
32380 
32357 
32316 
32288 
32315 
32271 
32280 
32318 
32328 
32383 
32311 
32233 
32238 
32275 
32294 
32260 
32279 
32298 
32262 
32296 
32282 
32283 
32288 
32253 
32259 
32273 
32287 
32245 
32237 
32244 
32242 
32188 
32209 
32231 
32295 
32233 
32219 
32222 
32229 
32229 
32224 
32266 
32273 
32238 
32212 
32213 
32212 
32246 
32185 
32174 
32184 
32203 
32162 
32151 
32205 
32302 
32237 
32210 
32240 
32298 
32292 
32259 
32228 
32272 
32313 
32284 
32227 
32245 
32289 
32235 
32281 
32272 
32263 
32217 
32160 
32133 
32125 
32113 
32103 
32140 
32182 
32118 
32133 
32161 
32132 
32109 
32113 
32161 
32160 
32073 
32013 
32048 
32152 
32278 
32411 
32616 
32791 
32908 
32920 
32785 
32699 
32372 
31993 
31811 
31869 
31960 
31994 
32085 
32149 
32156 
32139 
32103 
32067 
32130 
32164 
32135 
32130 
32168 
32174 
32168 
32159 
32251 
32256 
32208 
32164 
32266 
32208 
32201 
32211 
32199 
32226 
32237 
32259 
32265 
32285 
32243 
32256 
32330 
32359 
32329 
32335 
32345 
32409 
32447 
32418 
32444 
32501 
32493 
32477 
32476 
32516 
32580 
32542 
32587 
32620 
32596 
32583 
32577 
32580 
32552 
32507 
32473 
32440 
32434 
32319 
32293 
32264 
32256 
32215 
32198 
32199 
32207 
32156 
32129 
32114 
32102 
32096 
32085 
32074 
32111 
32117 
32084 
32089 
32085 
32097 
32045 
32028 
32057 
32088 
32083 
32104 
32122 
32109 
32062 
32061 
32128 
32125 
32076 
32065 
32094 
32114 
32110 
32067 
32072 
32100 
32064 
32038 
32041 
32052 
32065 
32064 
32036 
32058 
32133 
32051 
32026 
32021 
32073 
32044 
32045 
32061 
32091 
32058 
32022 
32027 
32110 
32040 
31962 
32013 
32060 
32035 
32045 
32050 
32026 
32077 
32035 
32040 
32095 
32128 
32117 
32102 
32099 
32117 
32081 
32121 
32145 
32145 
32137 
32147 
32165 
32195 
32155 
32106 
32077 
32100 
32052 
31992 
32031 
32072 
32078 
32030 
31987 
31996 
32000 
31991 
31943 
31965 
31980 
31977 
31993 
31984 
32003 
31944 
32058 
32226 
32402 
32611 
32734 
32768 
32806 
32714 
32428 
32004 
31790 
31774 
31781 
31872 
31973 
32016 
32026 
32006 
32014 
32085 
32061 
32033 
32030 
32047 
32016 
32046 
32071 
32087 
32084 
32061 
32069 
32104 
32098 
32048 
32044 
32124 
32132 
32094 
32100 
32164 
32175 
32134 
32172 
32215 
32249 
32210 
32219 
32200 
32190 
32197 
32277 
32310 
32292 
32308 
32333 
32332 
32417 
32405 
32398 
32408 
32459 
32520 
32471 
32461 
32486 
32508 
32480 
32468 
32450 
32441 
32342 
32306 
32275 
32275 
32193 
32159 
32136 
32137 
32092 
32076 
32068 
32075 
32038 
31970 
31973 
32072 
32070 
31995 
32032 
32054 
32031 
31964 
31962 
32017 
32041 
31957 
31960 
31971 
31995 
32027 
32023 
32002 
32042 
32027 
31969 
32001 
32006 
31975 
31980 
31988 
32018 
32048 
31986 
31951 
31993 
31995 
31998 
31930 
31971 
32010 
32001 
32002 
32009 
31999 
31967 
31939 
31954 
32015 
32026 
31989 
32004 
31977 
32025 
31990 
31958 
31953 
31978 
31969 
31981 
32023 
32018 
31901 
31931 
32033 
32072 
31990 
31983 
32026 
32012 
31950 
31967 
32042 
32131 
32105 
32023 
32026 
32076 
32137 
32066 
32074 
32098 
32106 
32087 
32038 
32037 
32062 
32036 
31998 
32001 
31984 
31938 
31935 
32006 
32047 
31968 
31924 
31918 
31958 
31964 
31927 
31970 
31974 
31960 
31931 
31974 
32156 
32392 
32540 
32686 
32798 
32817 
32682 
32442 
32052 
31820 
31705 
31718 
31800 
31907 
31979 
32005 
31997 
32056 
32032 
31980 
31973 
32029 
31996 
31978 
32028 
32065 
32092 
32088 
32071 
32078 
32079 
32016 
32027 
32059 
32136 
32104 
32145 
32143 
32159 
32121 
32100 
32112 
32162 
32175 
32171 
32184 
32228 
32245 
32235 
32250 
32310 
32356 
32279 
32285 
32332 
32447 
32440 
32431 
32455 
32477 
32495 
32515 
32540 
32543 
32498 
32491 
32491 
32492 
32461 
32391 
32365 
32336 
32307 
32245 
32202 
32203 
32191 
32142 
32074 
32017 
32052 
32026 
32024 
32024 
32006 
32029 
32040 
32089 
32093 
32014 
32021 
32056 
32077 
32057 
32006 
32010 
32019 
32043 
32030 
32038 
32020 
32012 
32034 
32001 
32030 
32020 
32004 
32006 
32051 
32138 
32079 
32037 
32028 
32051 
32059 
32000 
32031 
32037 
32074 
32007 
31999 
32042 
32085 
32045 
32074 
32086 
32055 
32015 
32015 
32068 
32097 
32015 
32016 
32008 
32058 
32073 
32034 
32034 
32061 
32083 
32082 
32069 
32084 
32104 
32100 
32076 
32125 
32149 
32151 
32153 
32143 
32157 
32173 
32127 
32125 
32166 
32129 
32067 
32084 
32083 
32044 
32009 
32019 
32094 
32088 
32009 
32015 
32020 
31984 
31989 
32007 
32040 
32015 
31924 
31924 
32044 
32098 
32209 
32427 
32656 
32820 
32837 
32782 
32725 
32470 
32060 
31812 
31767 
31877 
31866 
31898 
32013 
32052 
32068 
32043 
32044 
32104 
32126 
32056 
32087 
32123 
32125 
32088 
32136 
32166 
32173 
32129 
32130 
32152 
32174 
32189 
32143 
32150 
32236 
32247 
32184 
32177 
32261 
32260 
32234 
32260 
32290 
32279 
32274 
32326 
32345 
32338 
32343 
32355 
32432 
32465 
32471 
32471 
32525 
32563 
32581 
32559 
32547 
32600 
32610 
32562 
32566 
32606 
32593 
32540 
32472 
32438 
32432 
32390 
32372 
32342 
32273 
32174 
32213 
32264 
32260 
32224 
32162 
32140 
32158 
32173 
32137 
32151 
32167 
32130 
32063 
32094 
32141 
32163 
32098 
32090 
32134 
32171 
32076 
32048 
32148 
32167 
32128 
32113 
32129 
32196 
32176 
32141 
32135 
32128 
32142 
32096 
32129 
32172 
32129 
32114 
32131 
32145 
32160 
32107 
32115 
32168 
32141 
32112 
32135 
32206 
32193 
32130 
32122 
32104 
32163 
32161 
32110 
32156 
32196 
32170 
32145 
32136 
32190 
32189 
32122 
32125 
32216 
32230 
32192 
32208 
32189 
32212 
32195 
32240 
32267 
32291 
32293 
32261 
32262 
32295 
32257 
32221 
32192 
32202 
32206 
32153 
32099 
32135 
32130 
32132 
32144 
32161 
32146 
32138 
32136 
32166 
32147 
32086 
32116 
32150 
32108 
32080 
32234 
32360 
32530 
32707 
32835 
32925 
32966 
32854 
32651 
32300 
32011 
31914 
31949 
32072 
32157 
32171 
32125 
32183 
32222 
32226 
32172 
32207 
32222 
32250 
32250 
32220 
32215 
32238 
32242 
32259 
32265 
32249 
32278 
32236 
32280 
32368 
32360 
32281 
32271 
32342 
32353 
32304 
32341 
32382 
32439 
32370 
32398 
32445 
32464 
32458 
32469 
32546 
32586 
32519 
32555 
32568 
32633 
32652 
32610 
32637 
32670 
32713 
32730 
32703 
32742 
32757 
32705 
32696 
32732 
32703 
32617 
32559 
32559 
32543 
32494 
32387 
32411 
32474 
32371 
32281 
32253 
32284 
32258 
32301 
32345 
32325 
32262 
32216 
32264 
32284 
32274 
32280 
32286 
32258 
32259 
32212 
32254 
32244 
32272 
32248 
32264 
32280 
32277 
32222 
32227 
32296 
32330 
32296 
32271 
32303 
32325 
32277 
32254 
32281 
32317 
32336 
32266 
32256 
32251 
32284 
32264 
32289 
32309 
32325 
32258 
32258 
32320 
32343 
32300 
32247 
32256 
32300 
32339 
32242 
32273 
32334 
32339 
32270 
32304 
32336 
32350 
32343 
32383 
32391 
32437 
32408 
32371 
32410 
32434 
32404 
32400 
32436 
32480 
32434 
32409 
32390 
32417 
32415 
32301 
32292 
32317 
32348 
32309 
32317 
32302 
32330 
32288 
32285 
32320 
32316 
32256 
32302 
32336 
32321 
32293 
32352 
32498 
32721 
32872 
33025 
33144 
33211 
33114 
32826 
32454 
32142 
32077 
32110 
32168 
32265 
32364 
32371 
32357 
32340 
32378 
32387 
32368 
32426 
32437 
32403 
32409 
32422 
32425 
32410 
32440 
32466 
32486 
32459 
32477 
32513 
32487 
32486 
32442 
32467 
32494 
32516 
32533 
32571 
32583 
32552 
32582 
32582 
32625 
32683 
32624 
32644 
32704 
32722 
32683 
32689 
32745 
32837 
32864 
32802 
32840 
32895 
32854 
32858 
32900 
32927 
32952 
32899 
32919 
32889 
32858 
32837 
32803 
32747 
32732 
32647 
32625 
32599 
32586 
32543 
32505 
32527 
32530 
32482 
32446 
32441 
32450 
32448 
32384 
32456 
32503 
32487 
32457 
32445 
32472 
32477 
32445 
32460 
32425 
32458 
32456 
32444 
32455 
32504 
32468 
32459 
32473 
32513 
32476 
32409 
32434 
32482 
32493 
32485 
32458 
32501 
32495 
32431 
32411 
32444 
32457 
32453 
32482 
32505 
32527 
32454 
32497 
32498 
32501 
32474 
32473 
32445 
32479 
32511 
32488 
32460 
32458 
32487 
32453 
32432 
32490 
32536 
32511 
32519 
32582 
32610 
32564 
32572 
32595 
32572 
32555 
32558 
32588 
32636 
32623 
32640 
32677 
32629 
32578 
32520 
32505 
32510 
32537 
32434 
32407 
32467 
32531 
32534 
32520 
32516 
32526 
32495 
32462 
32462 
32442 
32429 
32466 
32513 
32640 
32846 
33001 
33187 
33322 
33325 
33277 
33120 
32727 
32339 
32211 
32297 
32370 
32437 
32385 
32448 
32544 
32573 
32491 
32500 
32543 
32535 
32534 
32522 
32611 
32634 
32579 
32527 
32580 
32676 
32650 
32608 
32632 
32618 
32630 
32636 
32637 
32638 
32683 
32664 
32701 
32704 
32726 
32698 
32674 
32717 
32780 
32782 
32746 
32773 
32848 
32888 
32856 
32901 
32917 
32914 
32933 
32939 
32976 
33058 
33047 
33011 
33073 
33125 
33051 
33001 
33016 
33001 
32991 
32976 
32937 
32896 
32855 
32809 
32795 
32783 
32685 
32634 
32666 
32660 
32605 
32574 
32539 
32557 
32624 
32610 
32576 
32592 
32603 
32538 
32541 
32557 
32622 
32576 
32574 
32586 
32574 
32552 
32543 
32540 
32591 
32581 
32520 
32556 
32589 
32592 
32568 
32551 
32595 
32586 
32519 
32536 
32609 
32618 
32553 
32521 
32509 
32578 
32567 
32565 
32601 
32589 
32544 
32505 
32552 
32621 
32598 
32560 
32601 
32614 
32621 
32601 
32612 
32639 
32607 
32549 
32588 
32660 
32702 
32636 
32595 
32625 
32685 
32656 
32636 
32684 
32709 
32666 
32653 
32673 
32676 
32605 
32527 
32513 
32534 
32559 
32543 
32545 
32548 
32547 
32546 
32575 
32532 
32550 
32526 
32501 
32481 
32512 
32553 
32676 
32885 
33133 
33280 
33295 
33306 
33313 
33067 
32638 
32331 
32296 
32321 
32316 
32364 
32516 
32595 
32586 
32598 
32583 
32576 
32547 
32520 
32581 
32637 
32626 
32589 
32576 
32630 
32611 
32631 
32640 
32700 
32636 
32588 
32576 
32674 
32755 
32707 
32698 
32730 
32702 
32677 
32708 
32738 
32745 
32756 
32798 
32786 
32815 
32849 
32823 
32842 
32848 
32878 
32877 
32921 
33035 
33052 
32997 
32996 
33026 
33043 
33031 
33065 
33094 
33078 
32971 
32945 
32961 
32988 
32916 
32828 
32808 
32784 
32714 
32672 
32656 
32658 
32612 
32609 
32615 
32606 
32535 
32583 
32628 
32622 
32601 
32520 
32496 
32555 
32678 
32595 
32567 
32574 
32573 
32540 
32555 
32555 
32567 
32558 
32547 
32546 
32501 
32522 
32592 
32596 
32568 
32573 
32572 
32551 
32590 
32559 
32544 
32546 
32563 
32569 
32542 
32553 
32510 
32544 
32519 
32453 
32537 
32592 
32561 
32542 
32534 
32579 
32597 
32538 
32497 
32548 
32568 
32528 
32505 
32546 
32538 
32528 
32539 
32517 
32547 
32519 
32525 
32581 
32598 
32638 
32655 
32667 
32629 
32599 
32548 
32602 
32680 
32660 
32632 
32611 
32616 
32580 
32512 
32533 
32571 
32514 
32453 
32482 
32529 
32533 
32462 
32438 
32453 
32541 
32525 
32464 
32474 
32499 
32413 
32368 
32449 
32592 
32747 
32914 
33126 
33239 
33256 
33233 
33145 
32867 
32497 
32245 
32214 
32349 
32420 
32473 
32495 
32508 
32528 
32511 
32487 
32516 
32551 
32502 
32472 
32511 
32602 
32613 
32540 
32558 
32616 
32569 
32511 
32589 
32627 
32611 
32599 
32590 
32616 
32701 
32653 
32608 
32622 
32675 
32663 
32633 
32681 
32754 
32686 
32677 
32797 
32852 
32762 
32754 
32810 
32814 
32813 
32880 
32969 
32969 
32959 
32927 
32932 
32952 
32996 
32976 
32929 
32939 
32960 
32915 
32866 
32887 
32877 
32822 
32706 
32679 
32746 
32684 
32601 
32601 
32572 
32539 
32525 
32556 
32544 
32503 
32441 
32515 
32550 
32508 
32467 
32481 
32439 
32476 
32506 
32515 
32551 
32582 
32509 
32478 
32497 
32486 
32499 
32491 
32486 
32476 
32522 
32503 
32491 
32387 
32452 
32479 
32504 
32475 
32471 
32489 
32463 
32454 
32488 
32458 
32425 
32463 
32503 
32481 
32468 
32496 
32461 
32429 
32446 
32453 
32452 
32444 
32481 
32436 
32439 
32447 
32426 
32441 
32492 
32519 
32461 
32419 
32462 
32484 
32486 
32459 
32475 
32520 
32505 
32490 
32474 
32510 
32542 
32547 
32533 
32502 
32544 
32626 
32602 
32568 
32598 
32548 
32507 
32568 
32535 
32464 
32468 
32464 
32458 
32437 
32417 
32475 
32438 
32388 
32377 
32406 
32435 
32414 
32398 
32426 
32416 
32398 
32421 
32539 
32733 
32959 
33104 
33184 
33242 
33204 
33082 
32783 
32389 
32253 
32201 
32274 
32373 
32469 
32481 
32480 
32503 
32511 
32466 
32462 
32464 
32516 
32522 
32505 
32493 
32525 
32514 
32482 
32509 
32560 
32580 
32516 
32551 
32599 
32655 
32578 
32589 
32600 
32601 
32580 
32590 
32629 
32679 
32677 
32651 
32680 
32704 
32734 
32720 
32753 
32774 
32777 
32750 
32824 
32876 
32868 
32832 
32895 
32924 
32921 
32888 
32923 
32979 
32959 
32962 
32941 
32981 
32934 
32877 
32782 
32762 
32711 
32717 
32672 
32627 
32599 
32597 
32559 
32559 
32534 
32523 
32485 
32462 
32514 
32506 
32461 
32491 
32492 
32526 
32453 
32437 
32449 
32479 
32509 
32444 
32435 
32496 
32477 
32437 
32460 
32462 
32429 
32431 
32466 
32523 
32545 
32470 
32448 
32491 
32487 
32462 
32494 
32499 
32526 
32511 
32452 
32447 
32517 
32491 
32460 
32435 
32463 
32477 
32420 
32409 
32458 
32529 
32493 
32452 
32487 
32502 
32456 
32458 
32468 
32514 
32509 
32470 
32481 
32492 
32489 
32478 
32509 
32563 
32625 
32541 
32489 
32579 
32569 
32549 
32576 
32605 
32646 
32594 
32562 
32533 
32526 
32476 
32459 
32472 
32511 
32456 
32401 
32425 
32452 
32445 
32470 
32452 
32407 
32428 
32469 
32460 
32423 
32394 
32372 
32391 
32640 
32840 
32993 
33133 
33238 
33249 
33136 
32966 
32621 
32268 
32143 
32195 
32265 
32340 
32384 
32411 
32473 
32539 
32570 
32503 
32450 
32498 
32505 
32480 
32426 
32483 
32530 
32477 
32479 
32567 
32571 
32524 
32510 
32536 
32618 
32593 
32576 
32588 
32561 
32589 
32617 
32670 
32703 
32677 
32639 
32651 
32690 
32769 
32701 
32750 
32744 
32762 
32754 
32787 
32820 
32884 
32875 
32854 
32891 
32959 
32951 
32902 
32946 
33007 
32946 
32911 
32920 
32957 
32939 
32904 
32851 
32785 
32815 
32694 
32596 
32581 
32564 
32480 
32495 
32597 
32580 
32463 
32476 
32509 
32538 
32523 
32486 
32437 
32473 
32488 
32483 
32453 
32491 
32469 
32466 
32441 
32430 
32421 
32371 
32408 
32498 
32502 
32448 
32437 
32403 
32422 
32418 
32442 
32453 
32499 
32502 
32490 
32497 
32477 
32476 
32409 
32424 
32479 
32446 
32394 
32413 
32425 
32447 
32389 
32338 
32426 
32508 
32499 
32466 
32456 
32498 
32419 
32426 
32472 
32489 
32491 
32481 
32475 
32463 
32483 
32445 
32460 
32541 
32533 
32527 
32563 
32560 
32551 
32506 
32516 
32569 
32515 
32524 
32449 
32430 
32441 
32409 
32396 
32416 
32435 
32380 
32351 
32386 
32413 
32401 
32387 
32381 
32400 
32398 
32319 
32265 
32410 
32659 
32782 
32863 
33059 
33206 
33218 
33160 
33025 
32655 
32237 
32098 
32206 
32232 
32290 
32355 
32421 
32438 
32400 
32387 
32374 
32462 
32491 
32424 
32420 
32483 
32494 
32442 
32471 
32515 
32511 
32464 
32432 
32469 
32485 
32487 
32538 
32544 
32550 
32559 
32490 
32492 
32593 
32632 
32572 
32570 
32613 
32643 
32636 
32629 
32645 
32647 
32637 
32672 
32729 
32791 
32792 
32825 
32825 
32854 
32856 
32848 
32906 
32908 
32939 
32903 
32853 
32861 
32841 
32794 
32787 
32799 
32705 
32609 
32564 
32593 
32548 
32492 
32502 
32471 
32443 
32432 
32434 
32465 
32431 
32359 
32367 
32428 
32455 
32413 
32376 
32378 
32417 
32442 
32397 
32383 
32408 
32450 
32369 
32357 
32399 
32399 
32369 
32407 
32395 
32414 
32378 
32380 
32384 
32365 
32322 
32344 
32424 
32425 
32356 
32337 
32361 
32374 
32407 
32373 
32374 
32397 
32385 
32366 
32367 
32339 
32365 
32363 
32373 
32428 
32400 
32329 
32370 
32345 
32371 
32347 
32344 
32328 
32367 
32317 
32316 
32372 
32425 
32475 
32429 
32451 
32484 
32437 
32426 
32486 
32485 
32483 
32446 
32477 
32460 
32493 
32456 
32473 
32449 
32437 
32380 
32306 
32303 
32365 
32355 
32347 
32330 
32355 
32357 
32292 
32305 
32305 
32288 
32277 
32248 
32267 
32288 
32305 
32420 
32545 
32750 
32902 
33041 
33157 
33183 
33083 
32774 
32353 
32147 
32077 
32078 
32191 
32292 
32299 
32311 
32332 
32383 
32361 
32329 
32350 
32390 
32373 
32340 
32329 
32384 
32412 
32373 
32391 
32416 
32435 
32411 
32435 
32450 
32490 
32438 
32407 
32411 
32501 
32433 
32413 
32469 
32490 
32519 
32538 
32541 
32516 
32561 
32550 
32581 
32605 
32628 
32613 
32599 
32706 
32766 
32723 
32701 
32724 
32813 
32812 
32766 
32809 
32872 
32857 
32852 
32793 
32741 
32706 
32628 
32624 
32668 
32601 
32489 
32430 
32458 
32500 
32441 
32359 
32362 
32404 
32363 
32322 
32343 
32364 
32309 
32241 
32258 
32266 
32345 
32328 
32297 
32329 
32316 
32311 
32331 
32320 
32321 
32288 
32318 
32355 
32381 
32320 
32274 
32269 
32339 
32327 
32293 
32318 
32313 
32272 
32278 
32306 
32331 
32324 
32305 
32290 
32294 
32341 
32288 
32277 
32340 
32366 
32290 
32309 
32348 
32321 
32293 
32282 
32304 
32321 
32260 
32257 
32299 
32322 
32306 
32301 
32352 
32345 
32302 
32268 
32291 
32334 
32370 
32312 
32314 
32357 
32404 
32350 
32329 
32366 
32376 
32391 
32395 
32408 
32401 
32355 
32381 
32425 
32411 
32362 
32325 
32312 
32319 
32304 
32268 
32286 
32299 
32309 
32249 
32184 
32251 
32274 
32244 
32231 
32211 
32295 
32229 
32158 
32225 
32391 
32582 
32751 
32926 
33094 
33101 
33006 
32873 
32598 
32189 
31926 
31966 
32071 
32157 
32175 
32221 
32275 
32289 
32270 
32239 
32285 
32311 
32292 
32349 
32326 
32345 
32289 
32305 
32369 
32368 
32352 
32350 
32355 
32389 
32371 
32355 
32368 
32414 
32428 
32353 
32375 
32451 
32472 
32458 
32455 
32503 
32467 
32458 
32517 
32553 
32618 
32593 
32544 
32641 
32653 
32612 
32621 
32684 
32787 
32798 
32745 
32761 
32806 
32818 
32765 
32751 
32800 
32816 
32721 
32678 
32669 
32653 
32579 
32492 
32476 
32541 
32473 
32366 
32353 
32345 
32336 
32292 
32307 
32389 
32431 
32322 
32308 
32288 
32309 
32236 
32249 
32332 
32337 
32292 
32276 
32275 
32314 
32307 
32266 
32288 
32300 
32284 
32260 
32298 
32348 
32323 
32274 
32287 
32306 
32306 
32264 
32276 
32320 
32377 
32313 
32276 
32312 
32334 
32309 
32343 
32307 
32343 
32304 
32286 
32243 
32292 
32311 
32281 
32250 
32300 
32315 
32261 
32261 
32328 
32326 
32205 
32217 
32323 
32417 
32382 
32370 
32425 
32422 
32372 
32371 
32389 
32426 
32415 
32409 
32419 
32450 
32406 
32390 
32393 
32373 
32355 
32279 
32204 
32227 
32280 
32278 
32268 
32321 
32311 
32254 
32245 
32255 
32306 
32266 
32258 
32315 
32310 
32224 
32198 
32281 
32430 
32603 
32773 
32957 
33093 
33107 
32961 
32790 
32440 
32065 
31952 
32001 
32090 
32189 
32177 
32210 
32248 
32293 
32280 
32351 
32349 
32316 
32302 
32280 
32336 
32399 
32361 
32318 
32319 
32319 
32395 
32379 
32384 
32418 
32413 
32342 
32379 
32434 
32452 
32404 
32407 
32446 
32456 
32494 
32456 
32499 
32520 
32465 
32473 
32516 
32591 
32620 
32564 
32606 
32698 
32697 
32671 
32715 
32741 
32766 
32729 
32737 
32819 
32832 
32774 
32729 
32737 
32789 
32716 
32663 
32644 
32605 
32574 
32489 
32402 
32448 
32417 
32373 
32363 
32343 
32343 
32365 
32318 
32294 
32239 
32267 
32264 
32281 
32324 
32251 
32218 
32287 
32349 
32284 
32247 
32298 
32277 
32234 
32234 
32267 
32308 
32268 
32213 
32226 
32275 
32235 
32195 
32289 
32319 
32276 
32243 
32223 
32284 
32319 
32256 
32250 
32295 
32308 
32268 
32265 
32256 
32320 
32301 
32241 
32246 
32262 
32214 
32218 
32269 
32256 
32291 
32230 
32201 
32212 
32233 
32214 
32239 
32268 
32255 
32273 
32292 
32313 
32354 
32331 
32295 
32368 
32391 
32332 
32306 
32339 
32357 
32374 
32331 
32295 
32296 
32301 
32246 
32186 
32219 
32198 
32217 
32243 
32263 
32278 
32194 
32205 
32223 
32237 
32164 
32171 
32203 
32182 
32128 
32092 
32134 
32256 
32384 
32535 
32811 
33014 
33088 
32986 
32814 
32615 
32318 
32032 
31951 
32022 
32140 
32150 
32173 
32228 
32256 
32162 
32161 
32182 
32224 
32214 
32184 
32244 
32284 
32228 
32203 
32259 
32267 
32253 
32275 
32329 
32317 
32307 
32277 
32298 
32310 
32319 
32315 
32324 
32385 
32362 
32319 
32348 
32380 
32366 
32300 
32271 
32382 
32459 
32485 
32511 
32525 
32518 
32577 
32551 
32561 
32603 
32665 
32620 
32580 
32624 
32675 
32658 
32635 
32624 
32642 
32604 
32509 
32457 
32494 
32440 
32402 
32418 
32357 
32283 
32192 
32225 
32210 
32195 
32165 
32133 
32159 
32205 
32133 
32097 
32136 
32167 
32129 
32108 
32097 
32093 
32152 
32138 
32122 
32175 
32129 
32072 
32157 
32167 
32120 
32096 
32164 
32176 
32143 
32107 
32140 
32134 
32112 
32098 
32080 
32093 
32187 
32144 
32098 
32067 
32109 
32076 
32063 
32110 
32148 
32110 
32082 
32074 
32108 
32077 
32040 
32086 
32130 
32139 
32093 
32095 
32089 
32126 
32123 
32058 
32089 
32133 
32055 
32046 
32038 
32085 
32041 
32025 
32062 
32178 
32142 
32074 
32087 
32165 
32143 
32107 
32111 
32157 
32167 
32117 
32151 
32200 
32212 
32151 
32096 
32047 
32105 
32115 
32043 
32042 
32068 
32066 
32038 
32033 
32093 
32057 
31986 
31967 
32012 
31990 
32002 
32034 
31996 
31941 
31896 
31999 
32221 
32378 
32518 
32744 
32841 
32900 
32812 
32513 
32167 
31909 
31762 
31771 
31860 
31975 
32012 
32003 
32008 
32017 
32016 
32010 
32034 
32089 
32092 
32013 
32041 
32099 
32081 
32076 
32043 
32068 
32099 
32099 
32068 
32093 
32106 
32114 
32114 
32148 
32148 
32140 
32151 
32168 
32212 
32198 
32157 
32151 
32217 
32216 
32179 
32199 
32305 
32336 
32304 
32307 
32336 
32349 
32361 
32439 
32482 
32514 
32491 
32448 
32464 
32497 
32481 
32464 
32444 
32434 
32404 
32340 
32293 
32312 
32274 
32216 
32149 
32121 
32087 
32016 
31954 
31958 
32064 
32027 
31933 
31941 
32025 
32026 
31960 
31981 
31988 
31949 
31959 
31972 
31998 
31976 
31937 
31938 
31979 
31981 
31954 
31958 
31983 
31979 
31935 
31949 
31956 
31962 
31914 
31913 
32004 
31996 
31940 
31938 
31997 
32013 
31959 
31888 
31915 
31951 
31959 
31912 
31923 
31971 
32012 
31943 
31889 
31930 
31957 
31936 
31921 
31954 
31980 
31930 
31911 
31939 
31978 
31951 
31926 
31932 
31986 
31954 
31944 
31919 
31984 
31970 
31886 
31887 
31973 
31966 
31904 
31880 
31908 
31966 
31968 
31989 
32012 
31988 
31979 
31966 
31992 
32054 
32059 
32052 
32064 
32062 
32017 
32027 
32015 
32017 
31949 
31868 
31889 
31900 
31916 
31866 
31901 
31963 
31907 
31803 
31843 
31903 
31925 
31899 
31855 
31868 
31869 
31813 
31807 
31883 
32059 
32275 
32418 
32595 
32736 
32675 
32524 
32376 
32035 
31675 
31546 
31654 
31695 
31787 
31850 
31855 
31881 
31914 
31897 
31880 
31903 
31976 
31925 
31901 
31909 
31906 
31941 
31933 
31943 
31995 
32004 
31971 
31964 
31971 
32000 
31990 
32003 
32053 
32079 
32026 
32014 
32000 
32064 
32042 
31991 
32078 
32130 
32088 
32107 
32146 
32143 
32177 
32160 
32211 
32244 
32292 
32262 
32283 
32313 
32327 
32340 
32373 
32357 
32404 
32383 
32355 
32364 
32367 
32335 
32234 
32199 
32198 
32167 
32087 
32102 
32112 
32017 
31946 
31964 
31932 
31915 
31869 
31876 
31906 
31908 
31855 
31885 
31951 
31935 
31848 
31820 
31831 
31845 
31870 
31863 
31824 
31870 
31860 
31832 
31864 
31905 
31903 
31831 
31816 
31817 
31843 
31817 
31819 
31837 
31849 
31843 
31831 
31858 
31871 
31814 
31812 
31817 
31852 
31786 
31773 
31825 
31842 
31828 
31806 
31860 
31887 
31845 
31760 
31775 
31771 
31818 
31821 
31789 
31835 
31865 
31838 
31803 
31775 
31841 
31854 
31842 
31842 
31928 
31903 
31894 
31896 
31902 
31913 
31879 
31888 
31892 
31886 
31847 
31888 
31902 
31874 
31799 
31751 
31751 
31760 
31728 
31741 
31780 
31788 
31776 
31768 
31747 
31762 
31734 
31723 
31712 
31731 
31705 
31683 
31763 
31896 
32052 
32216 
32390 
32547 
32570 
32458 
32272 
32026 
31621 
31389 
31450 
31579 
31650 
31696 
31715 
31728 
31755 
31707 
31720 
31766 
31781 
31795 
31790 
31807 
31808 
31792 
31747 
31731 
31803 
31849 
31814 
31839 
31833 
31857 
31834 
31830 
31875 
31923 
31886 
31824 
31873 
31918 
31931 
31913 
31942 
31930 
31909 
31929 
31966 
32051 
32006 
31956 
32004 
32068 
32122 
32086 
32091 
32157 
32238 
32181 
32158 
32186 
32250 
32236 
32184 
32212 
32230 
32159 
32063 
32048 
32052 
31974 
31885 
31878 
31833 
31803 
31748 
31776 
31795 
31803 
31713 
31653 
31670 
31751 
31704 
31644 
31711 
31776 
31721 
31672 
31696 
31716 
31663 
31659 
31674 
31690 
31690 
31630 
31649 
31643 
31710 
31609 
31627 
31654 
31682 
31671 
31654 
31615 
31686 
31695 
31672 
31675 
31700 
31669 
31619 
31634 
31674 
31646 
31584 
31628 
31713 
31707 
31624 
31631 
31662 
31671 
31627 
31626 
31625 
31648 
31622 
31605 
31604 
31630 
31578 
31603 
31639 
31692 
31644 
31642 
31672 
31674 
31687 
31700 
31667 
31690 
31700 
31689 
31679 
31721 
31746 
31677 
31660 
31654 
31704 
31629 
31589 
31588 
31635 
31593 
31544 
31583 
31633 
31567 
31555 
31587 
31559 
31526 
31509 
31528 
31581 
31579 
31483 
31464 
31523 
31607 
31663 
31804 
32019 
32266 
32330 
32354 
32344 
32108 
31614 
31355 
31299 
31391 
31383 
31416 
31533 
31559 
31523 
31513 
31566 
31636 
31588 
31531 
31522 
31576 
31578 
31544 
31582 
31635 
31656 
31596 
31585 
31575 
31636 
31628 
31630 
31587 
31613 
31648 
31638 
31651 
31671 
31688 
31631 
31677 
31718 
31697 
31669 
31704 
31767 
31807 
31785 
31798 
31842 
31852 
31835 
31867 
31886 
31989 
31976 
31948 
31931 
31976 
31982 
31975 
31966 
31978 
31979 
31935 
31884 
31900 
31866 
31785 
31752 
31721 
31657 
31614 
31592 
31593 
31565 
31506 
31536 
31542 
31534 
31482 
31453 
31477 
31522 
31488 
31452 
31489 
31500 
31500 
31449 
31484 
31532 
31460 
31433 
31447 
31472 
31537 
31457 
31469 
31452 
31477 
31443 
31427 
31471 
31479 
31420 
31405 
31460 
31498 
31459 
31438 
31427 
31453 
31479 
31491 
31468 
31497 
31466 
31374 
31383 
31423 
31440 
31400 
31407 
31447 
31457 
31449 
31427 
31425 
31442 
31384 
31414 
31480 
31480 
31458 
31424 
31438 
31449 
31447 
31441 
31484 
31500 
31527 
31522 
31524 
31552 
31575 
31519 
31495 
31504 
31514 
31442 
31457 
31458 
31476 
31472 
31421 
31378 
31419 
31421 
31383 
31365 
31389 
31385 
31340 
31355 
31365 
31389 
31370 
31355 
31324 
31322 
31282 
31401 
31553 
31791 
32000 
32125 
32186 
32136 
32011 
31763 
31402 
31168 
31118 
31175 
31259 
31347 
31383 
31318 
31343 
31369 
31395 
31301 
31323 
31372 
31407 
31378 
31365 
31385 
31413 
31429 
31435 
31478 
31506 
31477 
31443 
31423 
31490 
31451 
31411 
31433 
31497 
31510 
31462 
31484 
31533 
31571 
31555 
31536 
31567 
31599 
31552 
31599 
31677 
31694 
31683 
31699 
31745 
31743 
31690 
31701 
31803 
31864 
31831 
31783 
31837 
31890 
31863 
31783 
31804 
31823 
31794 
31655 
31578 
31569 
31585 
31557 
31508 
31492 
31484 
31426 
31343 
31351 
31381 
31342 
31353 
31370 
31382 
31341 
31316 
31369 
31377 
31333 
31330 
31335 
31327 
31350 
31326 
31311 
31291 
31337 
31326 
31311 
31302 
31328 
31309 
31317 
31345 
31345 
31334 
31295 
31296 
31318 
31326 
31285 
31344 
31370 
31326 
31258 
31298 
31342 
31291 
31256 
31288 
31308 
31326 
31339 
31312 
31307 
31295 
31250 
31270 
31296 
31332 
31302 
31311 
31398 
31412 
31337 
31324 
31345 
31389 
31393 
31352 
31353 
31406 
31377 
31349 
31414 
31445 
31433 
31344 
31308 
31329 
31365 
31272 
31247 
31251 
31311 
31269 
31242 
31295 
31306 
31223 
31216 
31231 
31214 
31290 
31284 
31206 
31200 
31226 
31220 
31370 
31566 
31806 
31919 
32042 
32097 
32051 
31845 
31473 
31077 
31022 
31050 
31040 
31075 
31179 
31253 
31219 
31222 
31292 
31359 
31313 
31298 
31323 
31312 
31280 
31310 
31309 
31341 
31309 
31312 
31362 
31381 
31342 
31355 
31372 
31414 
31399 
31345 
31347 
31435 
31458 
31393 
31429 
31472 
31495 
31453 
31415 
31482 
31471 
31466 
31540 
31594 
31605 
31588 
31609 
31598 
31616 
31624 
31681 
31745 
31769 
31792 
31738 
31725 
31775 
31771 
31696 
31705 
31692 
31653 
31553 
31520 
31540 
31560 
31473 
31435 
31384 
31365 
31299 
31280 
31316 
31281 
31268 
31221 
31254 
31293 
31266 
31250 
31250 
31295 
31237 
31201 
31192 
31208 
31261 
31263 
31244 
31272 
31256 
31254 
31233 
31212 
31238 
31197 
31192 
31260 
31268 
31222 
31190 
31221 
31245 
31263 
31228 
31184 
31194 
31262 
31211 
31223 
31248 
31222 
31202 
31222 
31232 
31175 
31226 
31264 
31274 
31225 
31206 
31289 
31291 
31271 
31283 
31347 
31323 
31247 
31274 
31305 
31309 
31245 
31257 
31296 
31301 
31234 
31221 
31226 
31264 
31117 
31094 
31190 
31266 
31202 
31226 
31223 
31187 
31130 
31130 
31175 
31233 
31172 
31065 
31068 
31145 
31294 
31465 
31667 
31821 
31947 
31957 
31946 
31820 
31448 
31034 
30833 
30903 
31027 
31069 
31105 
31180 
31226 
31207 
31169 
31196 
31235 
31240 
31219 
31209 
31251 
31239 
31236 
31251 
31214 
31222 
31236 
31217 
31230 
31315 
31273 
31244 
31271 
31326 
31332 
31304 
31279 
31291 
31311 
31352 
31349 
31435 
31444 
31425 
31443 
31465 
31459 
31446 
31449 
31486 
31510 
31476 
31520 
31541 
31628 
31628 
31630 
31631 
31627 
31665 
31663 
31661 
31656 
31644 
31603 
31554 
31548 
31475 
31411 
31398 
31373 
31327 
31249 
31235 
31220 
31235 
31221 
31187 
31155 
31176 
31170 
31143 
31178 
31240 
31209 
31173 
31171 
31206 
31193 
31174 
31156 
31173 
31214 
31228 
31198 
31193 
31221 
31158 
31150 
31184 
31176 
31159 
31187 
31225 
31225 
31164 
31151 
31181 
31260 
31212 
31143 
31136 
31147 
31170 
31123 
31198 
31270 
31243 
31185 
31151 
31160 
31179 
31138 
31152 
31197 
31257 
31239 
31216 
31205 
31227 
31192 
31204 
31205 
31233 
31274 
31307 
31273 
31267 
31269 
31263 
31265 
31285 
31299 
31287 
31292 
31240 
31241 
31245 
31168 
31164 
31178 
31138 
31120 
31137 
31183 
31157 
31157 
31160 
31209 
31169 
31144 
31128 
31133 
31092 
31142 
31260 
31479 
31649 
31844 
31973 
31990 
31905 
31768 
31422 
31099 
30927 
30910 
31003 
31065 
31148 
31206 
31170 
31167 
31217 
31201 
31192 
31203 
31230 
31203 
31174 
31225 
31277 
31248 
31203 
31274 
31272 
31286 
31224 
31234 
31308 
31339 
31279 
31264 
31324 
31307 
31289 
31364 
31400 
31415 
31348 
31311 
31375 
31430 
31437 
31404 
31463 
31496 
31500 
31507 
31562 
31574 
31601 
31579 
31577 
31604 
31683 
31695 
31702 
31702 
31717 
31678 
31631 
31637 
31632 
31588 
31516 
31454 
31470 
31407 
31317 
31315 
31311 
31295 
31253 
31223 
31253 
31236 
31206 
31204 
31227 
31295 
31250 
31185 
31144 
31229 
31258 
31188 
31193 
31256 
31228 
31191 
31212 
31245 
31227 
31206 
31199 
31226 
31225 
31235 
31252 
31228 
31243 
31227 
31275 
31215 
31208 
31224 
31219 
31215 
31240 
31205 
31178 
31203 
31265 
31285 
31210 
31224 
31226 
31223 
31176 
31261 
31255 
31256 
31220 
31182 
31200 
31230 
31207 
31217 
31248 
31221 
31239 
31211 
31181 
31183 
31232 
31283 
31298 
31291 
31276 
31329 
31374 
31353 
31300 
31286 
31295 
31318 
31320 
31328 
31294 
31324 
31335 
31272 
31259 
31270 
31238 
31194 
31230 
31246 
31241 
31174 
31214 
31224 
31239 
31189 
31179 
31176 
31188 
31180 
31147 
31129 
31162 
31289 
31389 
31595 
31834 
31963 
31969 
31957 
31869 
31669 
31273 
31023 
31024 
31047 
31046 
31152 
31222 
31256 
31226 
31266 
31273 
31263 
31257 
31233 
31247 
31259 
31252 
31267 
31272 
31345 
31320 
31280 
31308 
31333 
31356 
31341 
31289 
31306 
31326 
31341 
31372 
31377 
31457 
31432 
31395 
31394 
31433 
31422 
31421 
31452 
31516 
31555 
31468 
31498 
31581 
31588 
31560 
31591 
31630 
31666 
31657 
31670 
31724 
31773 
31719 
31668 
31729 
31754 
31670 
31641 
31650 
31644 
31533 
31461 
31430 
31461 
31416 
31358 
31362 
31393 
31367 
31275 
31270 
31283 
31291 
31275 
31240 
31262 
31234 
31247 
31235 
31203 
31262 
31276 
31229 
31254 
31273 
31279 
31217 
31208 
31244 
31238 
31215 
31233 
31264 
31265 
31238 
31245 
31261 
31256 
31225 
31228 
31235 
31294 
31226 
31213 
31195 
31248 
31246 
31244 
31207 
31213 
31268 
31269 
31229 
31245 
31306 
31229 
31207 
31177 
31197 
31217 
31216 
31232 
31257 
31223 
31207 
31213 
31259 
31190 
31201 
31271 
31229 
31169 
31246 
31324 
31228 
31188 
31248 
31256 
31263 
31235 
31263 
31296 
31277 
31272 
31299 
31282 
31330 
31341 
31371 
31342 
31351 
31318 
31276 
31294 
31310 
31276 
31218 
31183 
31195 
31207 
31194 
31188 
31211 
31240 
31188 
31170 
31148 
31196 
31194 
31176 
31160 
31145 
31220 
31349 
31579 
31777 
31897 
31994 
32012 
31997 
31766 
31303 
30990 
30960 
30973 
30997 
31089 
31180 
31225 
31218 
31254 
31305 
31271 
31212 
31215 
31291 
31350 
31327 
31220 
31240 
31301 
31288 
31282 
31308 
31376 
31399 
31328 
31273 
31294 
31331 
31348 
31376 
31376 
31417 
31416 
31401 
31425 
31458 
31433 
31443 
31446 
31454 
31456 
31478 
31528 
31593 
31562 
31561 
31598 
31650 
31668 
31639 
31645 
31667 
31720 
31707 
31715 
31765 
31770 
31696 
31678 
31687 
31659 
31599 
31533 
31495 
31483 
31411 
31368 
31346 
31343 
31325 
31297 
31300 
31320 
31272 
31263 
31296 
31264 
31270 
31258 
31240 
31270 
31278 
31235 
31205 
31261 
31294 
31233 
31187 
31214 
31279 
31258 
31225 
31223 
31258 
31272 
31234 
31219 
31234 
31285 
31222 
31278 
31297 
31286 
31240 
31238 
31238 
31233 
31212 
31214 
31236 
31244 
31217 
31228 
31276 
31277 
31279 
31235 
31211 
31256 
31231 
31211 
31264 
31233 
31222 
31237 
31260 
31257 
31268 
31214 
31227 
31241 
31247 
31225 
31227 
31278 
31304 
31280 
31275 
31302 
31319 
31311 
31289 
31338 
31369 
31334 
31340 
31371 
31348 
31288 
31301 
31276 
31292 
31263 
31190 
31190 
31214 
31183 
31178 
31200 
31216 
31237 
31189 
31138 
31166 
31232 
31234 
31111 
31071 
31175 
31236 
31340 
31548 
31779 
31910 
31925 
31971 
31947 
31762 
31384 
31051 
30940 
31007 
31037 
31119 
31194 
31245 
31234 
31195 
31238 
31272 
31239 
31247 
31265 
31290 
31278 
31247 
31269 
31318 
31292 
31270 
31306 
31346 
31326 
31268 
31294 
31316 
31363 
31326 
31303 
31336 
31373 
31342 
31385 
31425 
31454 
31444 
31426 
31453 
31499 
31480 
31473 
31511 
31586 
31577 
31551 
31562 
31670 
31708 
31639 
31628 
31657 
31666 
31712 
31698 
31774 
31810 
31734 
31636 
31656 
31656 
31597 
31541 
31530 
31482 
31412 
31384 
31335 
31355 
31330 
31280 
31289 
31318 
31307 
31265 
31243 
31269 
31306 
31274 
31224 
31279 
31315 
31243 
31230 
31244 
31282 
31298 
31251 
31266 
31290 
31254 
31209 
31243 
31271 
31266 
31234 
31239 
31278 
31301 
31213 
31183 
31256 
31291 
31241 
31230 
31277 
31284 
31279 
31236 
31201 
31267 
31242 
31290 
31306 
31299 
31279 
31241 
31277 
31282 
31264 
31225 
31270 
31269 
31263 
31242 
31246 
31262 
31286 
31233 
31247 
31289 
31281 
31238 
31218 
31248 
31305 
31305 
31317 
31272 
31326 
31354 
31321 
31353 
31388 
31398 
31387 
31382 
31417 
31418 
31354 
31331 
31346 
31396 
31325 
31312 
31262 
31261 
31300 
31263 
31251 
31268 
31288 
31267 
31269 
31310 
31260 
31214 
31241 
31272 
31228 
31177 
31198 
31324 
31492 
31601 
31808 
32016 
32091 
32035 
31937 
31799 
31459 
31128 
31002 
31035 
31122 
31236 
31307 
31335 
31351 
31307 
31267 
31316 
31317 
31285 
31334 
31355 
31354 
31369 
31348 
31358 
31368 
31389 
31334 
31333 
31341 
31411 
31408 
31408 
31415 
31473 
31441 
31399 
31445 
31486 
31442 
31406 
31465 
31527 
31560 
31526 
31506 
31577 
31594 
31575 
31599 
31632 
31696 
31667 
31647 
31716 
31760 
31735 
31772 
31801 
31811 
31791 
31765 
31767 
31767 
31710 
31688 
31694 
31690 
31596 
31513 
31512 
31500 
31439 
31400 
31434 
31411 
31401 
31337 
31326 
31342 
31382 
31324 
31343 
31338 
31317 
31302 
31263 
31261 
31304 
31333 
31335 
31307 
31323 
31330 
31303 
31319 
31306 
31372 
31346 
31287 
31301 
31346 
31311 
31312 
31352 
31359 
31266 
31309 
31330 
31359 
31328 
31304 
31298 
31319 
31279 
31280 
31243 
31289 
31301 
31298 
31316 
31368 
31374 
31293 
31256 
31309 
31326 
31321 
31307 
31277 
31325 
31330 
31272 
31281 
31335 
31294 
31254 
31306 
31358 
31334 
31270 
31279 
31325 
31373 
31314 
31342 
31383 
31396 
31378 
31373 
31401 
31448 
31382 
31391 
31456 
31466 
31402 
31372 
31427 
31430 
31389 
31319 
31279 
31307 
31345 
31296 
31321 
31338 
31312 
31251 
31251 
31260 
31272 
31259 
31288 
31334 
31309 
31215 
31244 
31393 
31578 
31713 
31923 
32099 
32132 
32059 
31963 
31703 
31300 
31091 
31029 
31102 
31232 
31274 
31274 
31347 
31381 
31361 
31356 
31348 
31367 
31391 
31388 
31341 
31315 
31401 
31471 
31369 
31393 
31437 
31406 
31398 
31402 
31449 
31499 
31457 
31439 
31468 
31504 
31502 
31495 
31512 
31550 
31518 
31534 
31545 
31588 
31591 
31562 
31623 
31645 
31668 
31650 
31676 
31739 
31755 
31746 
31749 
31834 
31823 
31782 
31857 
31905 
31889 
31840 
31792 
31794 
31857 
31778 
31693 
31692 
31704 
31612 
31521 
31515 
31534 
31505 
31453 
31408 
31439 
31438 
31403 
31403 
31437 
31412 
31364 
31391 
31399 
31442 
31407 
31361 
31426 
31426 
31313 
31348 
31390 
31404 
31393 
31405 
31410 
31434 
31377 
31331 
31310 
31393 
31426 
31387 
31393 
31395 
31388 
31357 
31378 
31417 
31467 
31421 
31412 
31431 
31425 
31378 
31329 
31372 
31458 
31436 
31340 
31363 
31439 
31402 
31325 
31353 
31440 
31422 
31361 
31372 
31420 
31416 
31399 
31412 
31410 
31411 
31371 
31416 
31462 
31461 
31409 
31422 
31437 
31457 
31433 
31443 
31469 
31523 
31509 
31474 
31506 
31561 
31520 
31532 
31536 
31522 
31474 
31413 
31414 
31441 
31448 
31401 
31398 
31394 
31397 
31356 
31339 
31339 
31363 
31366 
31384 
31405 
31395 
31347 
31329 
31353 
31448 
31590 
31752 
31956 
32162 
32232 
32128 
32057 
31841 
31458 
31151 
31132 
31175 
31249 
31288 
31330 
31426 
31487 
31426 
31421 
31478 
31508 
31463 
31450 
31488 
31523 
31502 
31421 
31430 
31515 
31495 
31449 
31507 
31538 
31563 
31543 
31562 
31576 
31606 
31579 
31540 
31627 
31693 
31609 
31587 
31630 
31669 
31654 
31648 
31700 
31723 
31742 
31735 
31752 
31816 
31836 
31833 
31872 
31919 
31947 
31902 
31930 
31937 
31943 
31944 
31955 
31935 
31904 
31877 
31868 
31843 
31799 
31740 
31698 
31690 
31683 
31632 
31549 
31521 
31555 
31553 
31528 
31481 
31500 
31513 
31501 
31503 
31453 
31479 
31448 
31454 
31439 
31448 
31446 
31422 
31444 
31472 
31486 
31472 
31441 
31442 
31499 
31498 
31499 
31527 
31515 
31453 
31427 
31458 
31466 
31439 
31456 
31511 
31539 
31489 
31476 
31509 
31516 
31498 
31443 
31448 
31522 
31479 
31454 
31474 
31543 
31535 
31471 
31477 
31505 
31479 
31429 
31410 
31519 
31479 
31441 
31488 
31551 
31585 
31569 
31532 
31506 
31590 
31615 
31555 
31533 
31569 
31585 
31596 
31592 
31591 
31617 
31545 
31498 
31490 
31502 
31460 
31501 
31495 
31473 
31449 
31446 
31473 
31500 
31456 
31473 
31480 
31454 
31424 
31402 
31400 
31429 
31500 
31576 
31761 
32002 
32246 
32293 
32278 
32271 
32028 
31614 
31292 
31236 
31280 
31282 
31364 
31455 
31506 
31498 
31536 
31558 
31559 
31491 
31491 
31497 
31538 
31534 
31514 
31544 
31605 
31640 
31572 
31595 
31583 
31631 
31608 
31600 
31638 
31719 
31664 
31610 
31669 
31678 
31637 
31632 
31682 
31722 
31677 
31723 
31773 
31805 
31766 
31755 
31779 
31832 
31889 
31897 
31890 
31935 
31969 
31907 
31936 
31982 
32033 
31991 
31983 
32003 
32016 
31935 
31933 
31930 
31930 
31891 
31752 
31745 
31768 
31753 
31648 
31632 
31666 
31661 
31580 
31539 
31567 
31568 
31520 
31517 
31503 
31562 
31535 
31558 
31566 
31554 
31511 
31454 
31539 
31601 
31543 
31464 
31494 
31587 
31573 
31508 
31505 
31589 
31587 
31482 
31505 
31575 
31562 
31475 
31528 
31561 
31553 
31492 
31510 
31513 
31519 
31522 
31508 
31524 
31590 
31563 
31522 
31528 
31599 
31596 
31532 
31476 
31571 
31607 
31519 
31540 
31582 
31539 
31497 
31497 
31544 
31583 
31558 
31594 
31595 
31661 
31677 
31679 
31621 
31648 
31616 
31654 
31716 
31724 
31647 
31614 
31624 
31636 
31576 
31511 
31531 
31532 
31539 
31540 
31510 
31535 
31520 
31544 
31517 
31544 
31561 
31531 
31511 
31463 
31495 
31509 
31597 
31758 
31950 
32168 
32262 
32309 
32322 
32257 
31982 
31581 
31307 
31323 
31319 
31375 
31475 
31550 
31535 
31525 
31528 
31569 
31581 
31576 
31561 
31601 
31586 
31610 
31666 
31686 
31622 
31602 
31603 
31647 
31737 
31658 
31707 
31700 
31695 
31668 
31674 
31718 
31721 
31713 
31751 
31777 
31783 
31758 
31743 
31771 
31832 
31845 
31813 
31817 
31890 
31925 
31938 
31922 
31941 
32010 
32007 
32012 
32061 
32033 
32036 
32069 
32071 
32100 
32105 
32033 
32035 
32037 
31966 
31851 
31837 
31847 
31807 
31749 
31749 
31757 
31701 
31650 
31656 
31642 
31621 
31597 
31614 
31627 
31673 
31649 
31615 
31629 
31653 
31608 
31572 
31625 
31631 
31594 
31614 
31666 
31632 
31608 
31599 
31575 
31602 
31582 
31563 
31613 
31670 
31633 
31594 
31612 
31594 
31621 
31609 
31642 
31640 
31652 
31614 
31639 
31631 
31639 
31624 
31625 
31642 
31629 
31596 
31601 
31640 
31630 
31622 
31580 
31612 
31659 
31624 
31591 
31620 
31619 
31601 
31566 
31613 
31685 
31682 
31668 
31664 
31679 
31691 
31672 
31712 
31763 
31736 
31733 
31681 
31685 
31731 
31759 
31757 
31734 
31807 
31704 
31601 
31617 
31602 
31634 
31603 
31613 
31642 
31686 
31579 
31562 
31623 
31661 
31624 
31613 
31586 
31558 
31524 
31497 
31630 
31840 
31986 
32155 
32329 
32453 
32449 
32326 
32164 
31805 
31501 
31317 
31366 
31493 
31579 
31559 
31632 
31672 
31660 
31640 
31621 
31604 
31649 
31664 
31698 
31704 
31748 
31731 
31659 
31670 
31713 
31729 
31734 
31727 
31715 
31772 
31745 
31740 
31771 
31793 
31783 
31805 
31851 
31862 
31858 
31832 
31842 
31913 
31945 
31922 
31918 
31937 
31961 
31959 
31977 
32025 
32066 
32009 
32062 
32152 
32180 
32100 
32113 
32149 
32211 
32169 
32140 
32135 
32095 
32046 
31992 
31973 
31938 
31871 
31836 
31831 
31787 
31718 
31762 
31771 
31748 
31666 
31693 
31699 
31762 
31717 
31685 
31680 
31687 
31708 
31731 
31711 
31725 
31681 
31679 
31699 
31716 
31624 
31618 
31679 
31727 
31735 
31679 
31662 
31739 
31755 
31685 
31678 
31696 
31784 
31782 
31660 
31641 
31710 
31681 
31678 
31676 
31642 
31706 
31741 
31729 
31748 
31716 
31698 
31727 
31731 
31736 
31695 
31717 
31721 
31757 
31679 
31669 
31724 
31762 
31743 
31717 
31743 
31763 
31745 
31791 
31790 
31812 
31777 
31744 
31819 
31839 
31836 
31826 
31813 
31807 
31794 
31776 
31788 
31758 
31767 
31671 
31672 
31705 
31749 
31709 
31706 
31681 
31700 
31709 
31674 
31659 
31717 
31691 
31656 
31676 
31722 
31797 
31916 
32137 
32364 
32501 
32505 
32442 
32406 
32149 
31655 
31387 
31420 
31513 
31528 
31575 
31626 
31735 
31761 
31752 
31732 
31731 
31789 
31765 
31776 
31835 
31824 
31771 
31811 
31814 
31801 
31795 
31801 
31791 
31820 
31806 
31825 
31850 
31899 
31873 
31853 
31860 
31961 
31925 
31883 
31920 
31964 
31954 
31973 
32032 
32051 
31997 
32013 
32052 
32070 
32108 
32100 
32091 
32173 
32194 
32239 
32230 
32233 
32274 
32255 
32221 
32220 
32225 
32179 
32114 
32106 
32121 
32086 
32050 
32005 
31998 
31990 
31926 
31854 
31839 
31832 
31815 
31815 
31761 
31781 
31776 
31771 
31786 
31789 
31771 
31743 
31745 
31778 
31794 
31787 
31742 
31735 
31786 
31780 
31743 
31764 
31729 
31680 
31735 
31822 
31819 
31784 
31749 
31795 
31775 
31760 
31719 
31685 
31796 
31792 
31764 
31776 
31775 
31749 
31759 
31791 
31850 
31811 
31755 
31782 
31822 
31808 
31776 
31808 
31819 
31810 
31762 
31782 
31788 
31805 
31773 
31765 
31760 
31768 
31808 
31846 
31857 
31856 
31790 
31784 
31869 
31886 
31872 
31826 
31877 
31904 
31893 
31896 
31898 
31937 
31889 
31880 
31862 
31856 
31889 
31796 
31732 
31705 
31752 
31689 
31697 
31798 
31858 
31789 
31722 
31778 
31810 
31795 
31751 
31695 
31670 
31726 
31844 
32029 
32277 
32415 
32488 
32525 
32606 
32494 
32093 
31662 
31536 
31558 
31646 
31690 
31729 
31778 
31777 
31816 
31860 
31850 
31845 
31806 
31825 
31862 
31835 
31838 
31891 
31879 
31864 
31838 
31848 
31905 
31915 
31894 
31923 
31917 
31921 
31896 
31924 
31957 
31994 
31984 
31939 
31982 
32018 
31995 
31985 
31965 
32075 
32135 
32103 
32089 
32136 
32147 
32115 
32138 
32188 
32227 
32249 
32256 
32270 
32273 
32238 
32252 
32288 
32335 
32267 
32251 
32281 
32245 
32161 
32074 
32043 
32073 
32080 
31995 
31930 
31927 
31921 
31873 
31864 
31887 
31893 
31848 
31858 
31858 
31892 
31864 
31804 
31793 
31857 
31825 
31814 
31864 
31839 
31805 
31856 
31891 
31881 
31854 
31793 
31767 
31804 
31836 
31825 
31786 
31879 
31931 
31887 
31846 
31864 
31849 
31825 
31808 
31844 
31878 
31879 
31859 
31814 
31842 
31868 
31838 
31823 
31828 
31872 
31848 
31837 
31816 
31835 
31854 
31846 
31869 
31857 
31841 
31855 
31854 
31860 
31854 
31846 
31862 
31882 
31836 
31807 
31852 
31855 
31846 
31881 
31890 
31955 
31967 
31915 
31950 
31976 
31948 
31949 
31984 
32037 
32077 
31980 
31885 
31888 
31905 
31870 
31853 
31869 
31891 
31871 
31858 
31855 
31902 
31905 
31860 
31861 
31871 
31816 
31797 
31795 
31781 
31871 
31869 
31942 
32077 
32334 
32553 
32617 
32649 
32658 
32566 
32245 
31844 
31672 
31645 
31596 
31778 
31922 
31973 
31938 
31921 
31929 
31949 
31940 
31939 
31979 
32005 
31976 
31952 
31972 
31963 
31926 
31946 
32062 
32070 
32031 
31994 
32031 
32119 
32087 
32079 
32059 
32130 
32175 
32115 
32137 
32155 
32162 
32098 
32124 
32154 
32219 
32190 
32222 
32315 
32347 
32380 
32402 
32349 
32395 
32442 
32411 
32438 
32448 
32432 
32476 
32508 
32519 
32528 
32454 
32432 
32467 
32448 
32364 
32404 
32425 
32391 
32275 
32227 
32212 
32190 
32149 
32116 
32151 
32157 
32090 
32060 
32111 
32159 
32160 
32127 
32119 
32097 
32088 
32107 
32103 
32093 
32093 
32074 
32116 
32173 
32168 
32117 
32088 
32119 
32183 
32094 
32102 
32167 
32215 
32182 
32166 
32158 
32169 
32184 
32118 
32166 
32211 
32183 
32154 
32195 
32206 
32231 
32239 
32178 
32187 
32259 
32224 
32192 
32206 
32249 
32225 
32157 
32181 
32273 
32278 
32225 
32202 
32286 
32295 
32260 
32265 
32332 
32363 
32308 
32261 
32289 
32376 
32364 
32353 
32387 
32418 
32343 
32345 
32371 
32432 
32412 
32468 
32479 
32469 
32383 
32377 
32347 
32365 
32370 
32307 
32285 
32352 
32327 
32307 
32302 
32334 
32365 
32346 
32365 
32356 
32344 
32298 
32297 
32426 
32663 
32890 
33039 
33215 
33315 
33198 
33053 
32789 
32449 
32177 
32101 
32217 
32354 
32447 
32461 
32487 
32521 
32551 
32515 
32503 
32531 
32616 
32598 
32541 
32585 
32641 
32630 
32575 
32597 
32647 
32633 
32607 
32659 
32689 
32699 
32709 
32711 
32733 
32733 
32728 
32744 
32832 
32886 
32849 
32850 
32853 
32869 
32840 
32849 
32923 
33002 
32960 
32929 
32953 
33072 
33127 
33122 
33127 
33178 
33184 
33165 
33213 
33254 
33266 
33228 
33215 
33238 
33224 
33143 
33098 
33091 
33060 
33032 
32994 
32961 
32959 
32908 
32851 
32848 
32920 
32893 
32825 
32827 
32834 
32809 
32817 
32886 
32912 
32891 
32846 
32868 
32866 
32870 
32857 
32868 
32878 
32890 
32878 
32882 
32880 
32922 
32891 
32843 
32873 
32938 
32900 
32902 
32928 
32987 
32975 
32935 
32893 
32897 
32939 
32918 
32993 
33020 
33041 
32973 
32941 
32964 
32973 
32986 
32968 
32974 
33048 
32990 
32974 
33022 
33049 
33034 
33064 
33107 
33072 
33058 
33025 
33027 
33144 
33167 
33070 
33135 
33197 
33178 
33139 
33171 
33214 
33197 
33116 
33144 
33153 
33161 
33163 
33107 
33094 
33073 
33078 
33120 
33119 
33112 
33130 
33130 
33098 
33101 
33123 
33100 
33017 
33041 
33092 
33137 
33297 
33484 
33716 
33878 
33905 
33870 
33860 
33606 
33215 
32989 
32899 
32948 
33028 
33071 
33174 
33182 
33113 
33166 
33205 
33163 
33117 
33148 
33173 
33229 
33244 
33250 
33280 
33332 
33330 
33312 
33213 
33195 
33223 
33265 
33334 
33393 
33373 
33314 
33374 
33376 
33371 
33279 
33288 
33385 
33425 
33418 
33410 
33411 
33452 
33499 
33521 
33539 
33574 
33551 
33457 
33581 
33688 
33664 
33637 
33651 
33669 
33698 
33717 
33729 
33729 
33721 
33675 
33717 
33615 
33530 
33509 
33474 
33461 
33438 
33435 
33359 
33331 
33354 
33309 
33231 
33252 
33207 
33182 
33219 
33253 
33258 
33229 
33181 
33237 
33234 
33264 
33230 
33182 
33188 
33203 
33192 
33201 
33251 
33190 
33138 
33147 
33179 
33212 
33207 
33157 
33166 
33187 
33190 
33128 
33130 
33166 
33196 
33174 
33164 
33146 
33154 
33068 
33114 
33205 
33198 
33160 
33137 
33176 
33190 
33160 
33104 
33138 
33145 
33131 
33058 
33033 
33088 
33098 
33087 
33063 
33063 
33085 
33052 
33128 
33134 
33132 
33107 
33138 
33165 
33185 
33119 
33063 
33090 
33160 
33097 
33075 
33092 
33202 
33168 
33095 
33108 
33056 
32993 
32960 
32990 
33037 
33032 
32968 
32949 
32971 
32986 
32974 
32983 
32912 
32921 
32869 
32835 
32862 
32903 
32870 
32922 
33125 
33295 
33526 
33631 
33696 
33701 
33603 
33287 
32919 
32678 
32615 
32659 
32737 
32805 
32879 
32832 
32814 
32840 
32907 
32838 
32791 
32816 
32840 
32816 
32809 
32860 
32877 
32834 
32793 
32806 
32844 
32869 
32852 
32779 
32833 
32830 
32797 
32812 
32841 
32901 
32894 
32879 
32881 
32871 
32805 
32778 
32844 
32957 
32953 
32908 
32889 
32885 
32933 
32957 
32975 
33005 
33009 
33005 
32978 
33031 
33077 
33019 
33033 
33041 
33033 
32996 
33005 
32990 
32956 
32861 
32797 
32759 
32738 
32633 
32600 
32600 
32619 
32608 
32523 
32459 
32496 
32453 
32410 
32427 
32503 
32530 
32418 
32366 
32381 
32378 
32388 
32366 
32379 
32373 
32353 
32337 
32316 
32329 
32322 
32310 
32313 
32306 
32288 
32281 
32284 
32316 
32330 
32314 
32236 
32281 
32275 
32218 
32210 
32295 
32259 
32230 
32201 
32186 
32192 
32158 
32190 
32168 
32159 
32119 
32108 
32173 
32179 
32158 
32109 
32121 
32126 
32147 
32109 
32070 
32052 
32088 
32093 
32038 
32026 
32042 
32003 
31976 
31987 
32051 
32036 
