37760.94767581793,37142.92194162869,36510.76990494369,35851.61696095669,35109.91902469624,34400.42995219588,33750.0165402909,33195.51446384364,32656.591553281734,32092.746447652156,31560.23848774892,31145.345407169512,30710.536922280422,30349.891525494044,30049.215859081254,29774.155291814244,29469.992753266426,29175.57557530112,28922.330310622492,28672.10253144533,28443.488889156448,28152.223307159344,27830.916980614304,27549.93320106664,27229.4762408109,26892.79191408061,26532.504145205516,26226.307597912266,25929.543486779152,25660.763759704085,25461.497957885025,25315.071679958306,25203.111791981675,25111.06730831472,25052.751607030823,25039.608781291103,25062.944002502445,25143.07500637472,25235.767690630877,25270.055266625317,25298.665499528113,25320.90548526114,25381.143436568196,25429.13263191374,25479.714629616097,25463.286097441447,25460.112149728793,25490.28700474346,25540.19845011216,25604.5938258879,25605.26437822156,25609.377099201334,25612.863971336363,25518.606664968334,25450.947934502117,25419.543733542414,25419.051995164395,25381.83634064631,25315.541066591868,25267.03778112385,25221.21670499047,25142.605619741156,25008.428097775948,24869.512005986217,24759.60847849947,24654.73409351517,24584.214339758677,24423.92998026967,24261.656315524142,24115.05122364178,23970.860120160596,23795.689498864354,23643.29530516807,23521.56770486447,23408.222008731605,23275.162073989162,23149.54527015034,23031.148079770577,22902.73730787484,22738.1167099615,22666.211148048777,22542.85187039994,22456.663543780272,22404.47222047713,22321.86017297032,22240.678637108642,22202.725375023532,22204.4911628355,22217.25400891948,22208.91680823765,22168.571909495822,22195.25989237546,22287.036155108948,22316.56280953441,22380.354688209856,22456.194157146714,22516.521515431585,22618.80309805907,22740.776567551682,22882.665441353973,23027.862373335647,23160.832901100268,23270.155283231175,23381.6681363187,23549.976772067163,23723.60512299599,23922.178020736937,24097.616862966643,24247.3735508172,24425.36049191481,24590.07049680597,24805.541313355126,24968.03849554521,25154.295582091283,25355.50598567796,25574.262508662046,25807.30179635308,25985.199330472868,26150.244611530856,26330.086747418256,26500.876426801256,26689.27928081504,26873.7929312936,27083.206425095374,27296.196198009995,27561.511404694487,27806.2630064801,27962.05466533359,28111.364318295044,28301.35414616515,28504.486799774983,28711.732174364588,28888.869749172896,29071.058818228106,29233.153669017993,29396.321403541733,29553.32005659581,29727.08251799137,29944.654398519328,30187.796674704157,30377.361819429618,30541.602437687212,30692.923747649642,30822.496810257056,30968.543108528032,31033.832554081986,31064.365037007934,31051.557487435042,31015.3700131619,30890.22259595664,30665.252288013973,30409.324814000705,30154.269058021197,29812.242664366087,29447.462194855478,29057.111329687996,28656.188089393152,28262.015075923813,27892.27251914412,27465.01892388093,27037.519459428724,26658.433873466718,34206.9756039352,34172.06217909601,34133.63953037733,34151.4091672193,34153.55493468701,34123.536541883535,34109.43259113224,34120.51905638207,34178.52183324359,34248.661607344344,34233.641235070376,34215.06693542802,34289.855872375476,34320.27659657915,34369.18221344736,34418.51251346022,34448.97794115281,34545.291608010724,34642.43228941349,34655.73157736439,34627.68013807299,34677.01043808585,34750.748843043904,34786.04224753884,34758.70606406999,34746.45730810849,34787.539814417345,34819.27929154388,34792.23368075296,34829.78461143787,34896.90690003716,34939.375214502244,34995.232223896055,35113.20473113117,35219.19670333823,35297.42780893181,35344.165306587856,35464.037712101665,35661.56007785322,35949.53995341539,36222.85708461489,36417.473723587245,36639.560656495174,36910.53085452686,37178.03653216798,37322.00411820461,37317.556121058005,37201.014125468035,36997.74736139147,36719.42343943399,36405.13556064791,36045.6077510843,35640.05769968721,35279.769930812115,34917.559911913864,34547.7055964119,34195.35269681844,33905.763495655476,33545.27456108029,33208.23260643871,32896.828102687374,32605.24959626789,32330.703119123355,32014.269472869575,31727.451888019074,31370.315715112178,31001.98131823317,30590.508054555426,30122.127249494464,29641.25181928299,29106.754554123232,28610.188199304128,28096.36629776553,27580.912718881693,27070.287116800206,26628.79546031898,26187.2814520933,25769.884976134894,25415.632178262735,25066.85555778212,24799.215769674276,24546.082263717923,24281.303498900357,24029.37698714459,23872.355982346056,23794.840132575053,23662.651915866365,23557.352847737417,23519.667806585767,23478.294727598994,23509.52011460306,23553.061312801998,23642.24477317867,23723.761585207176,23768.532129351155,23839.789490674673,24012.210847402916,24231.392053531654,24373.906776178694,24514.32043484693,24696.30833820204,24873.535319988172,25025.057795650697,25155.413169314048,25268.825920680276,25447.639876322733,25628.01845407706,25727.95310353674,25847.244363694714,25948.162489910424,26020.470383223343,26071.365305348078,26127.535239164263,26199.66431852154,26216.76340302985,26339.563887067306,26574.994811415054,26797.7746484011,26959.66833349089,27034.569029160622,27122.523143592258,27239.91450547153,27354.623658016168,27455.94411563207,27500.088810931305,27549.285000477434,27631.65117879524,27708.362365765857,27800.473904666174,27792.002593517616,27757.402093100798,27824.300864255532,27951.169365783855,27985.859273178492,27951.616400672963,27886.2822516301,27825.88783811186,27788.672183593775,27763.727636781652,27731.40701429928,27693.09612430288,27657.512147130034,27607.824219205886,27568.015762330982,27530.442479901612,27479.793426965887,27430.306664741835,27383.211539174503,27359.049303418316,27332.294265305314,27400.310623682813,27489.04704917038,27527.134421722225,27586.07597185087,27607.064259894403,27623.761013002517,27714.73261293562,27821.864524109904,27899.201559925266,27979.757246942194,28027.21000042081,28090.353678507054,28190.33303145564,28271.291049872765,28317.469753917427,28381.485150037428,28481.956241364034,28638.753728718013,28810.146905201305,28953.7345115822,29013.3466140445,29087.08501900256,29175.888499723496,29291.08939064615,29453.87714551415,29553.208297873534,29672.63366849824,29815.28250161201,29922.414412786296,30015.442373209284,30175.860843165025,30338.872115477578,30438.672654470523,30594.15138890164,30750.83711753334,30866.373284622823,30976.70149525422,31174.670895894877,31377.468273337876,31526.107373965668,31644.661026556616,31807.29231921343,32055.419034411796,32287.832473258077,32437.76797506428,32568.950363272474,32690.409742642612,32849.53181141995,32973.36047570234,33076.983162997145,33166.211326862736,33288.72123822227,33449.07265294465,33641.3423587492,33875.99097204101,34103.03999221802,34272.086235533505,34384.359047932514,34469.094511162584,34563.28476229725,34629.20005669595,34713.13085712562,34812.774933907385,34859.5794867968,34838.010053397426,34775.849852067215,34655.50805991984,34515.60849137408,34337.82271597657,34095.306288636486,33780.54902321685,33465.0988537191,33213.19469370779,32879.32668677887,32537.970845457417,32248.068719872084,31948.264771493054,31678.367457195218,31400.267052682288,31052.71977814672,30797.99929833404,30553.605324459713,30255.07542551463,30015.732945887205,29752.51880318151,29529.56015223982,29393.326269784724,29283.02041089778,29176.603755546064,29067.527242604167,29000.047326093594,28939.608209086444,28924.431374601292,28925.81718275752,28903.57719702449,28952.169889470326,29033.239666609727,29141.399758028958,29236.72994813084,29303.539312307756,29410.335947315212,29528.88959990616,29683.854244214803,29825.966635461646,29992.107151997945,30193.339907329075,30337.7098247659,30475.55303282178,30731.45815509059,30987.43033259277,31160.790462588127,31397.562491603196,31677.048704272358,31938.60881788836,32226.588693450536,32570.760854573353,32874.90104137672,33133.91305612482,33381.235108522786,33625.159695763556,33984.79926404944,34281.809244371565,34504.678488335434,34771.29009619833,35049.16698326671,35280.395779656865,35511.80339000266,35677.25100246084,35859.171850582585,36045.11601270628,36260.65388448881,36463.49596542072,36630.73171743533,36816.25119641438,36926.15472390112,37015.89697788918,37111.00365054651,37243.66125388876,37323.144057171834,37413.042773371075,37497.644126134415,37559.24553385324,37555.311626829105,37586.20173766634,37587.542842333656,37601.19975819585,37646.08206106211,37627.84303758658,37641.790526126686,37609.15697922194,37579.89854572994,37604.64192684197,37632.64866264447,37603.01024949673,37576.836356739565,37591.36499063551,37567.20275487933,37566.75571999022,37612.085057745586,37625.987842796785,37633.85565684505,37655.04511058868,37670.82544217413,37635.286168490195,37689.15387262748,37758.93601881695,37740.51818138578,37761.394710707034,37821.40914456954,37847.5830373267,37892.89002333761,37962.1580794046,38023.20069351205,38098.1907961596,38136.680500111645,38219.22549238509,38380.873308285874,38473.25306811966,38562.637694196426,38628.8659130175,38656.0232825307,38740.691690527405,38833.83140967267,38899.83611104919,38971.316989817264,39048.02817678788,39137.47985809801,39187.14543427771,39217.90143464821,39276.32889465438,39359.43268053921,39467.77158591409,39549.824839809524,39576.043436055596,39633.50977105019,39662.74585279773,39711.38324873248,39789.43554037041,39848.3547387546,39881.86000369311,39926.988175748374,40018.76443848186,40030.029717687336,40077.303657210316,40140.223817852,40174.44433861307,40180.30049566037,40155.311245359335,40121.98479437647,40105.57861394627,40059.89164827963,40041.76438352637,39972.94336234848,39811.04967725869,39533.64217682388,39278.69817956664,38998.25084188591,38668.8755355925,38272.020312788525,37821.677365503,37365.74648210365,36882.01002860189,36384.99663889368,35849.22532429997,35374.38486509143,34937.96705460156,34460.220868613826,33946.57778103087,33499.09585703562,33098.64200337434,32752.301723039356,32350.037378077195,31998.444437795217,31728.1894955861,31433.50409668733,31124.379470870434,30873.481139359614,30705.84305594481,30587.512920798414,30440.349035304673,30299.935376636433,30239.31744567364,30194.63630850748,30164.59556395955,30110.59374935553,30135.270075234184,30192.892872439967,30305.500961005804,30398.73008712889,30462.365503593148,30537.601475429714,30612.47981935499,30680.40677075467,30776.072237023385,30931.662730176777,31142.305569923592,31312.75997313976,31462.114329590124,31696.27120450392,31954.232687262618,32183.13690222942,32303.67986007689,32444.33938793414,32623.622730210154,32833.88559030123,33053.804403997,33269.92342113536,33507.52246469527,33707.30235663681,33923.466077264085,34125.347033184415,34364.53305060066,34615.61019606712,34833.89733241765,34973.23810735203,35107.05800140596,35271.79035804157,35419.445981913326,35532.88108502401,35624.52323729077,35705.078924307694,35744.75327071587,35775.55397457528,35866.90555416412,35955.999607562975,35945.27077022443,35910.80438027434,35892.0736184208,35824.39253621013,35710.912729610536,35664.95754301042,35578.92567860195,35442.40122346893,35329.03317559161,35249.416261841805,35175.29787722801,35044.6742826312,34879.76311203994,34702.96081339846,34540.24011376382,34435.23161831279,34307.804323173084,34131.87374256537,33934.776059958465,33774.31288651382,33672.32187656425,33510.65170891902,33348.26628545121,33188.71953352923,33032.883171186826,32914.37422208479,32784.95762168856,32631.579951236243,32519.441249303967,32481.733856407867,32393.399762320492,32287.072513946598,32249.633341983958,32152.22443964773,32029.66982479928,31935.568980642438,31875.331029335386,31823.027947309965,31807.068801768877,31788.695667826614,31753.312856353863,31728.904751408667,31728.390661286197,31697.098219048767,31642.336445133264,31609.34527031723,31554.71760686846,31566.988714574425,31573.91775535557,31647.522049846895,31722.020414116436,31740.90763818117,31803.358412189296,31838.473002728584,31898.64389880227,31963.665123422757,32042.544429605536,32166.149576443386,32317.135610238984,32553.170031687026,32746.49026948098,32893.14006485225,33038.62756951184,33156.84594593596,33338.49857312424,33506.24841526132,33652.5405827213,33795.30117455735,33950.019949676986,34060.14699460829,34161.86978362439,34283.6420874169,34352.82073650607,34440.931313148896,34472.29081061969,34444.552295750655,34379.955754274815,34344.97527420226,34200.31478408752,34001.36190669083,33824.40314583816,33594.71661981542,33306.87085471998,32971.46057742364,32615.084363828228,32247.711091960802,31865.45155828614,31470.160957594035,31071.405836511356,30781.45900743711,30476.000067710887,30081.223557141253,29709.335232893853,29369.789882873283,29090.214263226306,28830.7552135891,28643.916981687187,28485.55487222134,28350.595039200194,28234.008340121312,28096.723925676815,27992.900072681914,27903.716612305238,27820.45636420922,27870.32310608901,27880.22492888271,27907.069373973536,28016.50351482672,28092.253576785755,28100.456667000853,28193.752848357304,28327.125707522122,28440.67256935508,28631.981150148054,28870.13898731935,29042.783861492142,29149.848717433062,29284.808550454207,29502.3133757488,29756.072730549902,29926.549485510528,30017.588140676995,30239.40685265146,30537.646178918625,30822.00507187904,31059.71587416123,31274.963173265838,31553.398853945597,31786.035810236433,32020.416202594784,32318.879046306498,32620.09115458622,32956.686074338686,33295.71733423678,33607.099486243664,33822.79382023738,34020.45029645566,34278.88116584792,34522.73869785532,34720.708098495976,34930.25570276448,35122.72657426913,35369.6462952669,35630.37939433806,35818.759896607386,35951.037520293896,36045.965378995585,36126.990452646074,36263.44785254572,36412.17636015134,36516.670765479896,36612.33623174861,36749.12890781509,36881.16066231259,37012.07482958732,37134.651796180224,37182.08219791439,37229.60200662637,37318.22667339166,37418.51895076263,37516.374887987964,37604.44076114187,37673.8429276756,37751.336425702146,37835.647205787565,37933.88312266864,38025.77114412441,38105.5445200854,38197.72311421909,38292.69567640968,38405.01319229761,38506.31129816906,38577.63571472594,38679.93964909788,38810.76440939479,38932.22378876493,39042.44024067405,39187.03367555543,39324.74277314458,39437.99906229962,39492.067932137004,39614.17551209635,39760.71354874534,39863.19629707293,40000.86069117316,40138.100402128744,40318.99307000555,40493.29197326803,40595.41709368433,40717.167045732385,40884.8498326361,41082.595715832205,41302.581584761334,41509.58109016193,41671.27360955162,41883.2352022213,42032.298985993744,42143.05187976979,42253.20127644554,42373.16308893717,42489.41451184923,42609.19751038522,42761.21172442576,42955.91777037594,43077.04187357925,43193.919145336054,43349.01790011143,43469.94083761464,43625.598386001395,43778.66313203134,43943.55195087814,44110.430074981465,44268.367501302666,44427.26605263544,44524.71965846058,44657.37726180282,44778.88134466187,44868.31067422756,44968.04415798714,45137.470380958366,45312.81981621025,45370.57672388276,45336.8032380108,45321.11231340317,45201.79870150074,45032.23836806278,44835.72183081172,44616.920604338724,44387.412892271626,44124.77989492177,43831.346193712496,43468.75619515851,43049.52687615477,42681.907735098335,42300.63167817971,41870.3829491595,41462.463612850144,41078.7959192748,40713.613118363995,40382.42732076971,40081.59519214573,39760.22181036733,39479.66271396431,39241.97426342658,39050.12924076668,38841.989796398855,38651.26236096172,38486.59705955948,38315.42740052073,38147.78931710593,38061.91391490864,37994.29988793134,37996.95974552152,38006.28042295938,37976.77612027837,37984.64393432665,37960.39229159264,37989.874242529186,38040.836219887286,38169.1575848052,38285.83369086191,38420.39119248286,38524.86324606696,38664.0252070457,38803.67890640246,38948.07117558375,39102.678191981104,39311.44348519367,39414.52973062154,39652.08407069255,39903.362381859115,40079.78470084485,40274.66956075067,40454.48934489362,40677.045664435114,40914.06356263919,41082.34984664319,41283.2473258075,41474.6900170672,41649.74887964116,41811.93313740887,41966.42839508395,42143.2977489588,42289.81343386334,42496.008276463544,42771.64998908639,43058.020539047786,43201.2952210063,43320.43001895309,43404.87490950524,43495.8688611828,43640.551703042,43801.86424277595,43901.50831955771,43916.2157674093,43912.728895274275,43936.80172405264,43932.867817028506,43956.56066615113,43960.60633189754,43876.31790355658,43738.921730389804,43650.431174091245,43559.16900148022,43444.325738468855,43344.30168203136,43259.476811823464,43201.76460763987,43184.73257836492,43108.60253675014,43087.48013823988,43089.402388263035,43054.69012912394,43090.98936211936,43101.24881282435,43140.90080748806,43224.58573872873,43232.09592486572,43274.318370141795,43358.04800487137,43422.33162192484,43478.434500507654,43624.03376388953,43838.05171704909,44070.085176239634,44252.98950111741,44389.67041846162,44469.08616651132,44547.518437804996,44673.51522129956,44666.60853226287,44640.85932265036,44639.987604616595,44633.25972953555,44594.21123197213,44541.39405982424,44422.50513106646,44263.33835880022,44158.821601727206,44050.77326903025,43941.2720729437,43892.88054619796,43807.45217888978,43725.98007035018,43683.355293673914,43590.57320243993,43510.6210125233,43428.187778972126,43368.79919395437,43319.24537649696,43255.162925143595,43295.217251207505,43338.53493196189,43378.3880923257,43440.23536923354,43491.55497450292,43528.10007668735,43641.825752475954,43824.43950467581,43987.51783222173,44137.52038926129,44310.34407738973,44547.361975593805,44798.886155949374,44968.60295159852,45116.03505802573,45204.32444862419,45251.24076023588,45241.696565353464,45178.48583203385,45099.74063631781,44943.189018152836,44728.008774281596,44502.345562260816,44238.930253855026,43921.0660959561,43574.97168481012,43189.62761040063,42869.17065014489,42566.46097498667,42235.677508792585,41876.194402717876,41629.85582707594,41410.4734552471,41117.73265811594,40856.06078577766,40653.218704845756,40494.18604304625,40355.91815184571,40219.01371705696,40099.94597434354,40012.26008084537,39919.65680356703,39830.31688097917,39681.02957976217,39578.345665734494,39454.3605392409,39267.768176528,39060.99218857195,38878.64665730556,38734.52260905774,38551.70769115778,38384.159014720804,38212.743486493055,38015.243472485956,37792.15071107754,37647.177296540416,37469.41387288736,37256.580562183924,37065.85312674679,36933.4190408491,36789.116178645636,36655.27393284725,36532.49580055426,36378.76050219065,36270.734521238155,36261.74911996712,36250.37208203937,36220.84542761391,36247.3545965379,36320.66831835131,36337.365071459426,36364.902420628365,36357.23577228019,36346.46223145274,36389.44463604029,36423.598101568,36405.98492693721,36428.850761514994,36465.64173288843,36468.4580526898,36504.48906475175,36500.532805983166,36498.27527979318,36426.52618009164,36407.14721764889,36383.92375515983,36315.50506538213,36181.72987481712,36096.167397042205,36037.6058265693,35892.945336454555,35716.65712793555,35586.54762346121,35456.86280213151,35342.332463542516,35276.43952088827,35173.19681324921,35054.48669844707,34911.1896647441,34772.83236656575,34633.98333000938,34514.177979728935,34360.28621915415,34178.14185358785,34028.76514539303,33886.00455355699,33698.45106583251,33516.865493877594,33389.907585371446,33260.93801986433,33102.12887550937,33000.96488010465,32941.73275729809,32879.97488736807,32837.57362813636,32752.480536995,32687.504015863422,32626.88608490063,32526.794973229764,32492.06036234622,32520.514133037825,32510.165275355015,32442.03715825524,32383.7438087158,32397.02074492225,32384.660230238467,32331.977168557307,32386.202500605883,32425.161591191485,32452.073091515675,32446.909838546497,32506.544292753257,32596.979450819428,32632.22815182545,32632.295207058814,32653.93169569155,32719.51171392342,32750.513583482934,32830.04109025492,32901.879596934275,32994.4381707237,33064.3544273799,33177.2307368792,33296.38788657044,33369.701608383846,33443.37295810854,33624.01975679633,33748.183697245564,33744.60741813271,33774.96108710302,33833.8355819983,33894.855844361286,33959.09475792584,34061.35398880887,34180.086455355464,34312.96757614226,34386.43776016686,34535.099212539106,34578.439245037946,34561.36251227409,34465.40647332746,34377.49706238473,34229.036775712586,34016.49403768707,33783.29828778485,33574.823567250205,33292.8563109465,33011.24668255409,32735.20263853105,32420.735945789333,32084.431598714782,31741.57819051483,31430.888942586058,31181.823454120575,30912.328471222936,30582.05909515132,30307.28910056223,30101.206016684297,29881.510720433085,29692.48201757455,29465.16477646408,29273.96795439338,29164.354999584557,29057.156033176903,28946.49254637868,28867.635591940358,28868.775530907576,28880.95723163572,28881.448970013735,28924.29726413456,29045.66723652688,29130.939141623872,29257.94175361893,29444.243543653913,29667.53747076243,29794.60713799085,29927.711776222204,30149.15050854093,30410.129476801096,30675.556442207868,30924.532523695532,31183.164558787892,31457.822794654705,31802.48669415554,32149.274009379627,32468.680437645966,32777.06745589584,33154.74488195716,33503.2085780154,33847.20192518258,34166.3624842599,34446.67571147391,34714.337851326214,34973.17105211867,35194.58743269294,35474.02894187319,35790.395532893606,36055.46487038909,36244.27005580307,36415.28325263062,36615.21960678334,36878.43374948904,37075.26321116248,37218.068506487434,37349.429708651274,37496.70535286729,37615.75074383626,37704.08483792363,37779.030237082276,37846.15252568156,37870.40416841557,37907.19513978901,37970.89761148663,37977.60313482322,37974.89857374413,38019.26678648791,38036.969368096514,37986.99086749445,37947.6070937642,37935.29128256933,37897.0474478063,37829.701641762455,37802.32075480471,37858.66950257653,37846.80072627076,37839.93874072299,37845.19140066998,37805.8746821731,37731.21985569237,37760.18771650645,37768.23434451036,37784.37230400709,37795.659934957024,37841.793935512775,37862.715168322946,37834.77548775381,37831.95916795244,37811.26145258683,37771.78827187875,37791.92719363299,37800.24204257036,37846.756022781854,37856.05434847526,37901.718962397455,37950.93750368804,37933.592549990724,37971.903439987116,38047.78761241289,38057.5329729954,38033.415440728124,38046.93824612359,38112.71943005556,38232.74829778055,38381.09682573043,38525.66790886735,38564.045854097116,38599.048685914124,38688.27684977971,38850.371700569594,38985.443292313015,39108.422590306116,39218.34846953732,39286.78951105947,39333.50465697106,39427.6055011279,39528.34481338797,39666.38918714395,39766.86027847055,39837.51414269378,39891.046570664235,39977.05608332826,40067.915924539084,40163.24611464097,40253.457755262585,40369.999750852556,40407.77419898203,40434.52923709503,40480.529127184054,40522.34924105993,40530.507627786115,40430.08123994842,40266.91350542468,40094.3133347408,39879.937753669954,39591.8461193855,39230.28430107645,38836.893598663046,38434.338681022964,38061.5339352529,37681.151948112485,37189.480625329095,36727.82769534918,36391.00925815216,36035.10243119031,35628.47949605936,35232.1160116334,34917.40344970267,34613.15150417704,34338.649730521414,34145.24008574964,33935.04428089193,33779.83376739428,33669.751425951894,33530.410651017504,33393.59562320657,33310.625947788474,33258.07699657405,33206.891501771395,33220.74958333368,33284.22853758676,33326.138058440454,33393.61797495103,33465.7470543083,33551.44364254995,33641.18589653801,33782.15834881763,33873.241707473004,33991.325973430394,34147.87759159537,34321.64005299092,34475.82238624363,34632.41870789751,34783.85177658222,34919.07983053682,35093.445789032674,35345.90874265537,35635.07326067368,35831.92507409157,35989.348410290295,36166.083653698406,36357.74986240266,36472.92840158086,36662.985284684335,36846.96249329597,37032.57137925284,37214.62633784131,37375.156566519334,37571.49428981475,37763.18285026346,37875.34390394019,37958.335931102745,38002.52532989089,38083.08101690782,38196.40436129622,38267.10292900836,38319.137790100314,38324.9939471476,38327.13971461531,38368.289276157535,38353.49242132812,38300.541138713495,38184.06619835689,38036.09765006276,37968.617733552186,37930.26214006688,37850.71228155044,37767.47438519888,37640.739994137286,37449.811393000055,37338.946740501735,37267.68937917821,37235.63697762931,37237.849800330376,37233.04417527249,37224.10347749037,37172.917982687715,37122.9618338301,37052.12915565123,36970.74645408946,36884.535775725344,36790.25611761286,36716.674174865984,36633.972720381345,36513.720335211794,36347.356301230946,36182.512185873056,36010.29199484491,35782.41596012306,35480.756816954236,35184.685609899236,34914.65418513468,34657.296199476266,34445.759289951246,34305.03270686063,34150.3586352299,33972.77402553249,33797.15636934714,33722.68035682206,33663.02355087084,33554.52818328478,33454.66058905847,33338.7667940577,33225.66696711385,33134.069518336,33050.0493109285,32915.11182965182,32849.82238409786,32820.54159886141,32719.422306945602,32589.335154215714,32480.549213951734,32422.099402201107,32415.863265498076,32378.714666213356,32309.53601712418,32251.5108885182,32178.666553338357,32147.08353842301,32138.813392974545,32134.8347824615,32169.36822764495,32181.393466161906,32129.87269519242,32045.405452895815,32040.800993538025,31965.40855949027,31871.553584522437,31797.077571997354,31653.84759352775,31447.36217824962,31192.775808903672,30884.20997669816,30511.338175694727,30101.630699828947,29731.910494793716,29305.79683849774,28819.780507061543,28403.188693903532,27972.984668372235,27525.234523443523,27116.778745267242,26707.09362114592,26353.332561651776,25955.449158602856,25624.889209853318,25297.503208816437,24984.26586201976,24738.70959743376,24523.462298329152,24269.345315616767,24059.395379948066,23905.52597111773,23748.013227941185,23645.999866247163,23614.014519931618,23649.911421526842,23654.694694840276,23658.047456508575,23712.272788557148,23785.810027815107,23896.11588670205,23984.22646334487,24073.789903377285,24231.5708674873,24454.685980640174,24637.63500900686,24783.971879955756,24962.69642862039,25203.625882104145,25428.327969113347,25661.210794593193,25837.946038001304,26080.484817085842,26351.656180817627,26659.864385111858,26962.931688181365,27202.408278275525,27466.918822159627,27750.96479069767,28096.70157393236,28466.265316756406,28784.308288610973,29081.586489866557,29419.790735219805,29662.24010732652,29879.275545987555,30193.272852095706,30504.40913491358,30793.596004676343,31055.46904271472,31304.847455602583,31573.560127444285,31907.495189606572,32145.40715758886,32308.194912456864,32453.81652758319,32639.17954435105,32829.59405536581,33054.16203190828,33133.622483446896,33173.58740253298,33257.92053436286,33395.294355785176,33486.042438273726,33589.17338719051,33670.13140560763,33698.89810072161,33714.09728695122,33750.44122343555,33741.18760123105,33795.390581535175,33858.60131485478,33854.376835152725,33846.64313157119,33866.826756814335,33901.87429212026,33985.40276114974,34078.9448116952,34074.541518037506,34031.7826308945,34038.19758155318,34077.402541327785,34175.23612680866,34255.92592429232,34303.8480644045,34316.94618665531,34356.978160974766,34389.70111485733,34489.00991547226,34606.15540816253,34700.09979010818,34803.811884380804,34937.2965022679,35081.018219115525,35215.75453469212,35360.21385910676,35531.18235244541,35658.944923751944,35801.52670163235,35935.90538929765,36035.79533526842,36106.315089024916,36179.15942420476,36198.516034903056,36227.48389571713,36287.297163879535,36346.26106575264,36409.24828162769,36439.82546804255,36466.066416033085,36505.070210107595,36584.2847924572,36673.42354934497,36753.42044275051,36828.83522854272,36888.89436589413,36928.859284980215,36953.08857596977,36917.0128604189,36913.14600862814,36814.977146980425,36693.83069203266,36572.460719640345,36471.587296913545,36341.544847672565,36171.604534578866,35965.81202337886,35692.62900264609,35378.98932444922,35003.614128066794,34563.910611142,34025.99352908057,33434.90164695998,32838.71356710357,32272.92385970639,31654.40638713913,31030.256274969135,30400.428819707493,29781.106684339844,29112.029565814682,28447.132223502664,27801.166808744292,27168.590088914647,26588.137637154778,26050.913459171472,25501.306414759925,25121.237352041884,24777.936908952823,24409.267235906987,24039.502327382845,23758.585603068543,23556.235260514648,23353.974324938576,23155.133206264163,23061.680562696525,23064.42982726453,23101.28785387133,23213.337148825784,23334.505955518005,23444.16361381574,23577.581176469466,23715.82671592554,23949.514204205778,24212.527181211375,24534.90639149027,24864.505215228226,25171.349963110682,25535.839859943375,25940.562896795618,26303.331709305254,26690.352164548895,27130.480364618346,27637.730853287085,28153.76557752676,28617.117240085274,29102.99946105474,29641.72120591655,30220.94431173138,30918.944587581707,31611.938072674046,32257.791728710145,33048.08235741644,33873.4428731731,34671.71307464994,35538.7372420713,36533.658091265934,37469.547983354096,38386.84122405544,39301.8769385668,40239.59967370029,41140.28556827135,42079.148242372066,43011.41715185847,43797.52800435162,44573.49116486206,45341.98884272443,45995.44209187533,46501.82086251031,46968.86056290395,47374.38826255659,47734.78779015396,48058.79867777809,48314.502634346805,48473.98233103542,48531.359259052195,48463.65582509707,48283.90309618749,48059.6927475563,47844.199579262684,47591.423701217616,47252.05716515269,46897.11146320242,46524.038496498884,46130.44662838538,45800.266659291585,45505.91653655965,45182.39738731353,44908.432055524834,44649.844723921386,44383.61309571422,44053.96956848736,43674.54870635852,43324.18511202158,42931.64377589748,42609.86806271888,42332.214693095055,42094.79446349078,41840.65512903394,41539.241855054126,41286.577735731335,41079.712340797465,40853.82561133213,40653.59868450149,40535.98380517767,40430.1929986707,40293.82500574887,40150.43856506808,40051.152116197605,40074.08500600875,40097.97902083147,40092.74871262893,40131.79721019235,40257.43636577563,40357.50512570204,40450.890714036315,40498.67874368176,40562.47062235721,40647.76487919866,40797.34275309357,40973.67566510149,41123.4547046965,41280.90039263968,41401.800978398445,41544.42745976776,41751.628130868456,41850.691062294376,41999.03959024425,42107.311440385754,42162.743766634914,42162.43084221254,42224.92631970958,42318.24485281049,42314.78033241991,42254.9223607686,42170.83509812774,42032.05311680474,41835.84950397605,41521.203997278695,41212.68286856209,40827.15998019696,40312.108732713314,39746.74370846077,39188.77711162295,38581.32375256107,37902.65773566458,37225.2881199465,36601.07095254314,36015.36584083627,35485.361276312025,34981.68706675614,34442.09360386057,33899.057972318886,33409.398306536474,33010.2408540536,32677.289268647346,32357.301695025173,32003.80885646449,31738.560705013362,31453.195983552458,31157.527107897655,30895.58701462591,30690.152131337185,30478.011724711865,30377.875909552087,30328.590313028137,30236.12114621653,30068.170138379355,29920.514514507595,29889.713810648183,29967.31906739701,30091.952394479802,30197.229110864297,30252.952009791377,30337.53101081026,30441.198401593974,30526.47030669097,30620.459392125536,30756.80503330291,30887.629793599823,31169.909974325896,31543.273513707343,31949.538820927006,32367.851718408077,32787.371610089736,33235.32292071854,33572.90131722705,33962.447519594134,34415.04799306965,34926.12063004025,35400.715220059785,35782.43831186752,36169.39171187779,36579.50151914376,36980.00007629396,37366.39468269285,37793.4694640004,38102.03529620592,38344.12704040135,38601.52972954866,38901.57954711671,39153.729576317026,39359.65619798377,39571.97541856473,39745.62612123801,39892.79000673175,40022.944214695,40135.50759977193,40218.857254845774,40329.54309338845,40439.08899296391,40537.011985422614,40639.226512816735,40783.01528489772,40850.42814617493,40902.19478633342,40980.15767099353,40998.84372935817,41017.37332551162,40972.669836601,40935.94592046093,41076.694855296,41230.854836804254,41433.607510758346,41661.81882164703,41784.52989870666,41880.41888241993,41968.55181080721,42031.76254412682,42107.244385152386,42180.379293010155,42211.29175559185,42234.78343901437,42237.286834393366,42226.20036914353,42243.16534318511,42264.265389950924,42331.454733783576,42303.29153576989,42271.57441038781,42328.303137815376,42390.9550775236,42420.03469705996,42461.43012779119,42497.550546830964,42523.903253543765,42452.668243964705,42400.63338287275,42363.77535626595,42438.65370019123,42480.74203500057,42485.0782734249,42477.99277043257,42469.74497672856,42384.026036742456,42305.54906195987,42283.622000649215,42252.93305551208,42233.88936923616,42209.950650924526,42107.62436480813,42048.101669323645,41972.73158702035,41912.7395049023,41862.71630081133,41752.41044192439,41640.182333014294,41554.55280000601,41499.79102609051,41391.27330675999,41236.55453164036,41090.26236418037,40970.322903433196,40842.64973910448,40673.08940566652,40460.591371129914,40208.173120996136,39845.62782593106,39443.072908290975,39051.716214623004,38575.19937458031,38041.01503384293,37498.38173370144,36922.75725874391,36420.15593292188,35925.04244149238,35378.22936513774,34878.980800984005,34326.78095421564,33752.20701124752,33226.67279561434,32717.65651913363,32254.52837401967,31795.66941209667,31327.221551802344,30936.378948256846,30573.29721132484,30247.520535888736,29993.090628753976,29757.23502126158,29509.89061711915,29307.13794316506,29147.300618565157,28931.136897937882,28790.99146020311,28739.783613656,28729.233590273096,28737.324921765918,28783.011887432564,28835.6055421359,28892.222510841195,29030.512753786177,29113.460077459822,29217.999186277295,29281.858120186105,29353.450757676455,29445.942276232516,29574.71067603954,29642.39175825021,29725.808468557414,29836.740176289106,29970.18009068729,30120.42851691586,30303.109324349087,30496.094285976207,30693.32607904984,30854.124528661316,31025.80827782253,31245.19064965137,31474.854823929647,31695.89122484818,31872.402950811742,32052.9156390328,32272.588583539557,32473.195490025937,32612.558616704777,32724.652615148145,32801.09558118529,32943.36443464332,33089.74600908113,33194.88861499889,33360.895021068456,33485.48364466234,33619.12472476062,33783.49945348495,33924.67307146467,33985.112188471816,33991.99652576405,33927.60114998832,33863.92103003514,33760.81243286281,33683.385990069626,33577.818701007214,33491.42920868745,33381.50332945625,33285.14495910942,33106.6662796338,32888.110922349806,32703.46316140451,32518.10014463665,32390.628146008035,32274.980220196274,32183.427474907337,32118.853285175956,32035.48127835766,32019.589188049937,32050.367540164894,32099.295508777563,32108.68324144879,32214.406992722394,32387.007163406273,32548.856145007154,32717.745926111453,32957.602495861356,33192.58638532,33451.352530879085,33773.44116848006,34053.128546849315,34388.13649274546,34695.16005458356,34942.68327268163,35196.7555519051,35389.09231294302,35606.463027770886,35799.91737603157,36032.979015467055,36257.92697166526,36470.536764924145,36650.53536302273,36825.728336063425,37024.61415822675,37252.825469115436,37435.72979399321,37607.458246643335,37781.22070803889,37955.966646190485,38162.00502657951,38334.98517691913,38527.43369667932,38672.049483305156,38786.8033393387,38844.44848828894,38945.9924633494,39100.375962302205,39246.824591973374,39352.72715720262,39465.60346670193,39616.32127956406,39722.46971398231,39838.81054387218,39958.370024963624,39989.684818945505,39921.467294867914,39784.7416740348,39595.042418842604,39340.61251170785,39029.1633044676,38661.43240468889,38200.98646890956,37727.911797512985,37236.396936940786,36716.38360218806,36164.29551414198,35503.64500327647,34831.28217831638,34120.0049662596,33391.51691097223,32691.504978120924,32064.136214749364,31450.98316085138,30740.37650112826,30045.147841590388,29503.252149015923,29035.60895152199,28600.398135232706,28279.069456943213,27999.940872185336,27722.10868860587,27467.164691348637,27300.018346311852,27136.850611788108,26973.928746453377,26877.235099939717,26864.7404747892,26887.36044017797,26902.22435024075,26909.98040556674,26920.91040860539,26913.489629446227,27012.306691683138,27141.253905445803,27279.320630946237,27393.02395499038,27481.82743571132,27588.93699514115,27706.30600527597,27840.103547585437,27935.389034198408,28045.158451218424,28198.603176904104,28404.57450205976,28565.730579582523,28734.240381031083,28881.940708391754,29019.672157725356,29159.10233963756,29281.098160874626,29391.918109884038,29549.766129227417,29717.426564386675,29903.795409655027,30096.109818948487,30222.97832047681,30381.362781687116,30517.50725716439,30581.65676375112,30572.33608631326,30586.86472020921,30640.508906901945,30762.057693249906,30851.91170596024,30994.18055941827,31142.909067023884,31195.972108360784,31255.51715558972,31331.177810570935,31364.995999931816,31370.472177323365,31423.73638436036,31479.548690265263,31544.05582476328,31586.881767139646,31612.854494196716,31657.110948218222,31657.781500551882,31686.12351252121,31756.084472666324,31789.455627138097,31870.16777636621,31981.814739920468,32072.384008453373,32165.076692709532,32261.613877012,32267.894717203944,32237.76456567819,32344.427090218916,32493.200301313438,32586.764703603352,32717.120077266703,32817.904093015684,32894.257652075015,33075.08326471845,33215.36281291996,33360.626800134996,33602.74089607488,33866.066797502855,34096.31211713697,34318.287291322624,34628.66361482902,34957.81540367787,35240.00617742613,35519.40298311746,35806.33232669024,36169.05643571096,36456.23164847275,36727.29125348225,37053.939646952116,37407.00780236814,37833.747307508864,38295.53434795551,38794.62644989806,39322.64170916578,39776.06919718614,40162.91083847414,40551.16063966282,40986.460862929925,41310.51645404297,41528.15538980429,41675.34162704249,41829.9709951843,42031.09199179316,42174.81370864078,42204.20625259951,42265.98647427398,42326.2914808144,42346.18453337962,42412.70332487862,42420.369973226785,42456.33393005538,42488.34162811538,42419.65471740421,42321.53055924542,42326.693812214595,42252.59777934525,42063.65848346454,41847.13713492598,41542.572264977964,41207.63137431519,40897.880899653544,40503.88670013985,40013.62353725714,39444.48106819166,38804.81884536968,38108.092618953306,37386.064217813524,36656.07859564765,35838.697652661525,35008.55386359142,34179.48295825517,33412.95223390487,32692.577861854777,31972.56111771597,31294.96798455334,30599.113476170718,29930.371633812385,29270.07875085816,28694.074296244897,28125.915303935446,27578.722247925074,27092.057715899675,26695.04603088451,26378.768846841915,26043.045645123202,25687.83172223946,25341.223220971016,25059.591240834146,24815.420784404374,24574.67014487626,24382.758066982995,24186.59915764322,24059.685952625987,23972.469445761377,23906.285930429214,23861.40362756296,23755.56811756708,23751.61185879849,23840.281229052693,23889.72328778783,23942.92043959146,24007.76285025631,24220.618512704197,24445.186489246666,24590.718697395172,24835.649113136427,25153.937954179997,25537.739758222076,25899.435686997855,26282.92456661756,26648.688512884204,27047.39893047797,27450.914973129627,27805.92773031327,28082.64232666997,28361.703856194483,28615.351452273306,28843.56276316199,29029.59633226351,29225.151744502993,29419.991900919904,29577.169367929622,29710.005785227513,29913.227845815167,30176.285526309675,30373.226746705386,30564.490624009446,30758.99550425953,30917.55877942548,31064.365037007934,31148.92168628236,31306.277967247723,31482.163844366532,31612.608625007706,31706.195379042078,31792.987202762033,31953.71859714015,32089.125465050398,32222.90065561541,32394.696163498902,32549.906676996554,32702.122056737193,32897.677468976675,33094.84220681694,33314.42574434588,33505.28729024974,33657.83794615721,33909.87621663525,34110.90780626629,34296.85196838999,34536.17209627296,34776.4086456786,35042.617922141304,35242.30840710502,35502.23684337579,35768.423768094035,36035.39300386822,36265.213640357695,36492.754398912715,36818.37461213763,37165.94423841766,37406.02432561211,37611.05687750064,37912.961889858474,38217.079724917385,38468.80507097305,38688.16509105743,38946.439498238506,39192.88983260272,39428.79014358403,39648.105460179504,39845.78428814224,39955.9783883069,40074.17441298657,40170.75630077795,40226.52390319394,40334.50518065753,40447.69441457921,40519.9129009143,40535.73793598866,40563.63291306888,40630.15170456788,40732.45563893982,40824.43306737341,40886.52621347025,40922.46781855438,40926.93816744544,40914.57765276166,40960.801060295234,40929.978004691366,40896.15981533049,40883.195803546405,40841.12982048152,40749.331206003575,40687.171004673364,40660.95240842729,40546.13149716038,40331.59945387834,40138.86036144023,39922.40606813503,39644.86445723349,39400.17991068124,39063.9202670956,38633.515075864205,38206.730867234575,37724.73784980033,37163.23967733856,36573.779472563205,35968.87421236923,35307.2849282366,34668.31560949273,33932.85380993531,33127.14047755486,32336.7827936152,31575.43767397853,30820.35104278935,30067.36547557896,29350.500327408354,28601.918053855665,27897.05579245756,27286.96492754995,26708.278263602053,26129.92687582098,25556.895203220276,25053.48921459785,24635.511593283605,24285.460923369043,23979.84552143163,23736.904410946896,23488.196550392695,23291.545902674905,23150.908726562113,23001.576721856203,22958.571965524196,22970.97718369689,22923.323264518174,22901.753831118804,22916.148354548022,22925.647845941527,22968.719657506903,23091.900121200102,23220.02032041792,23336.696426474624,23478.473541554635,23657.175738474816,23866.835101465596,24128.618732526153,24445.722931113592,24699.661099870336,24881.336078803073,25073.605784607626,25273.698600971533,25409.820724704354,25557.431645087203,25757.747978895663,25979.34317342558,26184.152207869556,26371.88450954968,26491.309880174387,26622.671082338227,26780.20617725923,26940.535240237146,27065.190919064396,27175.42972271797,27292.217587496947,27366.7606552554,27484.196720623582,27599.151742357226,27709.77052566654,27826.73720440116,27937.78067085513,28082.932899347892,28241.49617451384,28354.66305669106,28410.34125212923,28503.59272999677,28601.873350366754,28697.091781746363,28781.8943002098,28852.592867921936,28949.219459202228,29023.047271138108,29066.36495189249,29123.026624086695,29302.488780318356,29394.86854015214,29397.70721169796,29422.24942710989,29491.40572445461,29612.038089279904,29681.239090113533,29705.87071250328,29711.816276528392,29748.115509523814,29842.95396124768,29915.954758638713,29972.325858154996,29996.17516948881,30004.490018426182,30060.391731308908,30107.19628419832,30134.174839755877,30190.836511950078,30272.30862048967,30335.742871253835,30357.111138953107,30439.343206804184,30486.728905049433,30514.400364685105,30591.08919991126,30666.906317103665,30752.379387900757,30858.751339763563,30852.15757514925,30842.90395294475,30890.78138956802,30970.84533820693,31019.795658564053,31018.85688529693,31021.695556842755,31025.942388289262,31031.552676147545,31058.486528216188,31063.761539907642,31097.982060668717,31102.184188626314,31094.182264111314,31092.26001408816,31058.240659027182,30989.240823893648,30990.76074251661,31028.825763323995,31113.672985276342,31194.631003693463,31241.45790832733,31337.10102285159,31443.89765785905,31521.748783796884,31664.88935528867,31814.15430476121,31847.368997021797,31840.417604496197,31797.52460688646,31678.054532772847,31481.292126332777,31183.74570414373,30847.754281491554,30475.88830898861,30128.20692398631,29765.058131820933,29262.188585065436,28733.8827531198,28240.959732646912,27709.032918099514,27156.587202142146,26641.781823847512,26155.497271477852,25686.80354199452,25207.89506529511,24833.59275264654,24521.9870831951,24179.714820350986,23886.035249952707,23629.54898232806,23376.68369730517,23134.882525787656,23013.378442928606,22992.770134540813,22969.9713551964,22941.137604849053,22964.808102227224,23055.399722504586,23175.49564546295,23379.231796173073,23652.034837250096,23871.506616056755,24104.568255492242,24408.797849273426,24687.971137520213,25000.51558023877,25313.73057529099,25660.830814937453,26011.77555463023,26363.100273978744,26704.120839133364,27020.755651087245,27383.591518830242,27719.180610082225,28078.12727429,28376.61246974617,28679.255089671027,29029.37281481896,29374.215528275436,29629.20422902158,29828.55943781846,30029.211047793753,30230.823782780622,30440.974884149422,30680.98791611051,30906.65112813129,31088.549624508578,31286.13904549349,31471.32324830571,31570.430883220542,31701.52386445092,31813.975490805566,31959.105367553875,32111.92424439481,32211.18834152083,32215.099896800508,32221.51484745918,32198.201977992296,32169.92702125633,32176.811358548566,32144.31192211055,32074.663886387814,32076.519081177605,32027.836981753946,31943.28033247952,31860.891802417256,31831.566313691896,31754.743367999003,31658.02736974089,31567.122825041155,31473.46901577342,31373.512014569285,31230.684367499874,31141.54561061211,31052.786833380087,30926.678291163244,30822.51916200151,30741.628198817754,30724.70792826509,30702.087962876318,30728.194800400117,30725.75846025449,30693.63900347221,30730.832306245844,30834.25382784055,30873.794063781985,30911.993195056108,30938.904695380297,31029.608074379932,31120.378508612936,31156.58833463053,31210.880721912472,31300.444161944888,31411.4652766544,31553.935295812524,31673.49477690396,31795.691763841125,31917.844047289378,32028.507534087603,32173.525652113636,32310.11716248002,32461.460824186903,32601.852131110685,32725.211408759526,32868.35198025131,33003.40122025028,33100.38543944185,33215.832199553515,33302.176988384366,33439.57316155114,33562.708921755424,33678.44625454501,33795.83761642428,33854.868573530744,33904.89177762172,33920.582702229345,33925.94712089862,33967.074330696385,34043.40553801126,34128.83390531944,34212.83176098249,34284.87143336194,34351.68079753886,34402.262795241215,34483.19846191388,34615.7219547894,34705.307746566265,34691.58377547071,34663.26411524584,34640.82296381271,34608.94937621944,34503.627956346034,34356.329960385556,34169.067045339,33883.0988267778,33515.07735432117,33058.20769765469,32558.959133500954,32097.507369221137,31622.68926175705,31092.90821467736,30541.088347564742,30032.720271673235,29501.106381548212,28972.666439135843,28459.20216550853,27996.409296561396,27589.831064919363,27202.47533350889,26826.004901648153,26542.67418893268,26307.712651218495,26036.407177019977,25783.072505363525,25545.316999592425,25363.619668915235,25244.08253956825,25178.301355636282,25122.489049731383,25087.463866169914,25128.479317245405,25231.967894073474,25314.378775880192,25370.59341318529,25457.452292138612,25565.746494024577,25653.94647764522,25750.684827647787,25865.21516623678,25988.462685163344,26101.182532451458,26255.16370000407,26447.545164530893,26654.164690275753,26880.498454630193,27101.55720729318,27322.12422157815,27620.36354784531,27916.725327578228,28225.49232548384,28570.089169751307,28931.29336014907,29273.945602648928,29668.83387194084,30060.458786542273,30407.559026188737,30734.050957447405,31035.486583171678,31380.083427439145,31642.761128277914,31930.338672439895,32166.66366656586,32360.02860784872,32539.91544722503,32748.613685204233,32880.332515279355,33030.715051974665,33187.020800950624,33378.709361399335,33522.49813348033,33676.65811498858,33763.82991836428,33836.45073609957,33940.788679216945,34060.25875333056,34136.0088152896,34211.58006329299,34299.95886086927,34342.87421022346,34369.45043438082,34446.13926960698,34525.3985554455,34544.039910321226,34578.34983806012,34628.19422819546,34651.50709766235,34644.55570513674,34567.19631757693,34523.833933333626,34553.58410520364,34513.10509599508,34447.636836485486,34502.28685167871,34559.66377969549,34514.87088380705,34519.11771525356,34520.68233736543,34500.20813944437,34497.81650278765,34545.82804987765,34602.42266683849,34639.43715565648,34676.22812702991,34767.93733453004,34826.051870113835,34918.744554369994,35054.41964321371,35089.198957586166,35098.139655368286,35106.54391128349,35161.73036834364,35266.53769809457,35278.94291626727,35298.299526965566,35353.731853214726,35339.56084723006,35349.03798687911,35303.14985551237,35230.70785173272,35196.576737949465,35208.244348555134,35268.705817306734,35360.9961701627,35453.0183020852,35534.021023991234,35687.10812176563,35831.276873502364,35988.96843063455,36221.650090414296,36416.2443776422,36535.960320944825,36719.51284641181,36947.61239857822,37065.47314709105,37149.31454054291,37331.14598168683,37564.94522868934,37817.38583056758,38040.43388848709,38211.58119578138,38404.18617775276,38601.95441269331,38730.94632994489,38819.34747926563,38933.20726552096,39001.447141343015,39014.96994673848,38970.73584446142,38921.964338059945,38745.921998729944,38470.52615529611,38194.6162217398,37834.21669414243,37386.623011424905,36838.871161803145,36274.020227673085,35699.96037482743,35070.445843988164,34459.97499942482,33901.09198106432,33326.20511367382,32829.504648387985,32392.572747775645,31957.496041953094,31554.829365590736,31266.268344672724,30979.048428422026,30650.74600586248,30451.144927876587,30331.04900491822,30198.190235875874,30145.0154358167,30129.72684260927,30072.506376803685,30067.209013367778,30090.544234579116,30249.487489400806,30448.59682900868,30674.103578818274,30933.16029705528,31261.462719614832,31578.455159479996,31910.624433830315,32261.412711311903,32587.569366403746,32939.63169331929,33310.558892555106,33576.85757599564,33865.12802423573,34186.05437112503,34468.98275244031,34757.07438672476,35097.916137923734,35512.58570105859,35836.462478215995,36192.88339530032,36554.24404790927,36876.73501691044,37116.278662237964,37382.130310789384,37696.28407910873,37960.436995081545,38141.12849725825,38270.343931954376,38367.082281956944,38426.60497744143,38557.42973773834,38656.85029707555,38630.40818338492,38577.61336298149,38454.72347196621,38412.255157501124,38364.869459255875,38297.72481891213,38232.301262891444,38169.58226794985,38050.44747000307,37939.58281750474,37791.23428955487,37636.53786617969,37552.69647272783,37458.86384950446,37319.67953678126,37113.618804647784,36891.91185139559,36714.863683565105,36549.103146684545,36363.091929327486,36182.6909998287,35979.78186366342,35833.020309569874,35713.39377324507,35601.99267887982,35489.876328692,35390.81339726608,35304.55801541305,35172.325095215456,35125.74405977059,35024.13302947677,34868.967219468024,34723.72558399744,34516.23434021883,34316.7003174663,34159.612257434404,33993.38233392028,33792.864834411725,33550.3707588161,33356.69289311086,33206.95855700476,33014.219464566646,32827.35888092028,32622.92982613204,32398.87593971204,32145.07188142203,31961.027617577034,31800.81031332139,31548.459118420975,31291.302298462666,31134.124831452948,30933.942608111218,30764.13640548425,30615.698470556556,30492.540358607814,30365.738912312856,30195.39626781896,30063.27510634364,29976.93031751279,29862.91406904627,29766.26512602152,29739.97947454208,29728.244808703043,29756.497413694553,29857.370836421353,29990.251957208155,30099.350821894506,30125.63647337395,30156.057197577622,30195.88800619698,30269.358190221574,30365.381284401574,30419.29369202777,30483.443198614503,30599.269938381905,30708.212340857073,30877.571508594934,31069.282420788102,31252.38791136598,31381.62569780656,31517.881932006116,31653.378206894187,31703.110838307246,31646.60562832423,31571.43671172103,31590.43569450804,31470.60799248314,31229.387966321465,30854.951543206163,30457.78339597981,30071.791120981114,29626.1420400312,29175.15089215647,28653.997618436533,28092.790018652682,27552.391892956723,27014.094831239563,26479.39640037971,25917.518248262197,25339.144508736674,24795.170103927863,24321.33547321981,23864.778740975707,23445.21414580514,23086.66981299756,22716.167296906387,22379.81824634293,22124.4719176855,21956.811482526242,21834.614495589078,21769.12388433503,21724.95683729134,21714.92090403091,21667.15522612992,21669.14453138644,21704.236770181273,21798.404669571482,21985.645232873587,22116.112365259214,22257.285983238937,22506.060899026503,22776.338192980074,23078.019687893357,23399.594235371856,23725.773242208154,24025.867763265105,24258.437664322577,24485.151408332757,24776.595804285505,25141.48803251839,25570.127435937815,26034.931961885926,26440.52671677193,26874.999925494187,27328.896800148108,27798.84222732094,28300.37066940912,28810.52688485705,29282.908652175505,29792.930757156704,30255.74597784829,30729.02181494496,31279.388818667987,31848.285418544463,32235.216466810285,32568.86095629465,32867.21204128409,33133.44366949125,33274.68434270434,33362.437291435876,33415.90266417297,33453.47594660234,33529.27071205029,33550.147241371546,33589.1286837016,33606.764210076835,33580.5232620863,33576.276430639795,33565.54759330125,33491.58567089864,33404.25740531176,33357.0728727666,33278.77471193966,33178.16951014633,33053.53618306353,32946.35956840033,32862.160547037194,32802.28022364142,32683.123073950184,32503.70562120743,32316.01802301622,32137.986378429698,31968.560155458472,31760.778339001936,31499.41939108603,31238.596885037052,30994.292318140546,30721.08694566333,30436.571590491723,30081.491778074716,29817.830600479916,29718.275930675976,29528.08493710577,29292.810474969207,29074.36687640749,28852.05642605501,28546.955114240067,28308.462000901938,28135.66066451796,27950.029426816636,27821.46219270971,27702.4391534852,27615.580274531876,27501.899302232185,27407.6196441197,27350.26506784738,27349.46040504699,27370.739265768443,27330.237904815425,27311.171866795048,27303.5946254247,27340.83263168724,27403.886902795664,27460.19094707858,27560.103244793805,27585.584233472855,27604.091477881848,27693.09612430288,27744.90746795028,27850.78768143507,27950.454109961287,28004.746497243228,28101.75306817926,28189.97540354436,28270.955773705933,28332.13249828011,28395.745562999913,28529.520753564928,28680.931470505177,28742.510526479546,28780.195567631195,28859.678370914266,28928.365281625425,28995.822846391544,29075.41740839689,29129.53098172319,29249.582201192643,29337.022225501805,29358.882231579097,29209.68433733992,28992.134808556417,28807.956434244687,28537.187401913096,28189.126037255057,27797.188198231244,27337.479870018946,26929.672292431867,26521.86471484479,26100.869608029083,25635.953323358695,25220.099117767706,24837.794880604135,24441.520803155996,24039.837603549673,23732.635227755934,23474.003192663575,23216.15346862715,22988.50095134985,22811.139859096987,22640.66310413636,22536.056940085524,22514.84513459744,22518.488468943655,22516.387404964855,22635.969237800746,22788.966928597325,22959.242517857852,23168.276032003883,23447.471671995125,23785.631213859466,24132.753805250384,24482.670364698217,24886.745200961257,25323.63239808469,25875.11698903048,26553.559488482417,27184.90686236702,27783.575985857962,28438.10211874272,29108.497990190746,29903.482485232653,30964.810367203998,32144.669550021834,33344.868820294,34687.76162716885,36085.23739400356,37281.65921946278,38092.53580481241,38170.722206917075,37290.44345503372,35889.972554442,34745.384424374635,34195.77737996309,34475.57651705462,35536.949102514875,37081.9016792657,38776.87916480055,40548.16550590581,42460.73722371307,44566.83034501438,46677.57262916239,48614.84302459277,50325.44437950187,51891.36289255177,53322.522738280626,54640.29218438771,55741.96496510089,56631.92202233339,57208.842898469324,57387.61215062287,57196.37062506326,56772.22392227935,56168.68211849715,55429.82285378252,54625.11534990255,53767.92595004153,52881.120488777226,52040.56078679094,51158.09156395097,50279.42213766839,49422.45625525192,48601.45432966403,47823.81478831945,47045.41528766338,46239.523141327285,45363.625331357165,44440.09595395279,43501.032114151974,42591.60668749889,41725.52129334465,40928.97217619088,40146.147030132655,39397.05066645749,38640.868799790005,37947.62944550865,37286.442492776216,36629.27885404573,36001.5971662518,35401.743400304724,34854.438585572076,34349.691492282334,33904.511797965984,33403.877425656014,32957.22251620561,32526.124420896107,32092.701744163245,31739.94651316959,31361.822052219162,30986.446855836733,30716.571893283355,30442.964189405942,30193.65283175145,29918.055822617513,29668.029209140448,29486.1083610187,29275.04083812724,29030.55745727509,28837.550143903514,28669.755598277523,28422.791173790836,28204.54874092922,28015.542389815142,27828.771213146596,27619.692995511654,27372.996791958427,27192.685269437465,27056.92077361593,27001.376688644494,26930.454603487804,26807.6764711948,26713.32975784895,26651.124853029833,26614.82562003441,26626.113250984345,26581.230948118086,26472.981449721035,26450.67440875464,26459.86097572577,26452.61901052225,26468.734618274524,26475.395438122207,26423.494687496983,26337.30636087732,26227.961627001958,26080.26129964129,25856.475634154755,25571.088560949393,25237.51112669839,24907.934654704888,24559.71682783566,24086.329232016713,23561.219699528185,23004.66126259104,22482.010421992592,21981.711325849454,21480.048773294544,20973.804113126294,20467.023011091114,20007.895828234654,19575.523683491192,19148.98534405057,18834.943334453506,18496.940254800353,18152.58927972189,17834.233383444953,17569.47697037184,17322.221973207234,17102.01258683355,16974.227663782556,16830.394188212656,16729.207841063482,16674.69193633699,16589.777659151277,16565.70483037291,16573.170313020983,16584.05561257072,16652.027267459307,16793.334995905756,16909.83228800682,17011.93505667866,17166.58677656493,17312.074281224523,17440.239183931255,17597.32724396315,17815.882601247144,18034.37090329777,18230.21688821517,18450.22510888876,18690.394603061035,18933.80510017933,19157.970745321603,19401.47064941772,19645.79756805868,19829.439500503482,20048.91127931014,20355.17488183676,20697.67066212543,20993.96538662498,21294.529294315493,21582.531521622124,21882.156656045518,22093.201827192526,22334.913591732216,22661.092598568513,22927.413633753495,23173.483988461972,23422.460069949637,23660.193223976283,23907.716442074354,24158.815939285272,24431.2166489621,24722.99632108168,24963.52344316524,25145.757215709356,25329.53325862089,25522.18294408118,25712.843324284953,25930.594018768552,26101.428401640464,26206.66041453605,26328.34331135074,26494.305013931396,26656.84689961039,26887.18162622233,27155.939001552942,27346.42056780107,27457.57579297731,27574.69893392312,27754.429311088243,27889.344440620476,28051.148718732446,28229.44858425243,28425.808659292303,28605.829609135344,28783.861253721865,28989.7431718997,29165.71845599633,29362.81613860323,29542.546515768354,29618.587150405307,29775.027009848003,30055.22847833973,30258.22702148283,30445.78050920731,30655.372816964726,30868.273182901525,31060.744054406176,31260.32278064761,31492.870329960628,31726.602521729772,31949.538820927006,32239.82092616808,32552.722996797922,32779.97318267503,32995.37694399082,33216.70391758727,33422.11644913154,33708.397592115114,34050.491041003595,34323.91993092536,34584.854195696615,34807.388163493655,35004.86582575629,35217.02858412607,35445.97750258178,35644.48334508936,35807.69578310201,35950.14345051569,36075.29086772095,36199.700677359186,36329.944292300264,36424.29100564611,36468.03336954515,36488.0605325771,36552.388853119475,36606.703592145874,36614.414943982956,36543.60461754854,36457.32688395106,36362.24256303818,36235.26230278758,36081.10232127933,35932.97731077401,35845.51493472039,35703.22372951791,35538.64783509348,35429.504266918215,35300.22177698872,35141.122059955844,35036.71706160511,34960.2517438235,34897.53274888191,34793.64184065364,34699.026906374325,34616.30310014523,34419.42893498289,34112.204207444694,33737.79013607385,33307.18377914235,32836.701910102594,32310.832418302587,31781.118426456265,31217.65330048243,30658.323247232827,30061.41991155385,29415.096868884193,28807.17412318875,28245.07245362669,27658.361513419335,27107.726288762846,26568.60221250084,26122.908428062015,25676.78996047854,25254.207879806505,24901.363241835028,24619.999482631625,24345.67652293164,24116.48173528692,23948.240154771825,23824.925580611896,23758.00445771271,23775.729391065765,23840.281229052693,23910.331596175623,23994.731783238865,24078.95315634646,24119.58862776621,24179.02191627287,24329.851487857282,24533.319417633942,24872.931822887876,25356.91414557864,25894.630061939963,26515.606226397304,27229.76681348882,28020.683291039863,28882.074818858484,29788.929794899203,30741.35997788429,31661.223669198,32516.513170780323,33254.098386061,33878.360256953274,34440.17135383742,34980.10009289981,35506.483674822295,35943.30381671236,36330.81601033402,36680.68786629294,37021.32845179182,37311.92348145527,37552.584714005556,37758.37722520557,37948.52351528687,38139.07213676836,38321.037688379016,38420.21237852721,38495.1354259414,38591.49379628823,38695.27294579422,38764.71981581686,38800.77317962327,38821.5603019667,38839.70991846442,38797.71099063289,38731.683937511916,38605.86596797299,38452.734166709684,38312.566377230454,38180.22169831058,38000.40191416763,37805.24883332835,37630.07821203211,37405.68904944528,37156.2212295796,36928.45695358002,36706.951166027924,36447.26859894617,36203.88045357233,35941.3368632003,35704.20720627394,35475.9735436408,35248.94687520825,35032.760802836514,34809.466875728,34536.03798580623,34294.817959644555,34078.67659076174,33865.73152133603,33655.11103333366,33485.08131326215,33316.81738100259,33137.89166663786,33008.20684530817,32885.875747904276,32752.10055733926,32638.30782631729,32517.228426602895,32395.858454210575,32293.375705882994,32225.13583006094,32213.66938515537,32235.95407437731,32244.58184773706,32244.626551225967,32236.89284764443,32238.81509766759,32280.92578422139,32334.748784869767,32399.188864134416,32416.399707365003,32407.235492138327,32374.870166167042,32339.889686094488,32315.839209060578,32298.76247629672,32265.883060202967,32193.41870467886,32153.83376524851,32152.31384662555,32176.341971915004,32150.682169280313,32082.97873532519,32006.267548354575,31958.121890797844,31907.919872751223,31892.161892910233,31853.269857557996,31768.690856539117,31684.916518320624,31564.86529885117,31422.484686670865,31331.200162315392,31249.012797953226,31117.450430089288,30980.568347044988,30823.748507946555,30634.16101147664,30454.005951166866,30313.27936807625,30173.11157859702,30036.251847297175,29841.165821691255,29593.352030915266,29312.100030434136,29009.792686676108,28642.95585667561,28208.661461908992,27754.317552365967,27247.402339864057,26720.638778285836,26169.355353040144,25586.801837301475,24962.361152453563,24378.10890413629,23809.100545537538,23261.8404342938,22749.806672311624,22235.157756228182,21750.996619581776,21307.560361332937,20925.233772424912,20597.780716154663,20305.06227076796,20012.47793584799,19761.132569448062,19524.449947410816,19303.279436025554,19128.533497873963,18977.43570535609,18859.932584754537,18787.892912375082,18696.18370487496,18611.671759089444,18547.879880413995,18513.86052535302,18501.14238275795,18521.03543532317,18573.874959215518,18586.794267510686,18594.25975015876,18615.046872502193,18677.475294765867,18755.080551514693,18843.615811302163,18954.16753937811,19101.711404527596,19279.027793291545,19449.392789529895,19589.985262153776,19743.832319239656,19929.172984263063,20114.178373119637,20321.89313434281,20484.122095599425,20612.622274472986,20763.87652920205,20920.696368300483,21084.758172602436,21307.26978865502,21493.01278507862,21627.302065766107,21757.16570105144,21866.13045527106,21994.094192277695,22158.781845424397,22271.993431090526,22340.18860342367,22404.38281349931,22450.11448265487,22513.63814039685,22630.33659819801,22662.411351491377,22671.91084288488,22697.704755986306,22713.57449454957,22763.821216085104,22875.021144750255,22993.328928152197,22996.681689820492,22944.222145583888,22984.25411990334,23023.74965235587,23060.339458029208,23173.26047101742,23300.66541441267,23407.93143605369,23543.070083030474,23679.527482930123,23824.277380022693,23978.035030130748,24150.478738603444,24267.311306871332,24363.893194662716,24472.053286081948,24564.05306625999,24698.029422525102,24849.39543597644,25024.208429361395,25212.41011767508,25415.922750940652,25557.29753462047,25623.50340169709,25657.03101838005,25723.147478478848,25770.95785986875,25779.16095008385,25787.498150765678,25832.089880954016,25929.454079801333,26034.708444441374,26071.991154192827,26127.08820427516,26242.914944042557,26345.35298888123,26431.630722478716,26543.501203477528,26658.769149633546,26759.083778748965,26837.40429132036,26933.51679247818,27084.92750941843,27216.46752553791,27269.329401174713,27314.837552885718,27369.84519599023,27428.6749873966,27440.186135791082,27491.4386858271,27478.20645310956,27484.844921212785,27524.63102634323,27540.54546839541,27526.01683449946,27537.192706727114,27551.095491778317,27546.200459742602,27542.914753307672,27542.802994585396,27570.4073989877,27620.497658312044,27630.46653633911,27602.25863483651,27567.83694837534,27556.191689514126,27560.907907594195,27549.50851792199,27553.420073201665,27583.013782860493,27611.13227738527,27642.04473996696,27653.91351627273,27667.972763535116,27673.270126971023,27662.496586143567,27659.23323145309,27633.93105672968,27564.730055896052,27457.91106914414,27265.06021798375,27023.50491565525,26755.0157612581,26428.389719532697,26065.598555278608,25677.684030256754,25266.590746234746,24861.130101815477,24479.786989663484,24086.597452950176,23683.77431437663,23287.924920073143,22936.175517579977,22611.09174622199,22293.02642262297,22092.754792303418,21957.034999970794,21818.051852947698,21697.01715672221,21596.255492717683,21536.196355366275,21485.904930341832,21477.85830233792,21501.86407588292,21544.06416941454,21602.80455384309,21704.72850855929,21827.28312340774,21993.468343432945,22182.564101524844,22421.43719451871,22657.762188644672,22860.246641665297,23067.201443576985,23306.94625460461,23616.76378449962,23919.942846291407,24137.514726819365,24339.23922052851,24565.75179883859,24883.392439292962,25185.185692928517,25446.544640844422,25760.407836485843,26100.199055695422,26475.350734633295,26807.743526428167,27122.7019575479,27450.19971730706,27729.86474393186,28021.912636984904,28360.18393757152,28688.352249664338,29021.37089030396,29267.128320590058,29453.318351902766,29669.23620334103,29937.434785060264,30201.20772137734,30374.791368817256,30533.511106194394,30693.54959649439,30834.589104007377,30939.821116902964,31070.400008010867,31163.338561456036,31263.697894060362,31383.659706551996,31420.36127094761,31464.84124241367,31524.69921406498,31548.056787020778,31560.05967379328,31553.86824057916,31540.054862505778,31513.344527881687,31485.29308859028,31453.575963208197,31401.429343393964,31367.275877866257,31360.793871974216,31341.705482209385,31278.204176211857,31166.914840568883,31096.998583912682,31057.14542354887,31029.71983310221,30996.952175730727,30905.06415427496,30816.19361832066,30788.991545318553,30743.729262796554,30699.383401797226,30659.574944922322,30639.413671423637,30613.642110066667,30565.943487399043,30525.79975435731,30491.780399296335,30415.806819892743,30289.94414686491,30202.347660344563,30104.75994405269,29920.290997063043,29718.186523698158,29544.245248346957,29357.362312956135,29112.00721407023,28908.025194171096,28744.96921836963,28566.378780171726,28394.80678973279,28236.0647006112,28075.243899255267,27930.2928364626,27838.85184989594,27785.69940158122,27768.64502056182,27714.86672340235,27636.43445210868,27611.624015763286,27599.97875690207,27558.538622681932,27556.795186614418,27578.83400664735,27622.352853101835,27639.407234121234,27634.355739874332,27633.70753928513,27637.641446309262,27676.689943872687,27726.53433400802,27746.561497039977,27777.2057386882,27791.801427817518,27791.622613861873,27735.87736319034,27698.371135994334,27650.247830182056,27635.070995696904,27672.264298470534,27736.145584123802,27759.816081501973,27743.4993080496,27729.261246831567,27742.515831293564,27695.15248479277,27638.624923065297,27612.629844263774,27589.5628439859,27530.17425896815,27368.526443067367,27168.36657147009,26904.973614808754,26556.06288386141,26230.71089156996,25925.3190070771,25542.835955957886,25177.720210280444,24863.924069872388,24538.370911880844,24189.01314604439,23800.04808903314,23455.853576165864,23124.354854149205,22817.353644055565,22541.019027354603,22215.085889707316,21949.077778944706,21736.87031708602,21554.837710242,21397.056746131988,21245.489566980552,21124.27605679942,21020.228686359966,20964.326973477244,20954.827482083736,20967.791493867815,20965.66807814456,20984.220026042465,21029.415253331095,21130.04280686889,21260.331125298875,21421.464851077184,21623.81519363108,21815.280236635237,21998.653948146577,22236.476509151045,22480.91518651428,22684.740744202227,22897.14937176101,23111.212028409485,23343.82663295587,23626.889124737874,23901.793229793697,24149.78583452533,24436.73752984256,24701.315128960032,24914.148439663466,25119.762136907833,25318.737366048976,25455.530042115457,25617.624892905344,25754.03758931608,25896.529960218664,26135.17953576798,26336.769919010392,26498.52949363345,26641.200678491674,26826.384881303893,27031.77506110371,27262.512119115847,27440.610818935733,27635.450975352644,27848.194879078255,28069.611259652527,28318.36382369564,28530.705396021058,28718.25888374554,28894.792961453553,29076.557347364113,29358.748121112363,29622.521057429443,29797.69167872568,29971.320029654507,30127.9610547973,30288.312469519675,30432.01183462284,30547.19037380104,30650.008398295453,30696.567081995858,30710.38046006924,30718.40473632869,30695.471846517547,30566.90461241062,30261.08804477311,29593.687307082095,28253.096729886143,25759.983153341193,23209.917331924124,21157.088417659812,19483.322737613053,18132.24919226756,17049.597746085852,16200.454974228738,15721.25592485141,15459.49464553531,15255.803198314095,15083.515952052589,14956.893319713274,14856.13165570875,14839.948992723108,14876.628205374267,15047.574346968455,15306.832230905562,15538.709227884918,15770.653280097638,16019.092919718376,16286.352728170483,16581.261644513805,16902.702081525575,17195.331119934453,17586.57605488015,17986.582873652325,18325.703540528244,18671.999117374315,18975.021716954914,19285.621557905863,19613.722814765315,19870.87963472362,20076.940366857096,20292.00885200606,20522.209468151268,20767.028125170247,21019.222857859477,21291.22123613611,21605.620873644457,21888.28103402627,22187.034450415904,22431.897810923794,22685.724220958262,23015.814783074235,23375.029668215477,23705.053175098084,24027.298274910245,24289.394830393176,24549.993818997602,24827.91540955489,25105.837000112177,25360.736293880498,25627.146736043305,25867.293878471122,26068.12430240206,26258.516461672363,26429.015568377446,26568.691619478657,26729.490069090138,26850.815337993547,26940.602295470515,26970.82185397409,26922.76560339518,26840.868811710934,26780.384991214873,26739.838926772944,26710.066403158475,26580.470988806606,26327.69511076154,26043.62679047904,25687.496446072633,25351.929706565108,25040.636961536045,24723.37630073742,24405.06510794939,24112.52547651833,23827.29486552416,23613.76865074261,23425.20933451764,23191.9241776376,22911.879171357057,22658.410389233875,22383.685098133697,22158.781845424397,22021.07274783525,21890.00211834933,21811.12281216655,21830.300608909205,21808.619416787555,21814.207352901383,21945.6803137875,22023.084404836227,22111.93258904607,22293.65227146772,22472.510930599088,22647.10040653949,22846.61207754756,23079.405496049585,23342.217307355084,23562.560804195502,23753.377646610457,23984.338222067145,24164.627392843653,24368.967040654068,24666.625221565395,25022.688510738437,25381.12108482374,25769.415589501335,26143.852012616637,26482.615051581273,26824.26146558064,27248.743444531377,27659.009714008538,27973.744627683714,28301.756477565348,28659.071464427885,28984.870491608443,29232.527820173244,29453.02777922485,29572.67666729411,29714.07380271838,29917.429973772763,30101.34012715103,30214.685823283893,30353.66897030699,30461.493785559393,30568.983324644963,30888.233290700115,31264.86018477204,31513.098658692677,31665.872832044704,31759.05725467888,31776.558670587383,31644.817488767803,31474.653658229552,31223.911788929916,30930.92512260975,30653.741139619488,30401.21113076343,30120.942607038334,29767.293306266467,29399.361240787657,28979.774293872633,28549.391454385695,28180.38650517303,27961.652333933394,27788.49336963813,27639.004902721037,27514.460982616067,27376.684829793554,27262.668581327034,27242.507307828346,27192.707621181922,27087.542663519704,26999.320328154605,26929.96286510979,26845.003884435166,26719.141211407332,26524.144592779234,26337.507526577418,26155.430216244487,25984.707592094852,25835.129718199936,25637.87557338185,25506.96140610712,25434.809975005388,25396.186160586618,25421.533038798934,25545.451110059155,25682.154379147814,25904.867160900496,26127.535239164263,26338.312189377808,26488.538263861927,26665.42996948123,26880.341992419006,27019.235732464284,27125.339463393626,27069.773026677733,27030.813936092134,27012.06082249413,27038.659398395946,27080.747733205288,27106.049907928696,27086.78270420822,26983.83056924708,26829.156497616354,26675.108274830374,26435.743443458494,26029.00874960527,25538.075034388905,24917.098869931564,24106.088174115204,23140.559868879303,21819.7505855263,20048.419540932126,17761.61256570966,14849.336725394336,11448.854082686197,7525.25121274605,2870.992168306371,-1643.1661418874435,-3485.3969198938516,-3573.239275603208,-3577.083775649521,-3579.386005328418,-3582.5376012966162,-3585.1527553978867,-3588.4831653217275,-3591.3665403564623,-3594.2946188801075,-3597.736787526225,-3600.6872177943255,-3602.5871160730267,-3605.112863196476,-3608.443273120317,-3611.661924321881,-3614.6794098233477,-3617.6521918359035,-3620.2002907038086,-3622.6589825938922,-3625.4753023952608,-3627.889290796434,-3631.219700720275,-3633.76779958818,-3635.9806222892553,-3638.595776390526,-3640.696840369325,-3642.9990700482217,-3645.8377415940454,-3648.2293782507636,-3649.9504625738223,-3653.750259131224,-3656.4548202103165,-3658.8464568670342,-3661.662776668403,-3664.5461517031376,-3666.691919170847,-3669.1282593164756,-3671.63165469547,-3674.6491401969365,-3677.3313495315733,-3679.6112274660145,-3681.7793466781795,-3684.1262798459866,-3687.63550372547,-3689.6471607264475,-3691.859983427523,-3694.989227651266,-3698.8784311864893,-3701.605344010037,-3702.9911521662657,-3705.11456788952,-3707.9979429242544,-3710.5460417921595,-3712.0883121595757,-3714.5470040496593,-3684.953294390833,-3427.729419199159,-2908.632505969108,-2263.538809244491,-1429.1481887278783,-491.6713227833895,531.4797796582914,1582.436452202374,2700.291895901191,3809.3184005401613,4963.629539445584,6127.931908122529,7239.484159884949,8351.103466880735,9431.720904317011,10454.424971869585,11456.78895196783,12407.78862330778,13383.643434482032,14356.324297943629,15321.98671364626,16253.02627718762,17138.4459302957,18005.268932016963,18835.01038968687,19637.102739465565,20421.80543205803,21209.63736887424,21954.241031913883,22625.128641739924,23320.536115233437,24050.767606588317,24728.628960684415,25366.056009060863,25939.24414387276,26475.931879989133,27065.79441616469,27727.160182852767,28296.12383796261,28865.489824472646,29436.554543561288,29961.462910349717,30455.347055834183,30985.32926861397,31544.324045696743,32088.857244116934,32613.519741716358,33147.882896409385,33668.43267302903,34187.26136532562,34708.54874951229,35228.49502903164,35700.94385158346,36205.98151755113,36768.44081502448,37335.75044104463,37836.54127556578,38352.19602014971,38887.162671943035,39443.27407399107,39943.416707923025,40440.85478077588,40976.760205836326,41415.43554251618,41802.07601810408,42253.290683423365,42789.978419539744,43241.48365753695,43641.04344142001,44067.6041326051,44498.79163489243,44929.822674968564,45384.524212422875,45804.73700818265,46219.56303352869,46645.02848923546,47057.28406396915,47468.60086543571,47896.39090256583,48297.04592192721,48771.57345671338,49220.865872009505,49701.8307091988,50194.440805249316,50655.93727301804,51088.26471427259,51471.105393303085,51840.80324659387,52118.16604353977,52397.94282888685,52620.70031412844,52911.00477111397,53261.16719975081,53518.39107494248,53779.54885715829,54058.16335179369,54408.594001364,54709.381426499065,54988.174735090106,55306.77650055606,55631.547347491665,55916.86736546366,56073.508390606454,56076.458820874555,55994.49497395694,55733.13602604104,55352.06113482251,54800.12950898761,54134.718076553116,53433.07446635658,52707.15686168157,51969.12461151178,51169.06627047852,50312.9721060958,49468.009110451836,48611.6243733912,47813.57768935891,47087.436567239354,46395.02422750285,45711.99962043758,45084.764967532756,44460.123116984745,43892.2099938643,43386.50177556298,42887.364970131515,42406.57894689786,41953.17381062196,41578.737387506655,41240.62254913122,40908.56503350318,40655.498582780194,40523.57858700497,40411.81986472844,40296.4625115946,40269.99804615951,40255.31295005238,40211.77175185344,40184.30145791786,40264.14188911222,40422.3922398558,40624.541416709595,40816.67701204742,40988.24900248635,41129.86965535518,41377.102300775325,41626.7265828522,41895.640420394,42142.00134778039,42394.62076361427,42761.54700059259,43137.25747314185,43408.83116827383,43679.53314537205,44042.883103237524,44418.90650020916,44766.878457889376,45127.747372120306,45433.809808946826,45772.75166186711,46085.51962203022,46427.6577744076,46716.352905792344,47069.28695074165,47380.490288792884,47666.503210842995,47939.708583320215,48209.94117378488,48448.523694100826,48649.48822849849,48892.76461515005,49080.42986159681,49268.832715610595,49446.10440088563,49589.513193310886,49726.57409031082,49858.76230701951,49950.7397354531,50039.297346985026,50117.41669385633,50190.77511915864,50324.23738530128,50415.20898523438,50439.63944192403,50458.23609331085,50427.39068596252,50458.23609331085,50523.056152231235,50583.91995238304,50657.63600559664,50723.88657616217,50710.5202329779,50690.04603505684,50766.1313731827,50822.25660350998,50933.36712519731,51060.25797847009,51195.79895684707,51316.878356561465,51404.16191865944,51493.18891682493,51526.58242304116,51577.61145563263,51664.38092760813,51745.80833265881,51818.67501958311,51888.41246228367,51977.57357091589,52111.84049985892,52257.75268766317,52399.12747134298,52462.96405350734,52504.89592610549,52564.21745588988,52627.204671764935,52679.12777413461,52783.73393818545,52913.2399455595,53020.930650345166,53155.82342813295,53296.52765947911,53419.21638479429,53526.527109924216,53683.70457693393,53864.19491341054,53981.18394388961,54113.059236175926,54248.600214552906,54410.359789175964,54566.59848291856,54645.16486467897,54664.365013166076,54728.0674848637,54809.22666898092,54938.93384205507,55105.52139348047,55258.854360443875,55364.846332650945,55446.47490340172,55543.90615748241,55655.55312103667,55707.38681642852,55708.30323795119,55736.01940107577,55762.43916302195,55813.26702991332,55852.13671352109,55923.68464752253,56020.06536961382,56054.46470433053,56014.76800617791,55953.54657811482,55820.26312592783,55613.33067576059,55384.96290266072,55143.586414287856,54856.254739314885,54444.64736517041,53983.73204275752,53467.69731851784,52907.36143676775,52346.377354428456,51783.58278078828,51230.57827121953,50637.18415942004,50110.86763273092,49575.722166981956,49013.08405555297,48522.57502348126,48011.301220810565,47532.19157841105,47149.462658102835,46748.315900363436,46345.559817023255,45962.00388217019,45686.13865210279,45470.06433845334,45279.42630999402,45127.9038343315,45057.96522593084,44962.903256762416,44884.44863372429,44892.584668706026,44913.684715471834,44946.76529726569,45012.47942596429,45072.82913599362,45142.633633927544,45329.31540361827,45488.705693329066,45644.81027660493,45857.464773352716,46064.71014794233,46282.930229059486,46484.45355706854,46662.0158150215,46838.88516889634,47067.27529374067,47322.17458750899,47588.67443664961,47795.02574146101,48082.78209957863,48391.21382131742,48694.795214509395,49051.01496589363,49396.21530726139,49780.82177410385,50117.662563045335,50464.44987826942,50790.38301591671,51115.55619425252,51382.77129921571,51612.658990938544,51901.10825313428,52120.22240402966,52288.128708377924,52456.549102848665,52591.330121914165,52688.716672505936,52836.61816556671,53012.50404268552,53177.728137699145,53308.70936020725,53410.29803875662,53518.77105459822,53585.245142608306,53620.51619535878,53724.80943498724,53825.21347108048,53812.40592150759,53831.114331616685,53912.832309345285,53972.22089436304,53964.844818692785,53938.73798116899,53915.89449833566,53924.34345773977,54019.383075163736,54056.3081570039,54022.82524380985,53966.364737315744,53962.29671982488,53951.59023423079,53909.971286055006,53916.63210590269,53951.88080690871,53937.24041429048,53986.25778988097,54104.76673898301,54199.56048721797,54225.84613869741,54239.88303421534,54257.51856059058,54266.19103743923,54292.54374415204,54384.87880049692,54464.11573459098,54540.8716250505,54600.90841065746,54679.09481276212,54752.90027295355,54897.58311481275,55087.863515360776,55247.186749838205,55412.00851345164,55542.967384215284,55670.21586539935,55850.41562919803,56026.45796852803,56152.54415900042,56229.07653201539,56232.496348917055,56294.008349658056,56431.873909458394,56514.4859569652,56650.630432442485,56776.62721593705,56874.23728397337,57027.97258233697,57220.443453841624,57492.66534956281,57745.93296598589,57944.95289861595,58133.109883440724,58341.49519699755,58643.15434016637,58908.58130557315,59147.90143345612,59322.24504020751,59566.035516981545,59853.45659893234,60074.1800754285,60214.97371375248,60290.36614780023,60409.18802132464,60539.63280196581,60631.185547254754,60644.44013171675,60543.29848805648,60433.685533247655,60351.76638981896,60177.109858645184,59929.05019868019,59680.92348348183,59322.78148207444,58906.0555584497,58440.647535401295,57949.669116696015,57419.70925566069,56908.18958380099,56362.024708035555,55780.879352197575,55186.524115386506,54690.1589262675,54190.798603391486,53710.21374585793,53324.534395281604,52920.83953867431,52519.82689140164,52198.94524800125,51948.1139717238,51719.075646290265,51468.66905315746,51259.12144888895,51082.833240369946,50992.19691660368,50963.60903544534,50916.40215115573,50844.362478776275,50798.87667880973,50845.99415612152,50912.20002319814,50980.283436809,51010.3912365903,51042.220120694656,51130.04012465956,51286.77055678017,51434.13560797401,51612.12254907162,51773.50214403894,51962.39673643074,52141.83654091794,52318.907060492886,52478.789088581696,52686.90618120506,52895.35854999525,53029.49136847155,53199.275219354065,53346.93084322582,53522.61555464454,53654.26732948629,53790.45650845248,53960.240359334995,54115.205003643634,54252.91410123278,54422.608545137475,54558.238930492276,54688.41549019999,54807.952619546966,54943.33713571276,55065.95880579458,55092.065643318376,55131.33765832635,55254.45106678618,55333.531538669056,55373.451754266236,55413.215507652225,55434.44966488477,55473.69932814829,55497.61569471547,55548.30945114011,55605.86519311252,55598.75733837573,55537.13357891245,55529.064599164085,55519.60981125949,55465.31742397755,55464.535112921614,55487.110374821474,55490.261970789674,55576.04796600914,55649.83107445611,55728.17393877196,55763.199122333426,55774.71027072791,55768.25061658033,55728.3527527276,55751.55386347221,55750.01159310479,55748.290508781734,55739.72979065535,55781.12522138658,55810.98715197887,55825.76165506383,55865.10072530517,55839.887957559586,55808.01436996632,55763.62380547808,55694.467508133355,55621.556117720145,55540.57574755857,55425.44191186928,55304.0048842436,55150.649565535736,54931.78128382937,54683.095775019625,54438.85826335648,54217.77715894904,54043.79118010893,53928.94791709756,53753.55377835677,53569.48716276731,53362.68882306681,53159.39970724579,52938.13978888271,52705.10050119168,52493.451832944374,52276.841077428,52065.95236849217,51889.21712508406,51778.79950747485,51699.31670419177,51550.744658797346,51415.65071530947,51295.353626651005,51099.77586266707,50919.57609886838,50742.63968976017,50536.5789576267,50337.71548720783,50137.48856037719,49968.86700020635,49794.34457949932,49570.35774831269,49313.33503882111,49091.09164370199,48904.454577500175,48686.63682778321,48443.91923474303,48254.42114525094,48064.565427847556,47871.200486564696,47632.08152438182,47399.13164366861,47242.82589469265,47079.72521540227,46913.160015721325,46777.194354199695,46636.601881575814,46497.7751967639,46375.80172727129,46217.03728640524,46058.2728455392,45863.2762269111,45637.456552679134,45346.68270906004,44957.47178285978,44582.29775217745,44167.11409892012,43762.212248112235,43384.31130460636,43012.646497803515,42670.53069717058,42399.22522297206,42109.18898692,41794.65523894492,41489.26335445206,41323.03343093794,41265.07535756533,41236.15220024016,41213.68869706258,41198.37775211069,41249.384432957704,41300.81579694936,41322.94402396012,41308.951831931096,41363.981826780066,41482.91545902675,41601.75968429562,41709.38333384792,41853.48503035129,42085.429082564006,42256.93401776958,42370.033844713435,42515.76721856204,42686.869822367415,42874.6691792809,43058.24405649234,43255.4087943326,43486.39172153374,43919.59088082205,44115.28040352827,43942.68023284438,43879.60360999151,43893.416988064884,43877.63665647944,44008.99785864328,44233.61053867466,44554.51453381951,44867.28249398262,45086.217830922345,45222.541120355265,45348.873180016664,45529.74349614901,45681.44478576718,45895.95447730476,46085.13964237447,46176.78179464123,46244.93226348547,46414.8055213458,46615.211262132085,46760.81052551395,46880.48176532767,46902.3194196605,46911.90831803183,46851.357442302404,46769.52770585152,46714.8776906583,46671.22473373708,46630.589262317335,46547.59723515478,46374.97471272644,46224.74863824232,46104.11627341703,45935.04767835709,45719.12982691883,45553.81632492737,45395.3648084837,45285.79655716378,45201.28461137827,45100.88057528503,45004.835129360574,44938.94218670633,44929.554454035104,44903.22409906675,44908.2532415692,44896.004485607686,44896.09389258551,44927.47574180076,45024.638774947976,45088.028322223225,45079.46760409685,44982.125756993984,44782.85995517492,44525.8595974278,44230.36953572864,43910.24785163973,43587.10868204936,43353.71176644704,43079.45586198042,42745.27493062913,42368.424519112654,42015.40106718553,41634.21441724472,41242.41068868765,40921.909024943,40632.3421755245,40393.80435869746,40200.99821102598,39971.46814721444,39726.60478670654,39535.74324080268,39425.392678426826,39371.972009178644,39258.96158921261,39206.72556242056,39210.30184153341,39222.75176319501,39259.766252013,39329.59310169138,39519.068839439016,39770.324798861126,40030.05206943179,40264.81244144588,40515.17433108978,40835.72069832333,41147.63929219715,41512.30800298548,41863.09628046707,42120.7895422923,42387.33409492184,42751.376956865424,43050.93503605545,43383.30547610587,43709.93151783127,43965.0766807886,44210.65529711906,44408.89291869318,44620.608642173844,44847.94823502877,45091.02345598024,45425.42790477609,45747.18126621023,46078.05413938214,46397.63938160412,46710.34028653387,47007.35026685599,47301.722741332385,47644.50909429897,47929.58324308196,48169.86449597651,48365.33050123817,48441.728763786414,48450.28948191279,48386.922286381996,48355.875713333575,48335.669736345975,48266.245218067794,48123.55168146511,47939.03803098656,47685.256324441,47366.36398629713,47116.4714832868,46944.966548081225,46718.78924593797,46397.572326370755,46167.639931159014,45985.875545248455,45824.965336914705,45719.28628913001,45667.20672454914,45603.0125144735,45542.372231766254,45595.34586612533,45731.132713691324,45847.02650869209,45969.469364818266,46154.76532635276,46376.71814879396,46686.580382177875,47052.52314240017,47386.34644584018,47834.297756468986,48297.850584727596,48720.96910726656,49093.840908269995,49437.16370310351,49799.217259790574,50108.90067921885,50402.468490894855,50600.97433340244,50743.28789034938,50895.43621485665,51030.17253043324,51158.38213662888,51250.896006929404,51328.12128402249,51412.56617457464,51611.697865926966,51840.3338599603,52087.47709840263,52387.683378181864,52793.90398191261,53258.03795552706,53661.06225980071,54111.51696580851,54548.62768037649,54895.30323687831,55193.18493523419,55466.23384550022,55768.38472704706,55991.96922683349,56167.11749638528,56317.67884703623,56425.32484833299,56506.01464581664,56545.97956490274,56608.944429033334,56672.13281060849,56730.00147700328,56731.05200899268,56795.737957446334,56853.092533718656,56970.19332292001,57205.89246820122,57489.71491929471,57821.41480701147,58206.378901765216,58727.62158246298,59246.15970208165,59696.25678017817,60080.17034294252,60338.17652919013,60504.1829352597,60641.48970144865,60706.06389118003,60791.29109278812,60906.201411032845,60980.67742355793,61019.16712750997,61034.0533893172,60954.81645522314,60787.446592741806,60650.408047486315,60395.754622907,60012.95864736541,59662.19272162828,59383.53352350397,59179.28328267137,59065.11057199366,58902.9039624815,58740.16091110241,58624.96002017976,58555.982536790674,58458.43952398772,58283.58182711385,58003.87209700014,57738.1769106599,57528.98693430268,57343.422751834725,57163.37945024722,57185.150049346696,57706.14686085545,58653.234976915715,59763.624937966466,60927.41321652094,62327.0123990789,64247.608393145616,66584.08094454776,69297.4039074664,72204.65060527928,75211.78724906294,78172.36520914617,80822.45508700074,83095.60514636102,85003.39359085484,86597.27413621833,87877.35854117377,88906.8798907852,89746.67963346001,90355.6752628893,90925.08595288826,91550.13013483647,92095.57975477932,92654.90980802893,93262.74314674654,93771.67001624942,94113.42818897107,94242.50951320046,94304.04386568593,94398.88231740979,94400.71516045513,94222.30353621287,93874.89037214403,93462.56774217698,93006.68156226655,92456.4263172658,91814.28305080927,91115.0534290139,90302.07577968547,89310.41828518132,88195.98265838416,86978.7290070926,85624.23564484545,84303.2475475368,83180.40766482445,82194.0028302673,81278.1848047,80458.81455645735,79631.46473544415,78814.24025466923,78039.23821917037,77241.39270083817,76395.93796681619,75528.33265403898,74621.29886404263,73741.73536798183,72432.97367489025,69939.39071171173,65681.87513135375,59635.72825619319,52353.26169172069,44604.8283105884,37312.57168204447,31165.573735901566,26322.01776766989,22433.82006094695,19068.362601800276,16281.41299264586,13968.588586877417,11967.503961027141,10270.134838835578,8807.324922958007,7549.704021180156,6529.033962373014,5788.207744146317,5372.4205937886945,5181.670806607104,5361.110611094309,5968.809839345198,6885.164306779422,8137.376086399089,9577.588388632345,11089.438031844858,12610.54129726187,14043.198709869232,15407.48213618781,16698.29537848179,17903.25557032294,18959.80017898085,19889.65510006608,20720.022406580738,21400.61067350038,21866.778655860264,22066.446789079524,22008.958102340475,21890.918539871996,21813.536800567723,21701.621616080003,21659.779150459668,21810.139335410517,22218.103375208782,22931.168726821987,23951.21293678438,25220.61320789018,26938.277714047163,28933.975569483708,31027.70817610123,33238.563923664566,35549.399024176484,37819.79981896876,40028.30863336428,42239.18673267207,44363.273008259894,46302.26448801333,48139.95786189531,49840.1656556327,51393.83541272109,52791.914676656095,54082.52675324998,55242.35877303586,56278.71975645063,57205.356026334295,58037.91380380557,58752.499074041734,59306.08472896633,59738.45687370979,60080.37150864262,60431.42800705767,60774.41552572436,61069.011517645304,61357.0808001853,61590.81299195445,61883.77730653016,62207.497621476374,62557.391829179745,63004.046738630146,63609.533144179964,64323.49256557138,65091.38674633345,65823.94281911169,66535.75647303539,67189.88027451996,67806.00611043049,68327.6734742729,68698.71243223101,68963.1782726262,69109.73866101964,69115.52776283358,69037.87780259583,68823.47986978052,68533.33187500619,68193.11597265195,67806.00611043049,67316.48055511482,66731.24483004151,66126.49603205873,65496.28859714134,64803.60803647138,64083.9265684994,63373.16344656509,62643.311934865946,61886.750088542714,61199.478650030935,60627.38575069735,60012.17633630948,59506.289304052516,59119.00062787541,58774.35908011903,58457.81367514297,58174.907645572144,57913.61575288961,57641.14798797941,57294.80770764443,56952.84836922269,56622.42253093988,56265.01813709953,55854.59540541118,55432.6838770728,54984.17377283261,54495.85521171751,53993.52210682895,53403.056073553096,52769.69704266752,52143.11059035189,51463.12582053254,50683.27345648688,49881.851659041844,49110.78353056712,48325.0079542408,47558.72309907951,46838.39343051832,46115.24744215578,45454.23930337898,44855.45842116576,44239.57845444423,43673.74404355813,43132.675365528514,42683.18178453229,42291.91449784214,41928.16220857647,41653.57102794302,41431.55115026845,41247.19396200108,41140.64319618264,41059.95339869898,41014.847578388166,41002.196491026465,40961.94099926246,40915.00233590631,40812.56429106764,40638.33244303852,40399.2358326001,40197.0866557463,40069.234677461944,39943.86374281213,39813.955404037886,39652.441698603834,39543.387537406394,39457.57919044247,39349.21793332314,39312.426961949706,39333.30349127096,39399.33054439194,39526.3778598759,39718.11112381353,39926.38467864808,40177.01478922544,40563.096471201956,41004.36461023863,41480.21089794766,41991.484700618355,42619.322850623474,43342.08885933028,44038.703327024385,44824.79182777308,45591.2107934011,46295.31309548773,46908.4214458968,47430.424085906045,47888.9030681733,48261.59605522109,48587.506841123926,48843.791943048476,49050.99261414917,49197.21772637579,49317.067780145146,49406.18418528845,49457.19086613547,49448.94307243146,49471.98772096488,49499.525070133815,49501.760244579345,49472.14418317607,49349.18723692742,49200.12345315498,49148.379164740945,49108.77187356614,49033.49119824066,49015.38628523186,49024.1705208028,49025.824549892495,48985.99374127314,49007.56317467251,49061.72145148772,49178.66577847789,49302.67325671593,49468.09851742966,49586.71922525397,49734.8889392482,49936.389915512795,50159.41562168785,50407.83290956413,50583.36115877166,50718.09747434825,50833.58893794882,50869.53054303295,50790.114794983245,50608.52922302833,50358.48025780681,50031.63069863686,49599.996161460425,49001.59525890294,48315.15083493601,47623.11847485525,46860.05227089552,46060.68683394037,45278.4875367269,44532.8109899534,43775.60094304096,43026.10224796561,42339.85898969877,41706.41055183537,41077.27600065184,40536.47554355569,40081.17050900108,39648.57484681307,39309.07420028141,39024.62590034317,38784.07642651516,38566.01280760918,38361.159069676294,38147.4540409391,37976.731416789466,37763.87575434158,37473.39248340041,37157.182354591176,36859.03243530184,36572.95245801836,36300.10471345243,35983.02286660944,35746.80963120575,35526.15320994297,35260.63683755837,35051.580971667885,34901.75722858396,34802.38137273567,34761.83530829374,34770.59719212022,34786.01989579438,34889.57552785582,34893.8894145357,34828.443506770556,34693.88600514961,34434.80693516814,34137.97576880166,33783.857081396236,33383.09030331258,32959.45769065114,32548.565572329233,32133.06899464953,31719.919350137636,31300.019478800237,30830.56579000542,30396.338450472173,30007.12752427191,29640.603618693785,29333.75887081133,29082.458207900312,28795.03712594952,28539.914314736645,28334.47943144792,28186.399124431508,28050.880497798982,27950.588220428017,27842.450480753243,27766.07456994946,27770.41080837379,27778.03275323305,27828.480640468675,27926.24717071619,28006.35582284401,28195.853912336104,28491.947471135554,28759.49785226558,28961.35645644146,29080.535957877157,29182.59402306009,29288.876567945073,29414.87335143964,29532.309416807824,29626.43261270912,29755.60334391634,29881.309554732987,30068.304248846085,30181.962869401323,30305.702126705903,30342.694263779435,30378.38999967456,30419.94189261698,30451.815480210244,30511.785210583832,30457.895154702088,30402.462828452928,30390.191720746963,30426.40154676456,30524.57040841227,30677.054009086372,30856.694979273678,31043.868487342417,31265.106053961048,31542.848830562692,31840.529363218473,32201.666498382867,32626.59551222271,32986.27978399751,33384.20789053534,33822.74911674847,34217.79384825157,34700.25625231937,35166.46893816816,35616.23074009785,35992.701171958586,36340.27079823861,36696.892881023035,37011.761905164945,37263.1966785427,37488.45755916328,37661.147136824984,37850.01937747233,38053.420252015625,38251.18848695618,38419.22890177118,38599.87570045897,38851.8692674481,39052.38676695666,39162.82673631034,39281.49214762356,39416.09435273342,39549.31074968705,39705.39298121846,39925.2223879364,40196.79608306838,40495.50479596911,40923.42894356596,41411.21106281412,41933.41486852347,42569.970198866155,43371.79432771139,44231.4871229514,45158.07868934616,46077.316531815115,47049.84093306553,48050.68499454081,49071.48916381469,50135.45455163176,51272.86777172897,52481.89598106098,53695.752167195344,54941.459589178514,56209.630514339275,57485.333977381466,58710.72366365477,59878.78112540021,60972.608443809564,61938.38261823447,62812.782861326086,63534.99007642151,64192.13136340754,64779.736373393105,65241.366951628566,65633.95299124157,66105.57479924856,66634.86410795023,67158.11844564897,67624.17466928657,68125.4795939302,68641.2013937475,69092.12548638886,69534.89119230404,69913.86501954378,70344.47137647527,70816.16023971561,71278.75194296264,71699.67999454499,72108.98513901058,72529.80143187064,72935.77616641238,73230.39451007778,73511.82532451455,73887.26757613034,74352.40737824529,74940.03473997531,75606.51905614365,76085.62869854317,76506.57910186995,76984.34763960214,77384.08623744086,77645.84751675696,77849.74012967828,77979.78257891924,77925.2890259372,77760.46726232377,77451.96848535162,77026.34656743366,76537.20099177373,75960.5259848268,75341.00268375906,74777.98459267433,74140.8034134869,73525.23637118774,72942.59344847125,72304.71936520569,71760.94612609698,71292.6770797583,70842.78116736189,70460.38752322049,70057.20675673566,69541.44025342945,68768.29341272038,67940.51890856253,67204.52066713819,66494.87513242663,65910.73464283165,65444.27608779384,65174.80345664066,65095.90179871343,65159.22429075531,65316.69233044295,65556.1242170482,65846.69689496719,66225.55896348464,66711.82116410985,67229.8675453505,67741.16369976565,68237.59594411802,68760.53735739438,69338.2181928418,69865.98758292051,70250.4822910407,70573.39794318652,70939.27364817544,71228.70638712721,71461.8127300516,71753.32418123772,71959.56372732684,72096.31169990441,72340.21393540072,72589.05590642165,72694.5561402507,72672.24909928431,72635.63694186651,72527.9238853364,72235.51836437207,71875.25294724142,71428.19570639083,70920.40877585516,70377.28373733566,69815.47264045151,69253.84035752302,68672.7620569184,68035.69263645323,67409.7096812379,66792.5109615935,66182.68831761937,65547.83171985528,64951.442474298776,64395.68870016202,63845.27699295009,63343.25681248389,62869.176312586824,62399.901437747656,61933.30877224312,61477.444944077135,61005.756080836785,60553.870863183845,60040.719513978904,59502.17658307274,58946.40045719153,58417.20055546767,57878.098830950126,57295.29944602245,56708.90143023747,56135.89210938122,55602.64654191095,55066.58465463933,54554.43913393487,54083.6666922172,53632.630840853555,53235.23917618265,52807.136214630154,52357.46381967829,51972.96911155809,51616.50349098486,51326.891938077446,51024.40578036378,50761.43750684709,50411.36448518807,49998.79598603201,49753.8432185463,49707.575107523815,49713.8335959713,49722.0366861864,49779.458317692086,49875.34730140535,49936.27815679052,49978.03121543303,50029.10495151341,50058.922178616784,50102.999818682656,50134.716944064734,50141.7353918237,50201.70512219729,50225.57678527556,50155.57112164154,49965.38012807132,49705.31758133383,49495.56881136523,49305.75779745076,49036.06164885303,48794.39458780224,48522.485616503436,48308.959401721884,48051.2437881522,47795.24925890556,47543.85918901672,47221.36822001555,46885.44385259675,46581.54953498239,46290.30630472974,45953.57727451054,45608.82396803188,45217.646088319554,44747.6112541689,44232.15767528507,43698.33096245897,43118.81728396622,42376.873478516754,41513.62675590834,40604.02251529962,39662.52233535318,38708.92986165641,37679.542622511704,36601.02624905422,35405.029106739654,34162.22741153567,32940.95044624215,31645.465689357006,30333.75356599731,29077.5631758646,27837.577800461986,26690.28510931553,25515.544475977957,24205.285216007855,22811.60924573055,21354.543728177992,19955.99507760943,18592.38220362451,17313.28127542511,16162.68052609927,15091.60728354541,14083.431849888784,13143.60805077649,12313.218392517376,11653.886634574728,11126.363113685025,10768.198760533185,10605.969799276567,10548.36935381524,10489.047824030857,10476.195570969054,10529.906812895157,10600.873601540758,10722.467091377628,10994.957208032276,11316.28588632177,11738.51033908252,12239.122359648032,12788.572941848392,13382.771716448275,14075.139352695865,14785.343681018792,15449.145787852502,16152.622241094381,16870.828493932306,17474.862036092527,17975.69757410259,18418.5973904845,18825.399139571087,19139.329390445877,19372.525140348094,19491.011737705678,19631.44774811837,19715.847935181613,19692.624472692547,19613.11931766502,19444.877737149924,19190.000795126056,18816.570200511243,18378.92304407633,17946.953230733066,17488.89893161046,17031.448129588145,16604.552162236236,16119.38519708934,15614.548696821774,15092.300187623525,14609.122527733152,14184.059403426578,13803.029215696957,13511.361302299656,13308.429814389923,13170.117219700483,13143.719809498765,13207.958723063317,13326.73589309882,13575.510808886387,13866.329355994387,14247.739523379747,14695.24379911945,15249.477654633243,15916.766633601981,16722.524669471346,17747.530966702816,18857.809169031283,20033.555630869345,21201.881313548245,22405.47804897762,23791.643833117945,25169.919451465543,26538.092081319344,27860.622448995407,29115.33762399407,30299.84596965861,31387.34774438712,32395.254957110283,33345.40526216093,34274.9919623127,35181.93634533123,36081.28113523497,36964.06328249732,37871.63351436061,38825.15893282401,39734.20437982135,40617.76883813964,41508.955241317184,42376.113519205275,43216.04737234681,43998.24666956028,44735.31779471848,45437.60960550423,46120.79067478069,46765.77261278303,47411.64862056358,48039.196197890786,48585.62929458968,49043.03539312308,49482.15776469204,49824.742951958535,50208.5000525117,50584.97048437244,50879.83469722685,51160.25968316313,51400.07154942412,51601.5278221998,51850.995642065485,52065.01359522505,52209.60703010643,52285.67001648784,52322.751560539196,52244.72162064572,52026.903870928756,51735.41477148709,51339.677135905884,50855.2030748371,50293.63784714197,49679.85894439923,49087.068329700036,48571.25712290491,48116.66734417288,47680.60716159429,47484.06827259878,47471.48424047044,47511.13623513416,47598.64331467669,47694.71111234559,47834.94595705819,47965.54719991055,48089.46527117077,48259.472639497835,48458.62668259462,48640.703992927556,48785.051558619925,48873.60917015185,48978.0588719915,48991.20169773122,48865.47313517012,48802.55297452843,48687.665008028154,48472.39535717909,48239.84780786608,47934.56768209549,47577.63267488869,47051.91964529987,46473.41179530761,45903.88934658639,45219.76950404281,44451.89767502519,43624.3466883119,42771.94056176431,41910.43727522341,40977.49781340335,39985.46033924346,38970.66878922806,37926.97643363195,36810.976184722924,35760.91358195705,34862.86519323173,34157.28767601105,33722.09921146622,33433.9405219484,33349.719148840806,33373.52375668571,33546.34744481414,33892.71007689358,34414.779772136186,35097.714972223635,36048.24525693003,37149.001616120535,38302.351630014375,39552.752918333164,40826.087096463096,42048.43694549047,43213.432218245536,44281.778547975846,45289.39518802109,46215.58442301565,47039.15679921589,47694.956981534604,48309.27232614426,48840.19331219117,49315.525509777726,49783.83925960532,50234.29396561313,50564.98802482939,50861.12628711776,51049.77501032055,51271.34785310601,51612.86015663864,51977.43946044916,52221.6769721123,52505.49942320579,52746.942966812014,52850.99033725147,52919.02904737342,52979.468164380574,52985.36902491678,52865.80954382534,52761.73982164143,52583.32819739917,52328.29479316411,52010.20711782064,51608.45686298095,51093.98676085315,50553.67804213501,49961.02153790254,49361.167771955465,48797.05444539242,48276.7952414507,47845.4959804411,47386.56996328473,46942.86548410243,46485.30292335784,46061.804421163135,45671.27474204001,45264.830620864705,44855.4360694213,44438.151352185174,44047.62167306205,43510.55395728993,42885.64388580846,42230.64836629014,41548.71899470317,40899.981963632345,40217.247929244986,39555.278665456615,38839.486401019865,38143.76600310398,37474.97945725673,36854.62914164414,36186.15552021927,35578.85862336858,34907.41221993115,34209.70251675874,33518.34070901164,32835.42786066864,32163.8920502534,31493.630289272107,30824.307301557936,30199.196064376363,29659.15556659169,29146.51830750922,28517.719032492525,27912.500847876174,27407.79845807534,26959.489519535247,26666.569908448448,26517.349662464818,26496.361374421285,26543.791776155445,26738.028435472064,27020.44272666487,27401.115286483204,27831.22990503668,28375.025495889844,29029.261056096682,29934.506706536617,30967.760797472096,32027.881685242857,33149.31340805452,34365.42712037887,35452.21363928481,36516.89428292445,37621.8304183281,38665.343959968566,39609.1463695939,40413.42919032922,41125.444009953026,41795.14697732293,42305.97374510452,42601.84378645942,42744.090288173,42740.134029404406,42536.50963741656,42071.0792626237,41471.851345521376,40887.71085592638,40473.734196869635,40290.96398245859,40019.23382511542,39507.24476662216,38568.91853438837,37309.375382587365,35840.083460817754,34223.94057797678,32586.429427436524,30900.30323270598,29337.737481324373,28040.039901738157,27043.26385775374,26198.61378653214,25500.412344981713,24760.23432734422,23904.564846106154,22891.24851122481,21834.390978144525,21006.571770497772,20376.18552162475,20048.978334543506,19983.063040144807,20079.30965176936,20247.05949390644,20453.835481862483,20744.564621992664,21064.038105492367,21378.16952206725,21703.499162614247,22132.94322883406,22631.56594414305,23137.38592116665,23701.543951218602,24400.862979991794,25205.41402166057,26035.893086897504,26841.60641927796,27708.697641932686,28599.772286387957,29530.431870273576,30495.647251087103,31537.05972874877,32674.74116977944,33818.6810992576,34963.33628455833,36016.12580014775,37088.78601655793,38303.759789915064,39657.761413784196,41115.20691099249,42529.31237570195,43718.738105146665,44726.80178008101,45616.17769195768,46288.83108959569,46812.95714532818,47272.710177029396,47674.9521702471,48055.691785298804,48501.922011604554,48971.308645166,49468.41144185203,49987.79892776,50645.67782231305,51290.458594615295,51956.71939333909,52637.262956769824,53249.72310658969,53787.416671206556,54228.70716198769,54601.578962991116,54815.015770794846,54831.82428262524,54618.074550399135,54196.61005694987,53522.14616801097,52674.29979733226,51714.873518332664,50584.07641459422,49377.05986226319,48040.89493046939,46585.25992456197,45126.339212219624,43788.87787924742,42557.252056271085,41381.14796652174,40263.29252282292,39114.52461654242,37959.69938751452,36839.921693792545,35745.49087828289,34699.60805173017,33656.407434512075,32532.137040154583,31457.643980699064,30343.67774053547,29158.409435559446,27995.470523294276,26882.621870353447,25734.85979257343,24650.68842776876,23685.763619633155,22738.63080008397,21767.223986056328,20834.97742831438,19965.65103121412,19242.460339362664,18580.692241274388,17887.63170094868,17219.448652201732,16578.66884215699,15972.623642995793,15457.035953645225,14969.209130908148,14486.232636717874,14103.906047809845,13739.1926335326,13404.788184736752,13026.730779019688,12618.051483398853,12171.485980926274,11697.651350218219,11308.842755418153,10980.27211192514,10605.992151021022,10241.435198954965,9920.240631132201,9682.149849194271,9538.472835835557,9396.114575399706,9285.428736857026,9232.320992031217,9202.660227139024,9136.230842617852,9082.586655925114,9071.924873819933,9055.116361989541,9021.633448795492,9012.73745450228,8987.524686756693,8894.519078078161,8704.573953696961,8497.485041318541,8358.725411739995,8264.69162281652,8152.396458673055,7979.684529266898,7772.506209910657,7574.961492414653,7342.771571012923,7093.303751147241,6874.346062463053,6579.079518208447,6204.687798582054,5830.184320233384,5538.00231671361,5231.090513597788,4893.534468833741,4534.788970326063,3976.732966510411,2993.4350244325433,1427.4718078937303,-829.3838297586238,-2674.76620373323,-3146.656232673673,-3157.8544566457817,-3160.111982835768,-3162.369509025754,-3165.163477082667,-3169.00797712898,-3165.521104993952,-2011.7911114443675,4860.185666106423,14368.170722504941,20354.92901264775,24690.69805034376,30004.601777148462,34979.4071888217,42226.31212786581,44353.88527558867,37826.59474928317,24981.85187361859,10746.674030622726,41.52954119796052,-3075.600037050252,-3163.978834626536,-3166.214009072067,-3169.119735851257,-3172.137221352723,-3175.557038254385,-3179.1109656227786,-3181.0108639014798,-3184.2742185919547,-3186.464689548575,-3189.01278841648,-3191.560887284385,-3194.6901315081277,-3197.8864309652367,-3200.076901921857,-3202.8485182343147,-3205.910707224692,-3207.4753293365634,-3209.531689826452,-3211.8562712498037,-3214.6055358178064,-3217.3771521302647,-3220.1487684427225,-3222.49570161053,-3224.9320417561585,-3228.061285979901,-3231.5258063704737,-3234.275070938477,-3236.1526174727223,-3238.3430884293425,-3239.527730885474,-3200.4121780886867,-3099.203479195056,-2919.8083781967616,-2735.652355629487,-2753.7572686382855,-2948.8432942442055,-3195.7630152419824,-3258.7278793725827,-3261.9241788296913,-3264.159353275222,-3266.7074521431273,-3269.2108475221216,-3273.256513268532,-3275.8493156253476,-3277.6374551817726,-3280.7666994055153,-3282.9124668732247,-3285.0805860853898,-3287.7851471644817,-3289.8862111432804,-3292.546068733462,-3294.781243178993,-3256.3809462047752,-2984.628437117152,-2470.851239067464,-1782.5963237996489,-927.2174152395029,-9.454787904594887,731.7290582333873,1368.1726298538006,1949.2509304584182,2397.76103469861,2736.345259707601,2913.6392967270967,2994.239687232934,3146.656232673673,3357.9249212652353,3638.1710932458755,3988.132356182618,4363.48520082059,4739.5309495366755,5109.474672016463,5415.447701865161,5771.958025927309,6091.386805938102,6286.271665843924,6417.476405796577,6532.073799618936,6671.191057108767,6876.916513075414,7189.2597900938745,7686.675511202277,8382.75353702945,9113.677932462446,9854.727668133697,10694.21448638612,11521.340789954756,12321.779110643758,13123.469129022256,13920.130004898312,14629.999057054409,15221.046235686093,15817.010798097945,16500.34832958559,17241.286306534566,18013.449670487604,18801.885104404104,19562.78318915167,20283.06815422394,20944.880955801127,21516.839744667977,22067.69848676902,22590.930472723303,23223.283675108396,23738.133756891937,23920.009901524772,23572.596737455933,22526.400986480832,20461.18920578828,17549.42745559543,14014.320256032976,10399.216163064977,7566.646643477278,6244.496255456956,6617.636277393852,8413.688351355595,11211.813832737666,14678.10001112223,18464.686687551344,22277.559015459898,25961.61824007252,29506.783724639863,32979.686019383196,36426.280310902635,39699.00038230424,42763.625712826935,45654.712099398625,48368.23622801736,50892.17286016618,53326.300183093575,55632.39671378097,57836.72575196335,59984.63898714054,62110.42399530697,64196.355843109595,66263.06519068065,68207.599903059,70054.8374718234,71837.23262992295,73428.6321316519,74902.86378894614,76168.93365012809,77229.21100011004,78185.70920058599,79139.21226730493,80108.51801735378,81145.19192519093,82340.36205296064,83708.758200259,85193.62928791397,86687.03874195085,88118.93619524673,89513.79680798016,90855.77319333234,92106.75562700698,93274.83544049686,94289.98461842354,95222.54410058787,96030.44790392494,96707.68340917629,97312.18633797007,97781.4835645537,98151.5613975002,98391.32856027229,98458.51790410494,98373.00012981895,98001.38002650501,97132.09833289366,95823.18017759087,94160.25509360494,92128.88385401772,89470.03209233667,85645.49215382244,80604.16795065021,76219.71681353055,74516.82681045853,76610.22414090922,81209.90022538904,88208.16435911231,97608.97280084764,99489.40271012815,89704.05485678374,70633.65824623803,60576.2002558947,56392.73600491715,55146.53684455596,55446.38549642391,56497.65509339036,57974.636015252596,59702.53762037011,61426.259449274476,62921.345284145515,64237.885384307556,65426.10411955168,66469.01416409184,67455.35194341563,68255.05265653762,68931.46114724412,69588.89300690807,70194.15589501332,70712.60460765417,71097.05461228546,71338.72167333623,71394.28811005213,71236.35068373093,70887.97639465051,70333.18374552534,69660.48564439842,68876.38644890624,68028.51772648309,67153.58104152454,66169.366677924,65197.53518075171,64272.28471902427,63420.99617969945,62611.05836761694,61748.28103164209,60738.18334796231,59756.002993107206,59032.32056287773,58527.23819342115,58103.09149063725,57752.77259978922,57459.60711951341,57197.42115705266,56937.671534737536,56677.63133974449,56325.09962619539,55986.269531997394,55628.03812361218,55219.18001403571,54829.63381166862,54508.43924384585,54282.239589958146,54173.76657411654,54149.537283126985,54191.15623130277,54203.60615296438,54245.98506045164,54338.029544118595,54449.43063848384,54490.40138607042,54439.70762964578,54418.65228636889,54436.42192321085,54457.141990320924,54384.94585573028,54304.30076173553,54196.1406703163,54062.87956987376,53930.5795944428,53916.58740241378,54018.332543174336,54216.860737426374,54430.521062674656,54606.07166362664,54756.16362764402,54907.9096207511,55089.51754445047,55327.89889906632,55587.69322487035,55822.543003862265,56032.15766336414,56259.36314575233,56504.67354114933,56786.14905907501,57083.76253649742,57245.79033205394,57351.20115890517,57412.53434569053,57421.922078361764,57387.3439296894,57271.338375966356,57139.50778716896,57013.66746588558,56917.15263332756,56862.59202511216,56854.70185931944,56944.108837140666,57054.258233816414,57255.334526936356,57538.97816407421,57939.09674156866,58462.306375778484,59024.16217615154,59580.161819477304,60114.74849161488,60659.19228305725,61175.7410974194,61601.63123627082,61933.30877224312,62195.29356900377,62464.274461778936,62690.94350230021,62824.20460274275,62917.724301543756,62944.09936000102,62840.96841108423,62621.60839099984,62451.064580805854,62342.90448938662,62129.37827460507,61844.9970299002,61560.88400612879,61300.86616288021,60961.05259192617,60602.06122422949,60195.95237922101,59841.341953437564,59586.30854920251,59437.28946891898,59383.24295082605,59407.6734075157,59454.20973947165,59550.05401969601,59737.29458299811,60009.65058918603,60243.338077466266,60387.752698392,60552.86503468335,60737.244574695185,60977.101144445085,61288.84092436325,61574.831494668906,61793.09627927498,61948.776179406195,62154.434580139474,62397.39804236866,62608.510268749036,62730.81901440847,62772.2144451397,62640.11563540884,62372.22997811199,62067.41923897496,61744.3247728735,61372.03411722591,60982.912598003466,60533.30725828496,60021.04997885823,59526.11530138437,58984.19725706545,58363.69047924167,57772.41978316543,57273.35003296733,56850.47737961738,56587.1067747005,56562.83278022204,56538.536433999114,56523.51606172515,56428.18587162327,56196.73355778856,55920.10836840968,55579.601893377534,55122.687533222146,54554.79676184616,53859.702212775024,52994.846164565824,52080.63746459931,51146.2227876452,50183.868430121955,49201.39750258893,48196.46307187832,47236.47799926734,46317.06134284274,45432.37929730169,44683.64056153781,44099.947106831925,43504.27311709799,43036.071125992676,42678.15264202984,42210.2635753469,41489.464520152156,40355.0240820675,39424.967995282175,39715.18304528988,40840.59337861459,42843.33203355456,45863.76796528912,49235.327450672085,52330.48526412073,54564.519770684215,55788.90362845703,56142.530577484446,55965.50476139841,55483.26587477516,54801.448261910475,53857.48939007395,52511.17676629744,50624.53307205833,48447.11553420014,46197.32304779566,43768.11310864844,41146.09702182973,38483.40076010236,35876.27093509089,33445.9434087209,31245.145946162458,29312.725879278885,27546.803956842898,26035.91543864196,24726.37143449443,23675.861796839454,22898.088145028134,22365.62488861381,22014.16605879856,21838.481347379846,21812.240399389317,21879.69796415543,22078.069696196282,22390.345917981376,22860.55956608767,23392.240511446063,24025.219562675902,24767.498644292195,25459.486300884048,26010.300339496178,26360.730989066484,26445.444100552097,26500.407040167695,26584.40489583074,26589.657555777736,26663.842995624902,27103.725326505344,27785.431180647753,28862.114711059894,30564.62473447618,32522.883417950085,34541.2012387754,36566.62691433751,38742.18925740591,40890.393065261014,43025.83402703214,45087.134252445016,47013.02760994764,48956.64590080332,50885.959075207604,52747.34529821221,54540.335183183575,56171.252569109514,57732.94660245736,59193.58839912277,60516.29758075447,61831.63068671593,63164.73342951935,64506.754518360445,65761.96143173712,66932.63404758382,68048.05315113702,69212.15435411387,70367.6054319865,71437.06934893958,72474.41380911038,73493.6980597613,74489.82590315651,75511.54649395305,76527.70150038022,77540.43668990573,78581.15626348928,79598.16063620575,80536.9115515842,81540.7507468165,82449.52797288037,83295.31798306918,84119.65031858091,84924.35782246088,85706.02067780742,86471.2550009793,87219.92668150982,87930.62274821076,88530.25299671329,88995.41515057268,89298.1248257309,89339.43084948431,88959.11591757726,88027.85283659135,86635.58502621473,84830.30168179295,82249.74808093884,79000.76556214876,77185.13336004417,77170.2694499814,78183.80930230729,79520.48832422357,80427.32094851983,80682.93549811072,80319.6078919897,79432.57891328084,78141.11747039766,76633.26878944263,75222.02434802346,74082.86769185873,73316.71694716418,72871.17962493654,72478.0571434566,71800.97810041644,70628.60675199113,68913.89267610224,66691.95046328909,64241.34990469812,61898.44005089284,59957.79454204971,58582.67051967031,57975.41832630853,57961.22496857941,58268.22617867305,58838.21801402784,59724.55408865859,61076.5664072712,63011.37811081149,65224.357274098074,67515.25461855586,69792.65150936264,71897.87291263019,73663.01252401025,75029.21820035198,75914.32492903768,76267.63895364273,76115.02124250188,75612.86695156895,74772.3519530716,73563.18963327285,72133.05796778893,70577.2647949773,69012.8885522948,67451.3733329026,65862.298412597,64335.24958315487,62915.332664887035,61733.68534251277,60883.89437006645,60305.87825845221,60202.65790255761,60578.59189255141,61416.402329969686,62896.668958266855,64986.82528577153,66783.95024346713,67127.22833481173,66317.58109540715,67786.49303752101,74906.50712329235,85153.03851998312,94455.11930645935,99075.7836789827,99555.11683882677,99593.42772882315,99631.9174327752,99670.45184021615,99708.87448893482,99747.43124812022,99786.03271079453,99824.63417346886,99863.12387742089,99900.07131100552,99913.32589546751,99907.11211050894,99902.86527906243,99898.86431680493,99894.81865105852,99890.70593007874,99886.70496782125,99891.93527602378,99911.00131404416,99907.26857272013,99902.9770377847,99898.95372378275,99894.99746501417,99891.06355799003,99889.81186030053,99911.00131404416,99907.51444190914,97665.92504571975,78420.49192434453,31514.462115104452,518.5157678742132,-1831.747809856869,-1835.011164547344,-1715.6975526449148,2631.0461915786495,17344.238441495712,34805.152989048125,49709.184433124596,62396.9286557351,73901.21506467045,82371.76625392036,83010.4449999863,72069.91428970269,51426.53601485921,24707.931245318803,2394.47532826368,-1893.0139414088658,-1912.61642129617,