2648 
2642 
2663 
2702 
2724 
2714 
2699 
2650 
2627 
2671 
2692 
2650 
2663 
2655 
2614 
2596 
2633 
2687 
2689 
2675 
2669 
2667 
2680 
2697 
2644 
2632 
2649 
2669 
2653 
2660 
2683 
2719 
2691 
2660 
2687 
2704 
2654 
2638 
2658 
2679 
2681 
2643 
2633 
2619 
2608 
2570 
2577 
2567 
2583 
2611 
2605 
2583 
2589 
2617 
2601 
2574 
2593 
2563 
2580 
2580 
2643 
2664 
2803 
2935 
3084 
3164 
3052 
2870 
2693 
2537 
2334 
2293 
2378 
2468 
2566 
2617 
2600 
2579 
2614 
2613 
2617 
2610 
2623 
2595 
2577 
2630 
2618 
2637 
2661 
2654 
2623 
2636 
2661 
2670 
2692 
2680 
2731 
2755 
2745 
2671 
2656 
2722 
2715 
2704 
2772 
2815 
2789 
2796 
2819 
2818 
2809 
2823 
2877 
2892 
2896 
2899 
2897 
2925 
2943 
2866 
2823 
2850 
2893 
2832 
2789 
2762 
2727 
2736 
2721 
2677 
2616 
2664 
2676 
2612 
2614 
2594 
2624 
2610 
2606 
2584 
2569 
2610 
2591 
2622 
2617 
2565 
2526 
2555 
2596 
2566 
2537 
2557 
2609 
2611 
2600 
2580 
2638 
2647 
2598 
2626 
2603 
2566 
2536 
2552 
2620 
2610 
2597 
2584 
2586 
2603 
2606 
2586 
2616 
2624 
2626 
2588 
2593 
2628 
2584 
2576 
2598 
2608 
2595 
2546 
2540 
2578 
2580 
2575 
2589 
2593 
2556 
2556 
2569 
2576 
2544 
2521 
2570 
2586 
2557 
2589 
2556 
2582 
2598 
2600 
2567 
2585 
2617 
2619 
2615 
2613 
2613 
2621 
2606 
2595 
2608 
2600 
2562 
2524 
2535 
2545 
2522 
2524 
2561 
2570 
2531 
2516 
2561 
2562 
2523 
2490 
2521 
2560 
2549 
2527 
2520 
2493 
2505 
2492 
2571 
2705 
2811 
2966 
3091 
3073 
2955 
2735 
2584 
2333 
2243 
2297 
2369 
2425 
2527 
2546 
2544 
2517 
2577 
2568 
2571 
2579 
2573 
2581 
2575 
2574 
2585 
2594 
2583 
2569 
2648 
2633 
2590 
2637 
2581 
2597 
2627 
2659 
2649 
2688 
2699 
2656 
2679 
2711 
2707 
2708 
2720 
2751 
2753 
2769 
2764 
2747 
2795 
2831 
2814 
2835 
2824 
2760 
2774 
2809 
2799 
2765 
2770 
2775 
2767 
2714 
2639 
2665 
2634 
2591 
2575 
2574 
2582 
2552 
2512 
2506 
2518 
2509 
2518 
2527 
2477 
2473 
2540 
2545 
2534 
2559 
2540 
2500 
2541 
2505 
2510 
2510 
2513 
2500 
2514 
2536 
2520 
2520 
2543 
2579 
2530 
2520 
2512 
2505 
2512 
2531 
2549 
2562 
2522 
2533 
2539 
2505 
2587 
2579 
2551 
2555 
2522 
2515 
2496 
2486 
2510 
2511 
2539 
2563 
2483 
2474 
2517 
2501 
2484 
2483 
2526 
2492 
2474 
2551 
2536 
2529 
2506 
2476 
2426 
2458 
2488 
2521 
2507 
2503 
2549 
2552 
2513 
2560 
2573 
2539 
2512 
2544 
2523 
2569 
2569 
2581 
2553 
2524 
2535 
2559 
2521 
2527 
2548 
2496 
2476 
2474 
2460 
2467 
2482 
2498 
2494 
2481 
2507 
2543 
2510 
2432 
2462 
2462 
2452 
2434 
2471 
2460 
2498 
2589 
2739 
2905 
2998 
3044 
2971 
2740 
2571 
2352 
2173 
2225 
2302 
2339 
2381 
2487 
2525 
2522 
2522 
2523 
2513 
2516 
2533 
2497 
2484 
2506 
2529 
2495 
2554 
2551 
2532 
2541 
2550 
2518 
2513 
2538 
2608 
2617 
2610 
2567 
2576 
2592 
2608 
2622 
2604 
2606 
2658 
2689 
2703 
2675 
2680 
2673 
2697 
2748 
2808 
2800 
2760 
2754 
2758 
2737 
2726 
2702 
2692 
2675 
2658 
2614 
2595 
2528 
2521 
2545 
2535 
2533 
2547 
2468 
2486 
2495 
2465 
2456 
2483 
2473 
2449 
2457 
2448 
2433 
2389 
2404 
2452 
2447 
2434 
2442 
2473 
2535 
2523 
2489 
2460 
2474 
2459 
2458 
2498 
2501 
2472 
2458 
2407 
2445 
2462 
2472 
2490 
2472 
2467 
2459 
2469 
2549 
2554 
2492 
2452 
2458 
2479 
2463 
2467 
2510 
2533 
2471 
2460 
2424 
2434 
2458 
2433 
2452 
2492 
2433 
2412 
2441 
2450 
2440 
2407 
2420 
2480 
2468 
2420 
2411 
2456 
2494 
2490 
2454 
2492 
2473 
2428 
2409 
2463 
2463 
2438 
2438 
2429 
2461 
2470 
2460 
2511 
2545 
2537 
2517 
2485 
2500 
2533 
2482 
2468 
2473 
2446 
2411 
2406 
2397 
2439 
2469 
2439 
2415 
2431 
2435 
2415 
2385 
2388 
2441 
2409 
2378 
2394 
2380 
2395 
2455 
2519 
2634 
2831 
2966 
3057 
2985 
2690 
2503 
2332 
2127 
2118 
2194 
2336 
2400 
2421 
2433 
2458 
2487 
2467 
2418 
2413 
2462 
2484 
2452 
2451 
2483 
2492 
2441 
2396 
2431 
2491 
2512 
2506 
2497 
2507 
2522 
2540 
2548 
2549 
2528 
2549 
2584 
2593 
2616 
2622 
2577 
2522 
2590 
2624 
2642 
2671 
2717 
2667 
2681 
2733 
2734 
2715 
2682 
2695 
2703 
2668 
2627 
2634 
2621 
2555 
2532 
2504 
2512 
2496 
2466 
2460 
2483 
2459 
2428 
2424 
2447 
2450 
2367 
2360 
2398 
2402 
2407 
2432 
2365 
2380 
2361 
2351 
2362 
2416 
2383 
2367 
2359 
2395 
2380 
2366 
2407 
2441 
2424 
2417 
2407 
2435 
2423 
2397 
2356 
2382 
2362 
2386 
2415 
2416 
2426 
2400 
2383 
2385 
2403 
2365 
2402 
2432 
2386 
2374 
2393 
2344 
2345 
2392 
2388 
2387 
2380 
2392 
2340 
2346 
2382 
2385 
2342 
2337 
2336 
2358 
2367 
2338 
2336 
2373 
2357 
2361 
2376 
2362 
2355 
2339 
2335 
2352 
2398 
2426 
2391 
2392 
2426 
2397 
2370 
2361 
2397 
2419 
2388 
2358 
2348 
2347 
2320 
2295 
2309 
2325 
2349 
2319 
2294 
2286 
2283 
2262 
2261 
2262 
2312 
2308 
2290 
2274 
2311 
2314 
2419 
2524 
2653 
2778 
2837 
2817 
2596 
2401 
2204 
1963 
1980 
2047 
2181 
2261 
2227 
2231 
2329 
2344 
2311 
2249 
2291 
2327 
2326 
2310 
2338 
2378 
2362 
2359 
2371 
2356 
2381 
2414 
2331 
2345 
2357 
2345 
2378 
2399 
2382 
2385 
2393 
2365 
2440 
2471 
2467 
2515 
2540 
2514 
2554 
2589 
2585 
2615 
2563 
2577 
2591 
2648 
2603 
2580 
2604 
2646 
2579 
2538 
2552 
2519 
2410 
2371 
2367 
2445 
2414 
2374 
2363 
2335 
2331 
2317 
2306 
2353 
2330 
2329 
2302 
2368 
2340 
2279 
2234 
2250 
2329 
2347 
2313 
2299 
2278 
2285 
2270 
2315 
2321 
2311 
2303 
2320 
2351 
2308 
2318 
2338 
2400 
2401 
2360 
2328 
2274 
2335 
2331 
2331 
2337 
2342 
2338 
2312 
2337 
2364 
2318 
2298 
2303 
2304 
2299 
2292 
2283 
2318 
2316 
2273 
2264 
2314 
2332 
2302 
2290 
2301 
2303 
2282 
2285 
2274 
2306 
2296 
2274 
2264 
2329 
2296 
2227 
2272 
2343 
2315 
2271 
2261 
2264 
2249 
2265 
2332 
2376 
2343 
2317 
2301 
2338 
2339 
2335 
2320 
2318 
2282 
2240 
2232 
2187 
2208 
2265 
2240 
2245 
2227 
2248 
2263 
2242 
2224 
2222 
2207 
2183 
2224 
2226 
2213 
2158 
2161 
2272 
2353 
2469 
2629 
2778 
2819 
2687 
2462 
2281 
2066 
1902 
1946 
2058 
2127 
2154 
2219 
2270 
2287 
2215 
2191 
2205 
2225 
2231 
2233 
2249 
2254 
2242 
2209 
2232 
2270 
2252 
2227 
2242 
2254 
2282 
2295 
2295 
2351 
2330 
2295 
2313 
2308 
2312 
2327 
2365 
2383 
2363 
2392 
2374 
2409 
2459 
2467 
2456 
2457 
2533 
2483 
2469 
2433 
2406 
2458 
2458 
2482 
2468 
2398 
2329 
2353 
2338 
2303 
2258 
2250 
2259 
2213 
2176 
2202 
2172 
2171 
2152 
2142 
2173 
2197 
2152 
2132 
2151 
2183 
2153 
2137 
2157 
2171 
2172 
2209 
2188 
2130 
2153 
2151 
2171 
2181 
2155 
2131 
2150 
2167 
2189 
2118 
2135 
2175 
2148 
2148 
2172 
2208 
2278 
2217 
2189 
2174 
2208 
2159 
2145 
2185 
2196 
2171 
2138 
2161 
2178 
2262 
2197 
2108 
2111 
2116 
2107 
2093 
2133 
2145 
2132 
2151 
2171 
2162 
2133 
2090 
2135 
2167 
2178 
2142 
2137 
2168 
2213 
2192 
2169 
2221 
2242 
2166 
2153 
2119 
2167 
2170 
2162 
2151 
2064 
2088 
2085 
2062 
2081 
2107 
2111 
2098 
2072 
2128 
2090 
2073 
2091 
2117 
2132 
2121 
2102 
2099 
2074 
2075 
2218 
2347 
2459 
2601 
2656 
2579 
2359 
2144 
1959 
1771 
1771 
1890 
1945 
2042 
2072 
2054 
2104 
2153 
2148 
2095 
2046 
2075 
2117 
2123 
2124 
2119 
2121 
2090 
2127 
2114 
2123 
2142 
2136 
2146 
2148 
2183 
2192 
2243 
2205 
2169 
2175 
2187 
2196 
2230 
2232 
2281 
2282 
2289 
2294 
2321 
2359 
2370 
2382 
2338 
2353 
2390 
2397 
2344 
2348 
2371 
2296 
2239 
2262 
2260 
2250 
2235 
2219 
2187 
2163 
2122 
2085 
2100 
2108 
2112 
2112 
2089 
2035 
2026 
1995 
2023 
2067 
2048 
1974 
1985 
2013 
2035 
2050 
2022 
2080 
2050 
2025 
2026 
2018 
2046 
2048 
2008 
2017 
2030 
2017 
2036 
2041 
2049 
2017 
2018 
2033 
2060 
2066 
2044 
2058 
2054 
2062 
2036 
2047 
2056 
2009 
1974 
1998 
2015 
2010 
1977 
1999 
2011 
2029 
2019 
2002 
1956 
1982 
1962 
1961 
2016 
2065 
2006 
1926 
1961 
1992 
1953 
1939 
1935 
1981 
1998 
1981 
1991 
2026 
2027 
2008 
2001 
2014 
1978 
1969 
1963 
1989 
2029 
2008 
2009 
2024 
2014 
1969 
1956 
1929 
1901 
1906 
1894 
1936 
1947 
1915 
1890 
1922 
1947 
1900 
1917 
1879 
1897 
1930 
1872 
1842 
1843 
1857 
1917 
2040 
2167 
2253 
2399 
2449 
2333 
2141 
2002 
1788 
1589 
1628 
1703 
1743 
1811 
1886 
1899 
1876 
1871 
1893 
1893 
1836 
1877 
1910 
1907 
1906 
1886 
1907 
1935 
1917 
1915 
1922 
1926 
1892 
1919 
1955 
1957 
1951 
1923 
1954 
1987 
1990 
1955 
1947 
1978 
2035 
2033 
2038 
2053 
2079 
2041 
2056 
2112 
2119 
2120 
2145 
2118 
2100 
2084 
2037 
1995 
2010 
2070 
2008 
2004 
1973 
1940 
1903 
1902 
1889 
1892 
1850 
1833 
1826 
1866 
1832 
1762 
1785 
1799 
1816 
1779 
1741 
1755 
1763 
1798 
1784 
1769 
1797 
1754 
1745 
1749 
1771 
1757 
1754 
1773 
1777 
1776 
1726 
1724 
1794 
1775 
1734 
1737 
1778 
1762 
1740 
1842 
1856 
1811 
1779 
1745 
1727 
1735 
1729 
1717 
1726 
1735 
1738 
1718 
1679 
1735 
1730 
1683 
1723 
1737 
1717 
1706 
1746 
1712 
1673 
1674 
1700 
1727 
1697 
1663 
1657 
1674 
1706 
1721 
1706 
1662 
1688 
1659 
1669 
1645 
1667 
1700 
1718 
1708 
1740 
1707 
1684 
1683 
1703 
1724 
1669 
1693 
1726 
1710 
1668 
1615 
1598 
1598 
1573 
1546 
1626 
1603 
1581 
1592 
1556 
1528 
1551 
1552 
1536 
1546 
1537 
1518 
1542 
1509 
1511 
1500 
1641 
1815 
1996 
2109 
2107 
2034 
1783 
1558 
1395 
1216 
1187 
1276 
1333 
1433 
1496 
1528 
1497 
1496 
1459 
1453 
1465 
1465 
1486 
1476 
1465 
1449 
1466 
1468 
1508 
1533 
1520 
1499 
1464 
1442 
1488 
1469 
1508 
1525 
1499 
1523 
1518 
1533 
1541 
1525 
1518 
1524 
1541 
1568 
1606 
1580 
1590 
1628 
1606 
1597 
1658 
1669 
1620 
1612 
1562 
1569 
1540 
1522 
1493 
1470 
1476 
1450 
1409 
1380 
1390 
1355 
1320 
1303 
1294 
1259 
1225 
1266 
1271 
1246 
1212 
1260 
1265 
1242 
1198 
1179 
1209 
1240 
1217 
1198 
1193 
1247 
1243 
1210 
1179 
1185 
1203 
1188 
1163 
1186 
1168 
1203 
1202 
1197 
1244 
1223 
1159 
1179 
1192 
1151 
1145 
1159 
1162 
1128 
1126 
1138 
1149 
1136 
1136 
1158 
1152 
1126 
1094 
1082 
1117 
1083 
1069 
1071 
1087 
1117 
1086 
1075 
1121 
1114 
1109 
1067 
1085 
1118 
1125 
1149 
1126 
1130 
1152 
1144 
1133 
1147 
1129 
1093 
1111 
1082 
1110 
1052 
1062 
1065 
1038 
1004 
1045 
1080 
1083 
1073 
1019 
1034 
1032 
1035 
1013 
1019 
1051 
1044 
1022 
1004 
1034 
1031 
1037 
1108 
1284 
1431 
1555 
1651 
1580 
1296 
1064 
887 
745 
770 
834 
894 
970 
1009 
1017 
1022 
1034 
1028 
1020 
1016 
1017 
1022 
1071 
1072 
1078 
1102 
1032 
1047 
1036 
1045 
1068 
1070 
1069 
1134 
1116 
1049 
1078 
1146 
1147 
1149 
1152 
1180 
1185 
1196 
1228 
1202 
1213 
1217 
1235 
1303 
1316 
1311 
1297 
1279 
1275 
1301 
1261 
1258 
1284 
1301 
1212 
1168 
1183 
1184 
1134 
1118 
1118 
1055 
1097 
1076 
1015 
970 
942 
974 
962 
961 
962 
966 
935 
949 
989 
945 
939 
879 
918 
956 
931 
949 
939 
876 
866 
893 
963 
969 
952 
983 
966 
930 
947 
980 
977 
935 
911 
887 
929 
961 
982 
954 
950 
953 
930 
936 
926 
912 
922 
956 
957 
937 
875 
872 
883 
908 
914 
922 
899 
889 
879 
869 
864 
865 
897 
912 
900 
885 
888 
851 
876 
916 
925 
922 
931 
928 
938 
926 
914 
861 
892 
894 
914 
930 
899 
875 
855 
841 
892 
845 
803 
807 
844 
851 
830 
822 
832 
829 
809 
855 
840 
834 
831 
840 
837 
901 
986 
1115 
1249 
1357 
1378 
1285 
1057 
941 
763 
623 
589 
698 
842 
823 
838 
896 
920 
946 
948 
931 
938 
949 
951 
1011 
1055 
1084 
1018 
980 
999 
1046 
1044 
1049 
1071 
1110 
1111 
1112 
1145 
1115 
1105 
1122 
1183 
1203 
1171 
1188 
1238 
1251 
1284 
1302 
1286 
1318 
1379 
1377 
1398 
1406 
1398 
1406 
1405 
1433 
1415 
1326 
1334 
1364 
1358 
1325 
1276 
1268 
1289 
1285 
1224 
1220 
1285 
1245 
1208 
1229 
1224 
1223 
1184 
1173 
1197 
1166 
1181 
1188 
1189 
1208 
1158 
1209 
1260 
1218 
1184 
1180 
1242 
1221 
1198 
1254 
1269 
1353 
1315 
1260 
1235 
1230 
1223 
1234 
1263 
1248 
1238 
1239 
1208 
1185 
1196 
1202 
1211 
1238 
1217 
1189 
1193 
1215 
1220 
1135 
1156 
1129 
1149 
1123 
1122 
1179 
1189 
1144 
1085 
1114 
1145 
1145 
1132 
1166 
1182 
1186 
1217 
1190 
1160 
1146 
1115 
1185 
1183 
1198 
1210 
1172 
1221 
1255 
1271 
1169 
1161 
1177 
1200 
1206 
1218 
1196 
1151 
1153 
1134 
1162 
1194 
1175 
1140 
1190 
1233 
1161 
1117 
1145 
1178 
1160 
1139 
1172 
1232 
1219 
1244 
1353 
1452 
1545 
1671 
1761 
1637 
1405 
1259 
1085 
945 
968 
1054 
1120 
1141 
1128 
1205 
1201 
1242 
1257 
1201 
1200 
1207 
1270 
1289 
1249 
1260 
1294 
1291 
1252 
1275 
1302 
1288 
1297 
1293 
1343 
1341 
1293 
1295 
1313 
1372 
1367 
1436 
1427 
1407 
1418 
1398 
1442 
1472 
1452 
1503 
1544 
1558 
1501 
1512 
1547 
1576 
1528 
1472 
1501 
1491 
1437 
1417 
1447 
1461 
1474 
1421 
1374 
1364 
1341 
1331 
1337 
1361 
1349 
1285 
1297 
1323 
1283 
1242 
1212 
1232 
1293 
1327 
1287 
1297 
1302 
1294 
1269 
1305 
1289 
1272 
1297 
1306 
1337 
1395 
1305 
1287 
1300 
1302 
1274 
1297 
1332 
1343 
1319 
1311 
1361 
1355 
1359 
1343 
1346 
1345 
1381 
1387 
1312 
1324 
1322 
1329 
1341 
1354 
1318 
1311 
1332 
1376 
1358 
1314 
1287 
1343 
1357 
1334 
1372 
1345 
1325 
1308 
1321 
1297 
1340 
1346 
1364 
1343 
1296 
1281 
1337 
1289 
1296 
1387 
1414 
1371 
1365 
1386 
1399 
1369 
1361 
1363 
1338 
1348 
1351 
1346 
1312 
1296 
1315 
1308 
1336 
1335 
1311 
1330 
1333 
1347 
1335 
1356 
1324 
1296 
1298 
1298 
1346 
1364 
1315 
1351 
1480 
1580 
1699 
1833 
1944 
1897 
1666 
1513 
1344 
1140 
1138 
1231 
1354 
1339 
1314 
1335 
1383 
1454 
1418 
1381 
1469 
1525 
1484 
1485 
1510 
1504 
1474 
1501 
1521 
1542 
1498 
1499 
1513 
1506 
1591 
1556 
1541 
1524 
1586 
1605 
1629 
1640 
1658 
1657 
1656 
1732 
1711 
1708 
1665 
1665 
1763 
1783 
1774 
1773 
1806 
1802 
1818 
1778 
1810 
1751 
1750 
1778 
1844 
1798 
1723 
1717 
1717 
1710 
1716 
1678 
1679 
1633 
1617 
1630 
1663 
1657 
1671 
1670 
1657 
1654 
1650 
1664 
1699 
1710 
1679 
1638 
1679 
1705 
1701 
1703 
1733 
1764 
1769 
1724 
1709 
1791 
1788 
1739 
1755 
1764 
1789 
1833 
1826 
1874 
1880 
1904 
1908 
1849 
1863 
1883 
1889 
1874 
1869 
1806 
1840 
1881 
1885 
1906 
1931 
1925 
1915 
1970 
1933 
1879 
1923 
1986 
1951 
1938 
1929 
1940 
1973 
1938 
1945 
1993 
1976 
1955 
1925 
1961 
1982 
1983 
1958 
1948 
2035 
2023 
1970 
1992 
2045 
2086 
2083 
2084 
2085 
2078 
2056 
2078 
2087 
2043 
2033 
2057 
2070 
2083 
2071 
2055 
2063 
2035 
2050 
2081 
2084 
2135 
2165 
2130 
2179 
2193 
2141 
2081 
2100 
2137 
2102 
2139 
2273 
2384 
2549 
2681 
2783 
2731 
2498 
2314 
2120 
1944 
1968 
2029 
2118 
2181 
2196 
2226 
2252 
2229 
2223 
2217 
2230 
2252 
2278 
2278 
2263 
2284 
2325 
2339 
2334 
2321 
2364 
2359 
2327 
2289 
2341 
2373 
2340 
2373 
2413 
2417 
2448 
2457 
2505 
2488 
2463 
2468 
2477 
2500 
2507 
2522 
2528 
2580 
2561 
2534 
2524 
2547 
2556 
2544 
2554 
2500 
2478 
2494 
2433 
2411 
2395 
2369 
2375 
2385 
2342 
2346 
2327 
2315 
2305 
2258 
2246 
2328 
2357 
2284 
2226 
2233 
2251 
2229 
2267 
2259 
2266 
2267 
2276 
2296 
2278 
2290 
2300 
2292 
2292 
2307 
2281 
2282 
2272 
2289 
2315 
2300 
2278 
2323 
2339 
2328 
2302 
2336 
2319 
2336 
2332 
2314 
2327 
2298 
2280 
2277 
2327 
2331 
2258 
2303 
2362 
2337 
2315 
2305 
2346 
2350 
2265 
2255 
2299 
2323 
2315 
2352 
2355 
2278 
2258 
2286 
2328 
2356 
2320 
2316 
2339 
2297 
2324 
2319 
2323 
2335 
2334 
2326 
2314 
2315 
2316 
2342 
2339 
2321 
2313 
2336 
2353 
2354 
2366 
2325 
2300 
2340 
2338 
2332 
2297 
2288 
2350 
2366 
2301 
2255 
2296 
2265 
2260 
2250 
2273 
2307 
2281 
2248 
2279 
2283 
2266 
2257 
2277 
2385 
2499 
2624 
2717 
2827 
2831 
2637 
2371 
2221 
2026 
2034 
2121 
2183 
2183 
2248 
2314 
2306 
2309 
2249 
2265 
2299 
2321 
2288 
2301 
2365 
2356 
2298 
2339 
2346 
2331 
2353 
2363 
2320 
2362 
2381 
2359 
2339 
2410 
2428 
2393 
2383 
2401 
2455 
2442 
2435 
2444 
2456 
2494 
2512 
2529 
2552 
2578 
2607 
2592 
2635 
2596 
2512 
2550 
2631 
2568 
2475 
2499 
2530 
2529 
2464 
2433 
2460 
2421 
2415 
2418 
2416 
2405 
2396 
2359 
2317 
2348 
2349 
2304 
2318 
2364 
2373 
2364 
2337 
2388 
2371 
2294 
2323 
2356 
2341 
2340 
2344 
2368 
2409 
2370 
2352 
2391 
2392 
2372 
2368 
2406 
2383 
2387 
2345 
2328 
2361 
2366 
2334 
2329 
2351 
2330 
2344 
2360 
2409 
2425 
2387 
2385 
2361 
2416 
2403 
2374 
2338 
2338 
2357 
2309 
2290 
2345 
2349 
2308 
2320 
2364 
2361 
2322 
2375 
2409 
2355 
2289 
2288 
2345 
2365 
2307 
2270 
2313 
2333 
2304 
2316 
2348 
2325 
2333 
2323 
2363 
2434 
2430 
2369 
2342 
2367 
2379 
2349 
2363 
2378 
2400 
2385 
2348 
2330 
2340 
2302 
2310 
2326 
2359 
2338 
2312 
2295 
2299 
2301 
2281 
2321 
2335 
2307 
2301 
2288 
2286 
2318 
2291 
2271 
2301 
2445 
2607 
2692 
2830 
2886 
2728 
2459 
2338 
2177 
1998 
2075 
2178 
2205 
2241 
2306 
2341 
2343 
2336 
2392 
2370 
2314 
2337 
2340 
2280 
2319 
2360 
2341 
2330 
2415 
2423 
2350 
2344 
2344 
2409 
2437 
2422 
2414 
2413 
2403 
2407 
2373 
2442 
2441 
2433 
2451 
2500 
2530 
2542 
2566 
2551 
2529 
2554 
2551 
2627 
2610 
2560 
2551 
2596 
2584 
2528 
2515 
2519 
2463 
2443 
2415 
2446 
2438 
2430 
2432 
2400 
2399 
2379 
2358 
2338 
2384 
2324 
2286 
2345 
2367 
2336 
2295 
2297 
2304 
2299 
2320 
2335 
2373 
2340 
2307 
2307 
2299 
2346 
2331 
2296 
2341 
2355 
2353 
2321 
2352 
2350 
2330 
2325 
2333 
2313 
2347 
2328 
2352 
2387 
2371 
2338 
2341 
2346 
2356 
2356 
2334 
2330 
2379 
2386 
2328 
2292 
2338 
2336 
2283 
2279 
2341 
2334 
2349 
2356 
2350 
2374 
2313 
2269 
2312 
2334 
2329 
2344 
2345 
2323 
2294 
2299 
2286 
2338 
2340 
2330 
2324 
2349 
2367 
2349 
2344 
2322 
2331 
2355 
2395 
2407 
2341 
2397 
2408 
2374 
2334 
2339 
2322 
2319 
2322 
2311 
2301 
2298 
2234 
2215 
2209 
2218 
2274 
2305 
2278 
2227 
2229 
2246 
2181 
2183 
2181 
2193 
2205 
2196 
2355 
2474 
2570 
2675 
2784 
2698 
2430 
2208 
2067 
1904 
1878 
1947 
2039 
2064 
2173 
2157 
2136 
2140 
2126 
2115 
2118 
2129 
2075 
2077 
2099 
2150 
2116 
2076 
2096 
2106 
2106 
2059 
2027 
2031 
2103 
2158 
2107 
2046 
2009 
2010 
2008 
2026 
2073 
2046 
2012 
2081 
2065 
2111 
2104 
2063 
2025 
2015 
2075 
2060 
2089 
2100 
2084 
2048 
1987 
1984 
1967 
1918 
1898 
1952 
1928 
1835 
1685 
1684 
1693 
1697 
1685 
1660 
1667 
1662 
1608 
1545 
1543 
1520 
1493 
1500 
1480 
1483 
1493 
1475 
1433 
1421 
1389 
1394 
1433 
1409 
1347 
1313 
1375 
1374 
1363 
1332 
1327 
1315 
1279 
1278 
1287 
1290 
1269 
1273 
1276 
1249 
1229 
1211 
1209 
1231 
1201 
1142 
1138 
1161 
1197 
1177 
1187 
1252 
1178 
1081 
1127 
1159 
1133 
1075 
1065 
1041 
1047 
1064 
1084 
1125 
1091 
1062 
1033 
1039 
1065 
1035 
983 
1027 
1032 
1027 
1029 
1058 
1057 
1024 
1001 
1030 
1043 
1012 
972 
999 
1030 
1009 
983 
1019 
996 
1003 
992 
982 
957 
961 
900 
876 
878 
912 
930 
857 
875 
883 
851 
817 
805 
824 
824 
819 
850 
871 
848 
802 
786 
798 
878 
994 
1147 
1299 
1401 
1394 
1173 
938 
841 
589 
449 
495 
644 
739 
766 
814 
830 
836 
860 
847 
875 
859 
839 
852 
872 
908 
950 
926 
886 
891 
923 
887 
925 
989 
979 
1000 
1037 
1064 
1088 
1037 
1007 
1042 
1101 
1109 
1129 
1102 
1149 
1171 
1182 
1218 
1276 
1287 
1261 
1270 
1317 
1358 
1330 
1345 
1383 
1288 
1263 
1282 
1289 
1282 
1276 
1227 
1206 
1205 
1195 
1197 
1198 
1178 
1162 
1200 
1180 
1183 
1194 
1179 
1186 
1180 
1182 
1143 
1159 
1183 
1233 
1227 
1215 
1181 
1197 
1183 
1196 
1195 
1255 
1278 
1268 
1287 
1335 
1315 
1276 
1290 
1356 
1377 
1390 
1406 
1378 
1348 
1368 
1382 
1393 
1433 
1399 
1373 
1429 
1441 
1421 
1424 
1427 
1433 
1434 
1475 
1457 
1451 
1473 
1488 
1483 
1556 
1496 
1452 
1478 
1519 
1514 
1539 
1560 
1530 
1571 
1566 
1610 
1611 
1620 
1602 
1610 
1653 
1638 
1655 
1685 
1703 
1697 
1704 
1688 
1708 
1717 
1727 
1734 
1729 
1705 
1717 
1688 
1698 
1716 
1717 
1692 
1700 
1740 
1692 
1666 
1696 
1668 
1643 
1666 
1678 
1701 
1714 
1732 
1759 
1821 
1934 
2081 
2279 
2376 
2251 
1996 
1745 
1558 
1430 
1450 
1527 
1649 
1644 
1670 
1726 
1736 
1793 
1754 
1759 
1748 
1763 
1801 
1781 
1766 
1838 
1821 
1818 
1846 
1839 
1879 
1906 
1890 
1892 
1910 
1923 
1955 
1963 
1946 
1970 
1946 
1920 
1918 
1970 
1979 
1994 
2056 
2079 
2078 
2091 
2075 
2120 
2164 
2126 
2179 
2189 
2132 
2110 
2132 
2177 
2160 
2157 
2111 
2073 
2042 
1994 
2015 
2003 
1992 
1944 
1893 
1890 
1911 
1920 
1891 
1840 
1876 
1886 
1842 
1857 
1866 
1847 
1865 
1857 
1824 
1871 
1843 
1820 
1813 
1840 
1872 
1851 
1857 
1847 
1840 
1861 
1917 
1926 
1896 
1861 
1895 
1898 
1893 
1860 
1831 
1843 
1925 
1946 
1893 
1868 
1855 
1832 
1871 
1889 
1903 
1897 
1871 
1868 
1926 
1889 
1848 
1868 
1882 
1881 
1872 
1892 
1922 
1952 
1953 
1935 
1946 
1964 
1921 
1908 
1974 
1973 
1984 
1946 
1933 
1952 
1986 
1980 
1953 
1973 
1958 
1943 
1903 
1875 
1885 
1878 
1883 
1869 
1904 
1953 
1909 
1897 
1923 
1873 
1889 
1910 
1911 
1908 
1912 
1884 
1905 
2000 
2103 
2246 
2422 
2480 
2429 
2205 
1972 
1799 
1581 
1568 
1635 
1690 
1743 
1854 
1904 
1935 
1909 
1894 
1929 
1944 
1928 
1870 
1867 
1924 
1926 
1879 
1887 
1918 
1899 
1887 
1930 
1993 
1997 
1969 
1958 
1955 
1955 
1980 
2032 
2032 
2048 
2016 
2041 
2095 
2088 
2149 
2113 
2132 
2115 
2139 
2158 
2157 
2160 
2167 
2169 
2241 
2240 
2189 
2184 
2141 
2147 
2123 
2072 
2071 
2091 
2052 
2003 
1992 
2019 
2002 
1933 
1853 
1866 
1895 
1851 
1847 
1890 
1885 
1888 
1856 
1836 
1876 
1853 
1803 
1813 
1821 
1824 
1850 
1881 
1868 
1854 
1830 
1815 
1832 
1891 
1862 
1831 
1800 
1837 
1878 
1884 
1830 
1822 
1830 
1837 
1851 
1877 
1877 
1829 
1845 
1855 
1825 
1822 
1839 
1817 
1837 
1873 
1833 
1770 
1802 
1804 
1822 
1803 
1823 
1794 
1767 
1787 
1821 
1836 
1867 
1906 
1859 
1793 
1784 
1826 
1865 
1890 
1852 
1831 
1828 
1860 
1815 
1794 
1797 
1818 
1776 
1786 
1785 
1770 
1734 
1743 
1752 
1751 
1748 
1708 
1700 
1745 
1752 
1722 
1720 
1712 
1757 
1729 
1729 
1852 
2012 
2138 
2278 
2362 
2295 
2061 
1852 
1630 
1477 
1506 
1541 
1598 
1643 
1668 
1698 
1717 
1696 
1713 
1723 
1710 
1745 
1785 
1736 
1682 
1746 
1777 
1755 
1785 
1745 
1749 
1800 
1777 
1804 
1853 
1844 
1820 
1789 
1766 
1797 
1832 
1841 
1854 
1846 
1820 
1853 
1881 
1909 
1912 
1915 
1939 
1956 
1968 
1961 
1988 
1983 
2004 
1984 
1970 
2006 
1986 
1913 
1911 
1911 
1856 
1829 
1814 
1804 
1773 
1752 
1725 
1758 
1745 
1734 
1685 
1690 
1687 
1628 
1663 
1704 
1701 
1742 
1720 
1695 
1712 
1714 
1650 
1608 
1610 
1686 
1643 
1673 
1719 
1691 
1689 
1707 
1693 
1658 
1703 
1713 
1694 
1721 
1732 
1691 
1693 
1686 
1675 
1724 
1736 
1700 
1666 
1674 
1673 
1674 
1676 
1687 
1673 
1690 
1706 
1689 
1691 
1707 
1724 
1686 
1674 
1706 
1737 
1708 
1685 
1695 
1721 
1707 
1724 
1745 
1740 
1746 
1726 
1712 
1767 
1767 
1694 
1677 
1716 
1734 
1686 
1651 
1617 
1616 
1660 
1673 
1633 
1658 
1704 
1685 
1665 
1683 
1690 
1673 
1652 
1651 
1632 
1628 
1621 
1658 
1781 
1906 
2019 
2134 
2282 
2268 
2088 
1912 
1744 
1450 
1411 
1488 
1581 
1635 
1636 
1714 
1735 
1714 
1708 
1685 
1689 
1693 
1680 
1740 
1780 
1772 
1729 
1751 
1782 
1810 
1778 
1743 
1773 
1762 
1745 
1755 
1815 
1817 
1813 
1813 
1804 
1823 
1847 
1803 
1858 
1906 
1925 
1933 
1924 
1969 
1981 
1942 
1976 
1986 
1982 
1974 
1988 
2006 
1989 
1920 
1945 
1955 
1902 
1858 
1827 
1824 
1879 
1871 
1812 
1781 
1769 
1750 
1744 
1747 
1806 
1810 
1722 
1659 
1667 
1729 
1735 
1718 
1694 
1708 
1726 
1675 
1679 
1662 
1673 
1689 
1688 
1698 
1747 
1740 
1784 
1773 
1807 
1752 
1738 
1764 
1748 
1730 
1752 
1805 
1818 
1765 
1708 
1705 
1747 
1789 
1827 
1853 
1829 
1784 
1789 
1793 
1780 
1760 
1789 
1800 
1774 
1789 
1837 
1857 
1820 
1804 
1804 
1802 
1796 
1797 
1820 
1841 
1882 
1881 
1888 
1865 
1846 
1861 
1843 
1817 
1801 
1785 
1806 
1740 
1746 
1814 
1816 
1825 
1766 
1815 
1830 
1837 
1813 
1734 
1750 
1784 
1790 
1774 
1799 
1754 
1715 
1775 
1885 
1974 
2069 
2244 
2409 
2463 
2307 
2032 
1878 
1642 
1546 
1607 
1717 
1760 
1779 
1788 
1784 
1813 
1789 
1786 
1797 
1814 
1818 
1776 
1778 
1812 
1805 
1807 
1815 
1827 
1836 
1855 
1840 
1842 
1843 
1827 
1858 
1893 
1898 
1889 
1890 
1901 
1942 
1916 
1901 
1908 
1979 
2005 
2020 
2019 
2043 
2050 
2041 
2019 
2059 
2069 
2040 
2008 
2008 
2012 
1994 
1996 
2011 
1991 
1958 
1937 
1917 
1895 
1875 
1876 
1846 
1846 
1827 
1784 
1751 
1799 
1792 
1783 
1771 
1771 
1798 
1756 
1759 
1759 
1748 
1765 
1752 
1756 
1766 
1778 
1775 
1716 
1729 
1766 
1738 
1757 
1782 
1787 
1774 
1743 
1703 
1738 
1773 
1785 
1764 
1797 
1774 
1770 
1789 
1792 
1770 
1711 
1742 
1762 
1748 
1698 
1728 
1762 
1757 
1761 
1764 
1770 
1754 
1758 
1766 
1769 
1739 
1723 
1755 
1804 
1802 
1775 
1751 
1775 
1786 
1796 
1736 
1786 
1821 
1800 
1750 
1749 
1772 
1804 
1810 
1823 
1832 
1808 
1770 
1759 
1735 
1769 
1784 
1770 
1792 
1775 
1760 
1749 
1752 
1787 
1752 
1740 
1776 
1792 
1806 
1784 
1719 
1716 
1776 
1895 
2042 
2160 
2297 
2418 
2382 
2170 
2004 
1751 
1567 
1593 
1673 
1705 
1735 
1804 
1844 
1863 
1845 
1860 
1904 
1893 
1879 
1869 
1886 
1900 
1948 
1922 
1944 
1953 
1909 
1948 
1959 
1969 
1950 
1947 
1938 
1947 
1957 
1998 
1997 
2012 
2004 
1959 
1999 
2055 
2053 
2068 
2108 
2160 
2136 
2125 
2174 
2173 
2173 
2138 
2125 
2176 
2225 
2187 
2141 
2120 
2109 
2082 
2072 
2031 
2049 
2053 
1983 
1987 
2010 
1965 
1933 
1915 
1890 
1908 
1929 
1928 
1975 
1958 
1908 
1915 
1964 
1953 
1916 
1863 
1878 
1891 
1904 
1891 
1952 
1881 
1876 
1937 
1959 
1939 
1927 
1919 
1916 
1938 
1932 
1938 
1970 
1985 
1999 
1937 
1889 
1958 
1970 
1938 
1966 
1971 
1917 
1913 
1959 
1989 
1948 
1939 
1967 
1964 
1999 
1991 
1972 
1980 
1979 
1988 
2002 
1978 
1978 
1981 
1993 
1988 
1982 
1995 
1974 
1941 
1939 
1971 
2050 
2000 
1989 
2026 
2019 
1972 
1956 
1992 
2012 
2034 
2035 
2064 
2056 
2033 
1990 
2005 
2066 
2096 
2038 
2038 
2013 
1989 
1973 
1982 
1979 
1959 
1944 
2002 
2028 
2029 
2020 
1998 
1968 
1993 
2028 
2010 
2028 
2007 
1982 
1975 
1973 
2066 
2185 
2263 
2421 
2557 
2570 
2456 
2228 
2066 
1905 
1802 
1820 
1878 
1926 
1971 
2031 
2069 
2048 
2040 
2033 
2053 
2076 
2091 
2093 
2139 
2102 
2095 
2116 
2132 
2059 
2092 
2160 
2128 
2140 
2163 
2169 
2159 
2193 
2191 
2186 
2189 
2220 
2201 
2154 
2199 
2265 
2281 
2292 
2306 
2313 
2340 
2322 
2306 
2370 
2416 
2356 
2366 
2397 
2359 
2346 
2401 
2376 
2349 
2291 
2246 
2237 
2242 
2211 
2168 
2186 
2186 
2153 
2139 
2112 
2103 
2076 
2114 
2151 
2128 
2110 
2055 
2067 
2126 
2098 
2072 
2076 
2090 
2090 
2102 
2066 
2063 
2097 
2095 
2071 
2106 
2143 
2151 
2092 
2050 
2093 
2079 
2129 
2138 
2093 
2095 
2141 
2123 
2128 
2142 
2150 
2085 
2110 
2099 
2099 
2103 
2081 
2129 
2105 
2087 
2076 
2118 
2156 
2120 
2118 
2169 
2171 
2126 
2091 
2118 
2114 
2146 
2152 
2116 
2149 
2136 
2123 
2129 
2159 
2200 
2157 
2108 
2151 
2172 
2152 
2094 
2106 
2130 
2110 
2066 
2114 
2149 
2171 
2180 
2194 
2238 
2240 
2229 
2206 
2204 
2207 
2232 
2206 
2186 
2124 
2152 
2143 
2135 
2172 
2130 
2150 
2139 
2133 
2121 
2105 
2168 
2162 
2098 
2107 
2138 
2170 
2123 
2088 
2123 
2140 
2086 
2174 
2337 
2395 
2518 
2680 
2707 
2548 
2337 
2200 
1940 
1844 
1935 
2023 
2069 
2117 
2137 
2139 
2090 
2131 
2149 
2211 
2196 
2170 
2171 
2174 
2171 
2168 
2180 
2134 
2148 
2191 
2182 
2210 
2204 
2151 
2194 
2188 
2206 
2242 
2195 
2208 
2235 
2235 
2243 
2269 
2255 
2258 
2302 
2355 
2335 
2333 
2348 
2352 
2328 
2353 
2399 
2386 
2365 
2373 
2367 
2325 
2305 
2304 
2264 
2264 
2277 
2212 
2180 
2151 
2179 
2142 
2117 
2113 
2085 
2051 
2087 
2066 
2021 
2010 
2037 
2031 
1986 
1997 
1981 
1983 
2024 
2006 
1999 
1981 
1981 
1974 
1961 
1985 
1999 
1994 
1981 
1971 
1983 
1964 
1969 
1978 
1961 
1941 
1936 
1914 
1915 
1928 
1938 
1953 
1917 
1913 
1894 
1867 
1859 
1863 
1882 
1892 
1894 
1857 
1865 
1856 
1849 
1881 
1849 
1814 
1837 
1809 
1784 
1814 
1781 
1784 
1832 
1820 
1790 
1741 
1726 
1768 
1765 
1743 
1729 
1730 
1707 
1695 
1726 
1709 
1700 
1716 
1714 
1688 
1676 
1675 
1662 
1638 
1634 
1638 
1660 
1702 
1718 
1657 
1648 
1691 
1684 
1640 
1635 
1629 
1647 
1607 
1559 
1552 
1586 
1540 
1508 
1505 
1487 
1488 
1522 
1511 
1495 
1479 
1445 
1453 
1464 
1476 
1425 
1425 
1428 
1442 
1475 
1558 
1665 
1798 
1936 
2003 
1952 
1721 
1502 
1303 
1150 
1122 
1182 
1238 
1313 
1369 
1355 
1364 
1371 
1372 
1385 
1392 
1380 
1364 
1349 
1352 
1333 
1333 
1380 
1364 
1332 
1331 
1327 
1352 
1342 
1365 
1416 
1356 
1340 
1359 
1380 
1363 
1385 
1375 
1376 
1431 
1460 
1411 
1386 
1432 
1457 
1461 
1487 
1470 
1500 
1469 
1457 
1507 
1500 
1496 
1450 
1450 
1444 
1396 
1392 
1363 
1321 
1303 
1287 
1251 
1230 
1204 
1180 
1200 
1193 
1185 
1110 
1153 
1170 
1113 
1100 
1145 
1100 
1082 
1097 
1093 
1116 
1107 
1097 
1110 
1078 
1025 
1056 
1088 
1114 
1128 
1092 
1038 
1052 
1059 
1073 
1075 
1087 
1120 
1065 
1042 
1064 
1096 
1102 
1082 
1026 
1041 
1071 
1051 
1037 
1081 
1091 
1018 
983 
1004 
1061 
1044 
1067 
1065 
1056 
1064 
1033 
992 
1033 
1032 
995 
983 
1025 
1027 
1017 
1011 
1042 
1056 
980 
964 
1041 
1057 
1036 
987 
1015 
1016 
1024 
1064 
1040 
1048 
1043 
1060 
1037 
1062 
1096 
1092 
1076 
1102 
1070 
1065 
1044 
1010 
1020 
1025 
972 
993 
1004 
978 
962 
1009 
1024 
985 
994 
1033 
1065 
1053 
1051 
1025 
983 
978 
1000 
1089 
1244 
1374 
1513 
1639 
1630 
1433 
1146 
969 
814 
727 
797 
887 
943 
1016 
1087 
1090 
1075 
1060 
1074 
1055 
1074 
1092 
1086 
1093 
1098 
1137 
1145 
1125 
1123 
1158 
1177 
1126 
1128 
1161 
1200 
1226 
1202 
1241 
1273 
1245 
1209 
1207 
1234 
1237 
1264 
1299 
1335 
1326 
1349 
1372 
1427 
1439 
1392 
1405 
1445 
1465 
1469 
1419 
1433 
1454 
1445 
1397 
1382 
1386 
1309 
1250 
1297 
1281 
1233 
1190 
1176 
1199 
1199 
1190 
1202 
1197 
1179 
1175 
1170 
1185 
1166 
1144 
1108 
1103 
1136 
1157 
1181 
1183 
1137 
1112 
1179 
1154 
1152 
1198 
1164 
1160 
1190 
1185 
1184 
1182 
1211 
1216 
1199 
1179 
1204 
1258 
1209 
1180 
1207 
1226 
1204 
1163 
1195 
1267 
1220 
1198 
1231 
1208 
1208 
1232 
1254 
1246 
1276 
1233 
1218 
1227 
1216 
1232 
1248 
1267 
1213 
1173 
1253 
1298 
1286 
1280 
1250 
1216 
1213 
1242 
1290 
1300 
1291 
1285 
1314 
1320 
1314 
1330 
1329 
1334 
1321 
1338 
1337 
1347 
1384 
1384 
1326 
1292 
1328 
1306 
1261 
1269 
1343 
1383 
1302 
1241 
1282 
1289 
1277 
1282 
1309 
1330 
1328 
1272 
1285 
1294 
1273 
1266 
1261 
1362 
1550 
1595 
1654 
1797 
1897 
1826 
1588 
1443 
1257 
1086 
1062 
1151 
1264 
1321 
1355 
1380 
1382 
1360 
1373 
1370 
1423 
1437 
1434 
1403 
1402 
1407 
1405 
1430 
1464 
1462 
1444 
1454 
1449 
1472 
1494 
1464 
1459 
1530 
1514 
1466 
1493 
1573 
1610 
1586 
1560 
1621 
1623 
1619 
1607 
1622 
1645 
1692 
1655 
1648 
1716 
1726 
1673 
1730 
1768 
1738 
1707 
1712 
1704 
1682 
1668 
1630 
1571 
1558 
1562 
1507 
1538 
1511 
1499 
1473 
1481 
1520 
1480 
1437 
1497 
1478 
1474 
1494 
1470 
1468 
1494 
1441 
1493 
1515 
1492 
1478 
1495 
1497 
1485 
1516 
1521 
1519 
1553 
1541 
1552 
1566 
1539 
1546 
1528 
1547 
1518 
1512 
1539 
1565 
1551 
1555 
1543 
1545 
1537 
1553 
1568 
1597 
1582 
1533 
1514 
1544 
1544 
1552 
1563 
1526 
1536 
1573 
1568 
1544 
1554 
1574 
1573 
1555 
1531 
1562 
1593 
1580 
1563 
1591 
1596 
1580 
1612 
1612 
1609 
1590 
1590 
1644 
1620 
1641 
1665 
1620 
1611 
1600 
1596 
1656 
1655 
1636 
1611 
1606 
1611 
1590 
1587 
1612 
1614 
1590 
1552 
1527 
1587 
1635 
1589 
1576 
1587 
1625 
1617 
1584 
1517 
1539 
1542 
1545 
1661 
1814 
1916 
2042 
2148 
2158 
2057 
1809 
1641 
1426 
1295 
1335 
1414 
1507 
1571 
1606 
1612 
1639 
1656 
1648 
1657 
1626 
1638 
1624 
1629 
1664 
1685 
1685 
1661 
1703 
1684 
1684 
1727 
1767 
1747 
1696 
1701 
1743 
1708 
1727 
1767 
1720 
1760 
1810 
1770 
1776 
1826 
1882 
1861 
1836 
1835 
1897 
1929 
1958 
1924 
1906 
1966 
1949 
1921 
1912 
1923 
1919 
1859 
1865 
1877 
1835 
1797 
1784 
1789 
1730 
1696 
1742 
1716 
1673 
1623 
1630 
1680 
1615 
1581 
1598 
1602 
1626 
1629 
1599 
1611 
1616 
1611 
1600 
1617 
1653 
1695 
1639 
1623 
1652 
1605 
1578 
1602 
1591 
1633 
1645 
1627 
1668 
1663 
1621 
1606 
1592 
1641 
1606 
1632 
1675 
1667 
1669 
1641 
1629 
1659 
1623 
1601 
1610 
1679 
1667 
1625 
1604 
1648 
1616 
1627 
1639 
1652 
1629 
1640 
1683 
1630 
1642 
1670 
1659 
1687 
1695 
1700 
1698 
1686 
1686 
1727 
1696 
1690 
1714 
1696 
1690 
1694 
1686 
1673 
1710 
1660 
1609 
1620 
1617 
1591 
1616 
1662 
1624 
1573 
1584 
1606 
1616 
1648 
1586 
1624 
1645 
1623 
1640 
1633 
1726 
1862 
1947 
2142 
2262 
2242 
2044 
1773 
1587 
1373 
1263 
1363 
1458 
1545 
1558 
1616 
1656 
1674 
1658 
1703 
1695 
1638 
1651 
1723 
1700 
1669 
1678 
1691 
1722 
1704 
1697 
1677 
1714 
1753 
1732 
1710 
1755 
1743 
1732 
1804 
1763 
1779 
1871 
1831 
1812 
1844 
1847 
1865 
1917 
1936 
1918 
1898 
1930 
1967 
1944 
1962 
1982 
1959 
1959 
1940 
1926 
1907 
1948 
1913 
1860 
1862 
1888 
1829 
1717 
1740 
1758 
1691 
1646 
1661 
1666 
1673 
1648 
1679 
1703 
1688 
1664 
1645 
1635 
1592 
1577 
1583 
1642 
1673 
1650 
1658 
1714 
1649 
1617 
1630 
1620 
1653 
1665 
1669 
1633 
1667 
1657 
1639 
1657 
1663 
1691 
1708 
1665 
1643 
1666 
1646 
1646 
1695 
1703 
1665 
1671 
1646 
1633 
1631 
1697 
1733 
1637 
1631 
1622 
1604 
1665 
1653 
1626 
1668 
1657 
1668 
1645 
1626 
1630 
1690 
1666 
1631 
1667 
1698 
1678 
1677 
1686 
1735 
1728 
1684 
1689 
1695 
1658 
1655 
1658 
1673 
1608 
1569 
1584 
1599 
1626 
1612 
1609 
1616 
1642 
1616 
1574 
1609 
1643 
1650 
1662 
1644 
1612 
1598 
1601 
1732 
1859 
1960 
2093 
2183 
2147 
1948 
1731 
1578 
1458 
1373 
1359 
1479 
1542 
1564 
1629 
1665 
1643 
1640 
1596 
1621 
1668 
1681 
1672 
1682 
1644 
1641 
1707 
1720 
1631 
1629 
1662 
1698 
1681 
1714 
1755 
1719 
1713 
1750 
1727 
1701 
1721 
1760 
1804 
1775 
1756 
1807 
1827 
1846 
1835 
1841 
1858 
1866 
1870 
1905 
1938 
1943 
1952 
1900 
1874 
1866 
1853 
1860 
1816 
1789 
1754 
1721 
1725 
1747 
1757 
1685 
1656 
1640 
1569 
1541 
1610 
1639 
1623 
1619 
1593 
1583 
1584 
1549 
1559 
1634 
1607 
1547 
1514 
1574 
1602 
1559 
1568 
1585 
1603 
1619 
1603 
1571 
1573 
1586 
1579 
1577 
1601 
1634 
1600 
1592 
1606 
1597 
1628 
1629 
1612 
1589 
1597 
1590 
1594 
1581 
1604 
1575 
1553 
1538 
1565 
1615 
1603 
1579 
1615 
1609 
1591 
1616 
1597 
1573 
1585 
1586 
1597 
1596 
1632 
1624 
1662 
1636 
1655 
1652 
1698 
1693 
1643 
1605 
1630 
1599 
1581 
1563 
1591 
1647 
1631 
1598 
1580 
1557 
1566 
1581 
1579 
1616 
1624 
1562 
1582 
1632 
1617 
1589 
1578 
1542 
1622 
1753 
1855 
2002 
2157 
2250 
2116 
1876 
1686 
1452 
1321 
1362 
1475 
1568 
1552 
1544 
1607 
1639 
1629 
1623 
1646 
1634 
1605 
1606 
1650 
1659 
1622 
1605 
1620 
1633 
1646 
1711 
1703 
1675 
1685 
1676 
1700 
1674 
1700 
1714 
1722 
1753 
1766 
1746 
1741 
1762 
1807 
1836 
1826 
1838 
1817 
1856 
1916 
1935 
1924 
1903 
1912 
1950 
1925 
1857 
1856 
1882 
1869 
1838 
1832 
1802 
1768 
1708 
1694 
1699 
1725 
1727 
1724 
1671 
1618 
1653 
1661 
1604 
1553 
1558 
1569 
1605 
1604 
1607 
1589 
1562 
1585 
1589 
1621 
1653 
1601 
1614 
1632 
1536 
1541 
1580 
1599 
1577 
1577 
1618 
1638 
1599 
1564 
1595 
1638 
1624 
1625 
1586 
1590 
1575 
1568 
1552 
1589 
1591 
1589 
1585 
1612 
1599 
1615 
1586 
1613 
1626 
1588 
1589 
1629 
1590 
1602 
1590 
1611 
1610 
1575 
1552 
1583 
1596 
1600 
1600 
1603 
1662 
1686 
1620 
1613 
1644 
1630 
1658 
1623 
1662 
1634 
1588 
1566 
1559 
1595 
1594 
1599 
1549 
1559 
1555 
1558 
1567 
1569 
1574 
1542 
1500 
1515 
1543 
1570 
1568 
1525 
1519 
1614 
1756 
1897 
2035 
2117 
2092 
1983 
1770 
1580 
1307 
1229 
1340 
1435 
1481 
1574 
1580 
1511 
1513 
1581 
1608 
1590 
1603 
1568 
1574 
1594 
1595 
1620 
1604 
1577 
1613 
1627 
1615 
1624 
1636 
1670 
1661 
1649 
1658 
1650 
1670 
1710 
1695 
1702 
1667 
1661 
1734 
1769 
1759 
1742 
1745 
1753 
1745 
1786 
1836 
1843 
1832 
1863 
1858 
1824 
1818 
1819 
1790 
1778 
1767 
1715 
1708 
1685 
1633 
1598 
1602 
1613 
1582 
1541 
1597 
1609 
1532 
1508 
1556 
1549 
1504 
1488 
1495 
1472 
1504 
1518 
1500 
1535 
1513 
1482 
1512 
1552 
1495 
1506 
1501 
1498 
1520 
1508 
1498 
1593 
1549 
1500 
1496 
1480 
1522 
1531 
1531 
1509 
1488 
1515 
1493 
1511 
1498 
1496 
1493 
1506 
1527 
1528 
1531 
1507 
1498 
1510 
1512 
1482 
1514 
1513 
1467 
1468 
1468 
1464 
1464 
1485 
1517 
1475 
1454 
1432 
1482 
1500 
1491 
1499 
1473 
1483 
1495 
1488 
1492 
1508 
1485 
1511 
1538 
1552 
1521 
1480 
1471 
1504 
1488 
1453 
1439 
1457 
1486 
1455 
1455 
1437 
1436 
1443 
1444 
1426 
1456 
1465 
1440 
1447 
1451 
1447 
1479 
1430 
1432 
1447 
1546 
1636 
1796 
1959 
2018 
1957 
1745 
1604 
1395 
1210 
1190 
1282 
1351 
1382 
1474 
1507 
1471 
1444 
1449 
1482 
1503 
1481 
1409 
1455 
1492 
1447 
1459 
1451 
1513 
1510 
1475 
1467 
1466 
1522 
1570 
1539 
1556 
1542 
1502 
1523 
1536 
1553 
1587 
1626 
1622 
1608 
1634 
1640 
1663 
1707 
1692 
1641 
1699 
1729 
1722 
1712 
1683 
1683 
1737 
1723 
1699 
1688 
1631 
1617 
1599 
1631 
1590 
1565 
1528 
1531 
1506 
1459 
1446 
1473 
1481 
1420 
1402 
1416 
1410 
1438 
1430 
1416 
1415 
1416 
1429 
1412 
1426 
1391 
1400 
1421 
1427 
1380 
1388 
1416 
1445 
1451 
1441 
1423 
1404 
1414 
1443 
1424 
1446 
1450 
1435 
1395 
1384 
1441 
1415 
1417 
1441 
1418 
1371 
1371 
1395 
1405 
1397 
1387 
1416 
1442 
1436 
1412 
1417 
1366 
1349 
1403 
1414 
1429 
1403 
1361 
1365 
1403 
1400 
1409 
1414 
1431 
1458 
1423 
1376 
1374 
1391 
1399 
1373 
1424 
1451 
1443 
1423 
1430 
1430 
1448 
1452 
1454 
1439 
1470 
1430 
1363 
1376 
1409 
1403 
1382 
1369 
1362 
1353 
1367 
1401 
1403 
1369 
1353 
1368 
1399 
1372 
1362 
1317 
1313 
1340 
1357 
1429 
1580 
1688 
1829 
2008 
2028 
1792 
1517 
1376 
1181 
1119 
1183 
1190 
1251 
1337 
1379 
1401 
1409 
1403 
1417 
1434 
1394 
1396 
1428 
1424 
1437 
1450 
1463 
1449 
1443 
1486 
1492 
1494 
1460 
1466 
1515 
1517 
1504 
1475 
1485 
1548 
1543 
1571 
1596 
1600 
1562 
1576 
1597 
1581 
1613 
1647 
1700 
1730 
1769 
1674 
1688 
1731 
1714 
1709 
1731 
1716 
1695 
1670 
1634 
1629 
1636 
1589 
1551 
1516 
1540 
1525 
1472 
1436 
1486 
1461 
1427 
1469 
1462 
1417 
1394 
1379 
1403 
1400 
1376 
1378 
1353 
1369 
1406 
1393 
1429 
1435 
1389 
1374 
1416 
1435 
1430 
1449 
1398 
1404 
1442 
1425 
1446 
1457 
1475 
1452 
1438 
1464 
1494 
1449 
1426 
1437 
1424 
1394 
1343 
1394 
1429 
1404 
1467 
1480 
1454 
1414 
1428 
1456 
1465 
1461 
1463 
1470 
1477 
1453 
1465 
1437 
1453 
1473 
1454 
1426 
1430 
1438 
1439 
1477 
1482 
1484 
1511 
1526 
1526 
1492 
1515 
1555 
1514 
1503 
1491 
1448 
1458 
1493 
1442 
1428 
1403 
1418 
1407 
1405 
1433 
1454 
1435 
1450 
1451 
1438 
1448 
1452 
1457 
1399 
1413 
1469 
1586 
1731 
1898 
2034 
2067 
1931 
1725 
1511 
1319 
1111 
1102 
1194 
1346 
1420 
1438 
1473 
1470 
1411 
1415 
1464 
1481 
1475 
1492 
1492 
1498 
1501 
1483 
1522 
1523 
1575 
1529 
1457 
1525 
1536 
1505 
1531 
1555 
1532 
1571 
1597 
1591 
1595 
1586 
1576 
1621 
1648 
1679 
1680 
1684 
1705 
1710 
1742 
1791 
1783 
1774 
1730 
1747 
1763 
1741 
1703 
1724 
1726 
1706 
1675 
1661 
1622 
1586 
1600 
1609 
1514 
1475 
1499 
1475 
1453 
1470 
1477 
1449 
1437 
1454 
1456 
1444 
1444 
1461 
1418 
1390 
1444 
1461 
1424 
1408 
1425 
1447 
1488 
1421 
1410 
1471 
1430 
1446 
1468 
1495 
1488 
1458 
1432 
1452 
1476 
1448 
1444 
1491 
1488 
1495 
1459 
1446 
1476 
1472 
1439 
1452 
1484 
1505 
1472 
1419 
1426 
1423 
1428 
1467 
1486 
1485 
1459 
1432 
1450 
1472 
1464 
1477 
1457 
1456 
1452 
1415 
1421 
1424 
1470 
1470 
1443 
1498 
1531 
1513 
1505 
1510 
1490 
1480 
1515 
1515 
1460 
1418 
1403 
1429 
1413 
1403 
1430 
1453 
1447 
1391 
1424 
1397 
1399 
1411 
1428 
1402 
1407 
1447 
1438 
1443 
1431 
1464 
1580 
1703 
1839 
1960 
2021 
1868 
1650 
1518 
1305 
1108 
1180 
1287 
1379 
1405 
1454 
1456 
1447 
1482 
1459 
1429 
1439 
1438 
1428 
1474 
1471 
1429 
1435 
1443 
1525 
1511 
1507 
1530 
1495 
1480 
1549 
1536 
1538 
1534 
1537 
1539 
1565 
1575 
1564 
1564 
1575 
1611 
1651 
1582 
1556 
1632 
1668 
1723 
1738 
1723 
1724 
1703 
1725 
1734 
1726 
1680 
1693 
1698 
1663 
1616 
1568 
1566 
1561 
1511 
1542 
1539 
1501 
1440 
1445 
1461 
1437 
1418 
1394 
1424 
1481 
1452 
1387 
1385 
1416 
1402 
1405 
1385 
1434 
1412 
1377 
1383 
1420 
1402 
1419 
1405 
1392 
1330 
1385 
1412 
1445 
1456 
1412 
1402 
1466 
1509 
1486 
1451 
1467 
1483 
1446 
1465 
1479 
1445 
1409 
1400 
1454 
1489 
1455 
1449 
1425 
1413 
1439 
1409 
1411 
1444 
1409 
1435 
1474 
1441 
1444 
1436 
1397 
1427 
1404 
1391 
1403 
1425 
1435 
1455 
1421 
1422 
1485 
1471 
1464 
1453 
1501 
1502 
1431 
1444 
1503 
1485 
1413 
1384 
1409 
1364 
1373 
1375 
1395 
1406 
1376 
1332 
1370 
1393 
1379 
1400 
1396 
1442 
1432 
1388 
1390 
1396 
1352 
1333 
1443 
1591 
1710 
1829 
1967 
1980 
1735 
1517 
1378 
1164 
1138 
1217 
1283 
1307 
1363 
1366 
1373 
1331 
1374 
1394 
1414 
1412 
1436 
1444 
1467 
1426 
1391 
1403 
1416 
1414 
1427 
1434 
1426 
1415 
1414 
1422 
1441 
1438 
1423 
1484 
1484 
1449 
1447 
1525 
1555 
1552 
1516 
1532 
1562 
1572 
1564 
1590 
1655 
1645 
1597 
1603 
1654 
1652 
1607 
1590 
1642 
1642 
1601 
1579 
1543 
1476 
1461 
1464 
1448 
1458 
1418 
1398 
1415 
1407 
1368 
1330 
1315 
1339 
1348 
1345 
1338 
1326 
1298 
1307 
1327 
1320 
1327 
1333 
1357 
1343 
1279 
1235 
1275 
1321 
1361 
1355 
1342 
1363 
1335 
1324 
1332 
1368 
1386 
1365 
1327 
1325 
1332 
1318 
1308 
1341 
1345 
1345 
1362 
1341 
1324 
1352 
1365 
1356 
1324 
1362 
1378 
1344 
1324 
1364 
1331 
1312 
1339 
1391 
1356 
1324 
1364 
1350 
1362 
1382 
1368 
1365 
1350 
1294 
1302 
1353 
1336 
1371 
1364 
1396 
1442 
1382 
1370 
1379 
1403 
1347 
1329 
1379 
1443 
1452 
1331 
1355 
1388 
1354 
1329 
1338 
1370 
1331 
1303 
1333 
1391 
1355 
1279 
1268 
1302 
1297 
1294 
1295 
1326 
1323 
1390 
1483 
1574 
1719 
1824 
1891 
1782 
1565 
1414 
1204 
1054 
1125 
1239 
1267 
1304 
1351 
1321 
1347 
1298 
1281 
1352 
1345 
1368 
1354 
1383 
1406 
1380 
1349 
1399 
1374 
1392 
1420 
1414 
1384 
1386 
1407 
1429 
1473 
1443 
1425 
1476 
1462 
1424 
1427 
1475 
1508 
1500 
1488 
1565 
1590 
1560 
1582 
1617 
1657 
1623 
1656 
1665 
1704 
1683 
1625 
1586 
1637 
1620 
1544 
1514 
1511 
1534 
1512 
1505 
1474 
1437 
1411 
1405 
1436 
1373 
1354 
1314 
1355 
1362 
1339 
1349 
1392 
1410 
1375 
1291 
1247 
1226 
1248 
1285 
1315 
1347 
1384 
1355 
1352 
1347 
1314 
1367 
1340 
1376 
1404 
1372 
1362 
1330 
1324 
1326 
1339 
1345 
1379 
1373 
1369 
1390 
1368 
1340 
1331 
1352 
1353 
1358 
1366 
1322 
1366 
1365 
1356 
1356 
1372 
1366 
1355 
1361 
1352 
1367 
1378 
1363 
1396 
1405 
1367 
1337 
1334 
1363 
1387 
1354 
1330 
1384 
1411 
1378 
1388 
1390 
1418 
1397 
1386 
1402 
1423 
1387 
1356 
1364 
1386 
1401 
1374 
1358 
1359 
1335 
1305 
1319 
1373 
1393 
1366 
1303 
1320 
1320 
1331 
1351 
1346 
1305 
1292 
1390 
1529 
1686 
1826 
1916 
1908 
1697 
1440 
1264 
1035 
1044 
1129 
1198 
1266 
1351 
1319 
1315 
1356 
1386 
1367 
1361 
1362 
1354 
1386 
1379 
1361 
1386 
1428 
1433 
1395 
1402 
1407 
1394 
1361 
1395 
1436 
1442 
1418 
1432 
1414 
1404 
1460 
1465 
1444 
1526 
1539 
1506 
1510 
1582 
1593 
1603 
1616 
1661 
1661 
1610 
1604 
1635 
1643 
1629 
1619 
1634 
1623 
1567 
1530 
1543 
1562 
1516 
1463 
1460 
1430 
1380 
1391 
1369 
1382 
1389 
1347 
1313 
1326 
1331 
1314 
1342 
1320 
1280 
1248 
1216 
1271 
1305 
1281 
1281 
1343 
1324 
1275 
1274 
1334 
1346 
1329 
1349 
1358 
1360 
1329 
1367 
1351 
1332 
1337 
1316 
1336 
1347 
1366 
1317 
1310 
1296 
1281 
1313 
1308 
1338 
1366 
1341 
1323 
1270 
1307 
1316 
1286 
1285 
1339 
1343 
1327 
1349 
1362 
1341 
1284 
1313 
1335 
1327 
1325 
1336 
1379 
1468 
1374 
1327 
1324 
1337 
1336 
1359 
1343 
1318 
1285 
1289 
1273 
1270 
1285 
1272 
1253 
1300 
1297 
1252 
1253 
1249 
1292 
1267 
1282 
1283 
1248 
1221 
1240 
1385 
1560 
1612 
1788 
1861 
1822 
1600 
1333 
1157 
1007 
961 
996 
1072 
1150 
1187 
1224 
1212 
1233 
1255 
1261 
1266 
1260 
1257 
1232 
1220 
1250 
1267 
1241 
1260 
1296 
1269 
1268 
1288 
1301 
1290 
1264 
1254 
1285 
1287 
1304 
1306 
1284 
1309 
1322 
1340 
1338 
1337 
1350 
1345 
1339 
1358 
1394 
1401 
1413 
1429 
1457 
1438 
1399 
1388 
1385 
1351 
1316 
1318 
1333 
1292 
1225 
1214 
1190 
1160 
1107 
1057 
1104 
1094 
1059 
1022 
995 
1014 
1006 
986 
934 
937 
921 
958 
977 
919 
886 
894 
901 
898 
899 
889 
899 
900 
869 
909 
885 
842 
845 
845 
849 
860 
859 
866 
842 
829 
847 
850 
829 
837 
824 
820 
764 
737 
752 
782 
781 
753 
742 
725 
686 
705 
730 
699 
677 
712 
748 
734 
718 
671 
669 
673 
649 
646 
635 
615 
607 
613 
607 
620 
612 
566 
568 
567 
531 
481 
486 
502 
494 
508 
481 
474 
429 
394 
421 
427 
470 
486 
454 
414 
386 
407 
399 
384 
376 
389 
516 
597 
728 
887 
970 
843 
635 
493 
380 
135 
108 
178 
296 
303 
313 
350 
319 
285 
282 
315 
318 
308 
336 
310 
294 
303 
271 
266 
296 
264 
246 
287 
279 
255 
218 
223 
248 
240 
215 
189 
211 
272 
248 
278 
312 
329 
319 
286 
278 
308 
346 
374 
403 
449 
383 
363 
362 
382 
379 
304 
282 
294 
251 
235 
230 
194 
190 
141 
135 
98 
70 
36 
54 
44 
35 
-7 
-11 
-30 
13 
16 
-16 
-1 
-28 
-49 
-48 
-20 
7 
-26 
-19 
-17 
-3 
3 
-1 
-2 
-31 
-3 
5 
34 
38 
51 
54 
56 
68 
101 
71 
30 
22 
21 
19 
42 
82 
52 
68 
35 
36 
83 
69 
39 
10 
21 
58 
94 
98 
89 
118 
106 
69 
87 
84 
78 
38 
38 
90 
64 
67 
84 
91 
106 
79 
88 
124 
123 
90 
56 
57 
89 
82 
64 
30 
7 
40 
22 
54 
86 
25 
52 
59 
63 
43 
25 
50 
43 
0 
31 
24 
75 
142 
214 
286 
429 
579 
664 
537 
315 
203 
-5 
-209 
-208 
-47 
24 
20 
58 
96 
73 
57 
91 
130 
157 
129 
115 
155 
192 
169 
159 
192 
217 
201 
216 
244 
234 
264 
244 
236 
261 
307 
263 
267 
311 
309 
307 
308 
353 
412 
410 
430 
495 
493 
466 
474 
513 
507 
467 
432 
504 
570 
491 
444 
451 
502 
433 
358 
298 
314 
344 
321 
276 
231 
225 
219 
178 
187 
178 
217 
201 
176 
230 
218 
177 
201 
243 
248 
278 
251 
256 
274 
259 
231 
227 
261 
232 
234 
259 
299 
299 
304 
286 
308 
272 
268 
326 
332 
310 
293 
315 
340 
364 
342 
364 
357 
305 
319 
313 
310 
321 
328 
377 
396 
369 
349 
358 
396 
345 
321 
324 
325 
376 
389 
354 
349 
375 
337 
370 
372 
383 
382 
402 
406 
423 
460 
434 
443 
443 
451 
449 
450 
415 
370 
409 
362 
407 
412 
382 
386 
413 
415 
383 
395 
406 
393 
413 
416 
384 
387 
419 
375 
329 
415 
585 
668 
775 
971 
1093 
918 
652 
525 
344 
193 
182 
263 
311 
379 
417 
458 
476 
458 
479 
470 
484 
479 
464 
458 
425 
484 
499 
472 
496 
543 
555 
558 
570 
581 
555 
552 
601 
602 
590 
548 
521 
553 
587 
567 
600 
636 
670 
653 
639 
711 
771 
731 
715 
715 
748 
739 
775 
800 
800 
783 
770 
726 
713 
683 
597 
596 
600 
615 
565 
523 
502 
492 
494 
455 
446 
464 
499 
505 
488 
521 
489 
452 
453 
504 
494 
449 
458 
465 
495 
458 
439 
488 
480 
464 
418 
458 
480 
504 
504 
495 
469 
433 
480 
519 
503 
494 
463 
496 
510 
513 
498 
503 
519 
501 
483 
466 
511 
535 
537 
481 
493 
462 
486 
498 
488 
486 
454 
439 
450 
498 
469 
477 
491 
480 
481 
479 
464 
484 
527 
489 
507 
552 
519 
496 
550 
539 
499 
467 
437 
518 
495 
502 
460 
396 
442 
458 
456 
439 
439 
447 
438 
458 
483 
449 
440 
477 
445 
433 
422 
450 
415 
419 
499 
613 
792 
984 
1082 
1040 
835 
588 
453 
180 
139 
213 
301 
380 
379 
421 
485 
520 
467 
464 
512 
532 
471 
470 
480 
483 
510 
484 
520 
525 
534 
536 
527 
538 
547 
566 
590 
547 
553 
584 
591 
618 
631 
602 
569 
629 
693 
671 
689 
694 
759 
744 
702 
772 
796 
794 
840 
793 
771 
747 
741 
751 
707 
668 
612 
670 
645 
590 
623 
571 
563 
589 
481 
436 
525 
476 
434 
475 
473 
460 
443 
433 
439 
458 
455 
456 
477 
445 
428 
408 
437 
419 
411 
428 
475 
456 
458 
451 
454 
475 
474 
468 
444 
479 
473 
462 
496 
498 
432 
441 
437 
403 
445 
489 
429 
429 
455 
430 
412 
447 
530 
519 
460 
429 
422 
433 
440 
461 
439 
457 
458 
486 
469 
447 
425 
433 
467 
479 
489 
533 
513 
537 
513 
461 
500 
518 
502 
486 
470 
484 
445 
411 
412 
445 
470 
443 
435 
486 
495 
445 
436 
439 
476 
441 
412 
445 
462 
475 
479 
564 
685 
870 
1037 
1106 
1003 
700 
465 
289 
128 
154 
218 
289 
405 
468 
461 
488 
476 
477 
451 
443 
511 
538 
554 
497 
504 
486 
508 
493 
462 
493 
483 
512 
532 
516 
581 
556 
519 
547 
521 
535 
567 
578 
629 
628 
630 
683 
687 
674 
653 
661 
691 
700 
694 
701 
684 
704 
669 
684 
675 
721 
701 
637 
606 
604 
578 
525 
509 
529 
530 
503 
464 
347 
361 
389 
411 
394 
378 
332 
321 
361 
367 
387 
363 
382 
381 
380 
383 
375 
396 
388 
379 
379 
400 
390 
374 
357 
406 
379 
374 
398 
390 
403 
380 
369 
402 
377 
394 
404 
381 
371 
373 
417 
398 
381 
370 
395 
412 
415 
408 
358 
334 
397 
391 
382 
353 
350 
347 
341 
313 
349 
406 
370 
337 
326 
385 
434 
389 
340 
379 
427 
375 
358 
377 
358 
310 
285 
318 
359 
319 
302 
324 
322 
248 
247 
247 
275 
285 
276 
274 
285 
307 
269 
297 
299 
254 
337 
493 
624 
714 
805 
794 
663 
408 
255 
39 
-11 
70 
157 
190 
220 
262 
251 
278 
277 
265 
256 
288 
250 
263 
296 
281 
265 
294 
302 
247 
254 
328 
263 
229 
281 
310 
310 
304 
330 
333 
289 
266 
316 
331 
362 
372 
380 
402 
384 
402 
437 
432 
456 
434 
442 
457 
494 
453 
450 
473 
468 
477 
425 
349 
294 
322 
305 
281 
248 
202 
171 
117 
133 
177 
180 
166 
174 
134 
140 
115 
112 
173 
173 
152 
118 
82 
100 
90 
80 
85 
141 
149 
104 
81 
152 
174 
135 
143 
160 
124 
114 
116 
101 
146 
144 
135 
153 
144 
126 
88 
77 
97 
112 
147 
151 
209 
124 
85 
114 
107 
102 
133 
110 
88 
80 
127 
124 
118 
123 
122 
112 
139 
142 
91 
68 
115 
105 
126 
153 
160 
153 
124 
143 
101 
125 
92 
67 
66 
89 
128 
80 
3 
42 
63 
59 
43 
48 
75 
45 
37 
37 
45 
66 
64 
70 
67 
29 
128 
264 
409 
519 
597 
560 
386 
203 
11 
-238 
-187 
-147 
-96 
18 
70 
75 
63 
22 
60 
117 
116 
75 
31 
37 
89 
98 
134 
146 
100 
86 
97 
96 
88 
99 
95 
133 
141 
99 
124 
110 
115 
124 
157 
175 
196 
201 
221 
205 
239 
280 
290 
258 
281 
291 
292 
312 
322 
318 
299 
247 
259 
259 
229 
171 
202 
203 
148 
169 
87 
26 
42 
32 
-3 
3 
1 
1 
29 
24 
-10 
-2 
0 
-11 
22 
15 
0 
-5 
-10 
-2 
15 
40 
11 
-46 
-47 
-5 
-2 
-5 
41 
31 
18 
18 
0 
40 
48 
25 
-27 
-36 
25 
46 
1 
-36 
39 
46 
10 
36 
-5 
-8 
-7 
-7 
-30 
-16 
1 
15 
-3 
-10 
-16 
-18 
-47 
-43 
21 
-17 
-30 
2 
0 
-62 
-49 
-12 
-17 
-30 
-24 
-10 
36 
3 
-9 
4 
2 
-7 
-35 
-48 
-59 
-54 
-76 
-85 
-34 
-60 
-89 
-38 
-19 
-85 
-110 
-103 
-90 
-59 
-75 
-140 
-161 
-97 
37 
163 
283 
453 
553 
473 
284 
62 
-69 
-310 
-340 
-261 
-182 
-70 
-69 
-59 
-53 
-67 
-63 
-27 
-6 
-33 
-51 
-8 
-17 
-11 
8 
9 
-22 
-10 
-19 
-34 
-2 
10 
29 
-10 
47 
61 
44 
38 
27 
58 
99 
72 
92 
107 
97 
107 
157 
168 
150 
173 
184 
166 
167 
160 
201 
257 
199 
179 
196 
170 
200 
139 
76 
61 
72 
35 
-69 
-51 
-28 
-39 
-80 
-41 
-58 
-125 
-86 
-107 
-119 
-119 
-128 
-118 
-102 
-101 
-113 
-126 
-124 
-76 
-58 
-72 
-92 
-93 
-99 
-111 
-104 
-58 
-76 
-94 
-113 
-84 
-58 
-72 
-73 
-107 
-120 
-98 
-67 
-37 
-48 
-98 
-66 
-13 
-66 
-108 
-80 
-92 
-72 
-65 
-73 
-78 
-75 
-70 
-80 
-123 
-89 
-81 
-97 
-118 
-74 
-73 
-128 
-109 
-84 
-83 
-90 
-127 
-102 
-30 
-12 
-82 
-50 
-33 
-74 
-108 
-98 
-80 
-92 
-150 
-159 
-132 
-96 
-163 
-181 
-147 
-99 
-150 
-140 
-149 
-115 
-158 
-169 
-159 
-103 
-133 
-158 
-156 
-85 
73 
188 
365 
442 
441 
258 
-36 
-152 
-365 
-450 
-403 
-334 
-249 
-218 
-148 
-123 
-102 
-81 
-103 
-81 
-106 
-70 
-85 
-75 
-94 
-79 
-29 
-29 
-50 
-12 
-41 
-52 
12 
20 
-25 
1 
75 
88 
44 
8 
10 
24 
71 
80 
75 
134 
129 
107 
131 
172 
151 
201 
215 
223 
227 
195 
206 
256 
254 
185 
160 
153 
157 
145 
103 
91 
50 
-6 
29 
57 
-11 
-72 
-87 
-106 
-75 
-56 
-104 
-127 
-112 
-107 
-110 
-117 
-87 
-75 
-91 
-86 
-79 
-35 
-63 
-97 
-102 
-80 
-51 
-79 
-112 
-98 
-73 
-94 
-93 
-38 
-37 
-71 
-113 
-93 
-101 
-119 
-154 
-97 
-36 
-18 
-28 
-24 
-96 
-138 
-113 
-105 
-36 
-83 
-89 
-121 
-108 
-65 
-113 
-100 
-116 
-123 
-124 
-113 
-104 
-77 
-60 
-106 
-47 
-31 
-73 
-92 
-75 
-32 
-29 
-128 
-164 
-116 
-130 
-162 
-160 
-164 
-144 
-175 
-186 
-137 
-146 
-227 
-218 
-210 
-182 
-121 
-151 
-163 
-181 
-129 
-27 
117 
263 
380 
409 
347 
84 
-147 
-396 
-540 
-456 
-362 
-316 
-314 
-236 
-171 
-169 
-199 
-190 
-180 
-168 
-194 
-194 
-132 
-122 
-179 
-170 
-198 
-193 
-218 
-210 
-162 
-141 
-179 
-147 
-144 
-145 
-188 
-193 
-157 
-125 
-173 
-122 
-106 
-99 
-155 
-140 
-76 
-10 
-37 
-47 
-28 
-16 
-13 
-25 
-39 
-37 
-35 
-50 
-77 
-118 
-130 
-140 
-98 
-138 
-218 
-283 
-310 
-290 
-305 
-319 
-311 
-327 
-342 
-326 
-325 
-379 
-387 
-415 
-405 
-382 
-353 
-366 
-387 
-431 
-424 
-423 
-416 
-413 
-388 
-406 
-487 
-463 
-359 
-385 
-440 
-439 
-395 
-403 
-423 
-451 
-439 
-435 
-421 
-427 
-436 
-448 
-453 
-431 
-419 
-385 
-390 
-410 
-485 
-511 
-470 
-473 
-519 
-482 
-483 
-503 
-490 
-472 
-472 
-512 
-541 
-535 
-524 
-539 
-523 
-485 
-454 
-448 
-488 
-476 
-496 
-518 
-523 
-538 
-533 
-535 
-590 
-628 
-580 
-574 
-622 
-616 
-663 
-630 
-630 
-672 
-665 
-650 
-665 
-647 
-682 
-706 
-687 
-693 
-700 
-662 
-524 
-423 
-290 
-178 
-144 
-260 
-533 
-715 
-874 
-1018 
-1064 
-986 
-843 
-826 
-813 
-799 
-816 
-801 
-779 
-801 
-805 
-814 
-812 
-810 
-826 
-837 
-849 
-813 
-804 
-851 
-889 
-925 
-881 
-844 
-880 
-877 
-857 
-870 
-876 
-909 
-897 
-839 
-865 
-859 
-837 
-808 
-817 
-838 
-818 
-797 
-805 
-797 
-810 
-814 
-796 
-828 
-860 
-863 
-847 
-891 
-864 
-895 
-945 
-951 
-1024 
-1105 
-1057 
-1069 
-1132 
-1139 
-1131 
-1140 
-1196 
-1212 
-1245 
-1245 
-1250 
-1246 
-1243 
-1238 
-1258 
-1317 
-1324 
-1299 
-1313 
-1367 
-1328 
-1288 
-1314 
-1310 
-1297 
-1284 
-1291 
-1309 
-1346 
-1346 
-1309 
-1328 
-1369 
-1369 
-1338 
-1289 
-1287 
-1352 
-1361 
-1322 
-1373 
-1428 
-1400 
-1366 
-1394 
-1460 
-1450 
-1434 
-1444 
-1453 
-1452 
-1463 
-1485 
-1522 
-1468 
-1453 
-1510 
-1505 
-1523 
-1549 
-1562 
-1540 
-1557 
-1524 
-1524 
-1525 
-1531 
-1521 
-1540 
-1546 
-1548 
-1536 
-1497 
-1542 
-1560 
-1590 
-1627 
-1638 
-1649 
-1643 
-1642 
-1629 
-1590 
-1624 
-1581 
-1592 
-1619 
-1659 
-1616 
-1638 
-1646 
-1607 
-1651 
-1662 
-1671 
-1666 
-1561 
-1442 
-1334 
-1219 
-1090 
-1036 
-1285 
-1541 
-1687 
-1851 
-1893 
-1839 
-1741 
-1650 
-1596 
-1583 
-1583 
-1582 
-1633 
-1580 
-1529 
-1524 
-1505 
-1481 
-1502 
-1560 
-1500 
-1499 
-1505 
-1481 
-1450 
-1440 
-1446 
-1444 
-1408 
-1368 
-1409 
-1366 
-1309 
-1360 
-1397 
-1341 
-1308 
-1319 
-1271 
-1260 
-1213 
-1168 
-1168 
-1178 
-1118 
-1059 
-1081 
-1105 
-1116 
-1084 
-1082 
-1091 
-1112 
-1099 
-1125 
-1160 
-1128 
-1134 
-1101 
-1143 
-1235 
-1242 
-1250 
-1271 
-1260 
-1247 
-1235 
-1275 
-1310 
-1292 
-1291 
-1300 
-1317 
-1314 
-1246 
-1273 
-1292 
-1261 
-1282 
-1247 
-1278 
-1293 
-1224 
-1242 
-1264 
-1282 
-1229 
-1226 
-1219 
-1205 
-1155 
-1160 
-1200 
-1205 
-1185 
-1178 
-1183 
-1169 
-1113 
-1052 
-1028 
-1100 
-1129 
-1142 
-1111 
-1104 
-1058 
-1055 
-1068 
-1097 
-1106 
-1095 
-1103 
-1079 
-1012 
-1022 
-1054 
-1077 
-1042 
-1066 
-1069 
-1049 
-1043 
-1039 
-969 
-976 
-976 
-973 
-939 
-920 
-943 
-897 
-888 
-907 
-930 
-955 
-965 
-979 
-939 
-952 
-930 
-915 
-931 
-934 
-958 
-962 
-920 
-918 
-909 
-899 
-900 
-911 
-887 
-862 
-821 
-883 
-925 
-857 
-729 
-600 
-422 
-294 
-217 
-345 
-565 
-746 
-921 
-1120 
-1158 
-1058 
-867 
-818 
-769 
-714 
-733 
-785 
-770 
-757 
-709 
-708 
-718 
-724 
-710 
-690 
-710 
-720 
-677 
-666 
-679 
-659 
-675 
-640 
-628 
-618 
-577 
-579 
-586 
-570 
-520 
-533 
-535 
-553 
-524 
-454 
-462 
-443 
-433 
-445 
-417 
-388 
-389 
-368 
-312 
-312 
-293 
-276 
-385 
-431 
-389 
-355 
-338 
-376 
-416 
-455 
-426 
-460 
-495 
-487 
-466 
-468 
-497 
-524 
-519 
-518 
-558 
-561 
-532 
-550 
-562 
-524 
-505 
-528 
-510 
-530 
-524 
-508 
-469 
-491 
-512 
-480 
-474 
-434 
-447 
-496 
-487 
-492 
-515 
-486 
-462 
-446 
-459 
-460 
-449 
-409 
-434 
-440 
-449 
-428 
-415 
-446 
-444 
-441 
-507 
-528 
-503 
-457 
-433 
-435 
-415 
-433 
-453 
-459 
-461 
-469 
-483 
-479 
-496 
-483 
-463 
-423 
-382 
-376 
-410 
-410 
-412 
-382 
-431 
-473 
-487 
-484 
-479 
-500 
-491 
-475 
-504 
-545 
-531 
-474 
-493 
-501 
-480 
-498 
-489 
-463 
-496 
-526 
-518 
-500 
-408 
-279 
-180 
-3 
95 
91 
-82 
-336 
-546 
-746 
-794 
-762 
-643 
-624 
-582 
-520 
-482 
-485 
-472 
-450 
-470 
-457 
-461 
-467 
-471 
-453 
-445 
-422 
-407 
-441 
-433 
-413 
-443 
-455 
-459 
-444 
-421 
-445 
-407 
-406 
-389 
-355 
-384 
-364 
-343 
-342 
-299 
-269 
-242 
-229 
-263 
-266 
-245 
-228 
-244 
-190 
-172 
-200 
-192 
-247 
-302 
-323 
-311 
-302 
-308 
-345 
-366 
-406 
-422 
-415 
-444 
-491 
-535 
-532 
-539 
-564 
-514 
-483 
-511 
-521 
-555 
-523 
-512 
-628 
-596 
-574 
-599 
-587 
-602 
-551 
-555 
-575 
-567 
-574 
-568 
-577 
-602 
-595 
-562 
-579 
-570 
-543 
-555 
-544 
-536 
-482 
-585 
-620 
-577 
-552 
-571 
-579 
-599 
-634 
-594 
-585 
-581 
-626 
-620 
-608 
-625 
-611 
-628 
-583 
-556 
-634 
-642 
-621 
-607 
-580 
-621 
-629 
-642 
-630 
-591 
-589 
-574 
-594 
-625 
-621 
-599 
-604 
-630 
-600 
-634 
-637 
-659 
-681 
-674 
-672 
-689 
-668 
-661 
-670 
-699 
-666 
-646 
-680 
-690 
-691 
-686 
-680 
-714 
-742 
-734 
-700 
-623 
-515 
-398 
-283 
-146 
-159 
-354 
-533 
-685 
-953 
-1032 
-957 
-842 
-743 
-680 
-688 
-701 
-735 
-757 
-699 
-672 
-712 
-730 
-723 
-702 
-710 
-728 
-711 
-687 
-701 
-709 
-664 
-678 
-674 
-652 
-641 
-646 
-670 
-682 
-668 
-620 
-662 
-663 
-676 
-631 
-623 
-585 
-541 
-573 
-561 
-531 
-503 
-514 
-511 
-518 
-542 
-510 
-474 
-548 
-630 
-602 
-602 
-622 
-627 
-689 
-684 
-652 
-707 
-762 
-736 
-727 
-782 
-790 
-785 
-756 
-830 
-864 
-855 
-835 
-869 
-881 
-863 
-862 
-855 
-890 
-851 
-817 
-822 
-813 
-866 
-855 
-798 
-795 
-837 
-832 
-796 
-797 
-808 
-807 
-806 
-804 
-818 
-770 
-723 
-753 
-807 
-849 
-807 
-739 
-742 
-761 
-814 
-806 
-794 
-806 
-807 
-770 
-801 
-802 
-778 
-739 
-775 
-773 
-800 
-773 
-756 
-743 
-767 
-771 
-766 
-764 
-816 
-782 
-776 
-777 
-775 
-732 
-729 
-765 
-761 
-760 
-729 
-729 
-720 
-716 
-720 
-699 
-677 
-705 
-743 
-772 
-777 
-807 
-812 
-781 
-800 
-797 
-804 
-796 
-806 
-783 
-784 
-820 
-829 
-803 
-772 
-744 
-802 
-848 
-757 
-610 
-449 
-344 
-177 
-151 
-348 
-622 
-768 
-999 
-1097 
-1017 
-959 
-868 
-773 
-725 
-787 
-744 
-731 
-745 
-749 
-777 
-723 
-713 
-733 
-752 
-756 
-714 
-686 
-727 
-700 
-680 
-710 
-676 
-675 
-685 
-708 
-742 
-663 
-610 
-614 
-671 
-694 
-647 
-632 
-618 
-600 
-549 
-543 
-548 
-521 
-492 
-504 
-529 
-487 
-456 
-474 
-470 
-519 
-558 
-505 
-502 
-580 
-607 
-614 
-665 
-658 
-620 
-623 
-674 
-729 
-714 
-693 
-703 
-763 
-812 
-740 
-776 
-820 
-817 
-775 
-774 
-819 
-825 
-782 
-758 
-745 
-787 
-801 
-820 
-826 
-800 
-774 
-777 
-816 
-752 
-771 
-772 
-758 
-769 
-794 
-750 
-732 
-740 
-769 
-734 
-738 
-777 
-806 
-745 
-717 
-789 
-843 
-800 
-783 
-801 
-823 
-802 
-824 
-818 
-761 
-772 
-786 
-807 
-847 
-848 
-786 
-753 
-778 
-787 
-738 
-753 
-818 
-808 
-783 
-765 
-792 
-844 
-759 
-723 
-757 
-878 
-911 
-898 
-845 
-853 
-847 
-810 
-836 
-880 
-908 
-854 
-817 
-832 
-851 
-856 
-883 
-911 
-895 
-881 
-873 
-748 
-627 
-485 
-253 
-169 
-316 
-653 
-815 
-980 
-1185 
-1125 
-1030 
-964 
-910 
-897 
-837 
-834 
-841 
-838 
-859 
-828 
-829 
-818 
-824 
-818 
-812 
-833 
-807 
-796 
-794 
-784 
-779 
-773 
-751 
-790 
-787 
-752 
-770 
-765 
-739 
-702 
-740 
-744 
-711 
-679 
-678 
-680 
-649 
-653 
-631 
-579 
-567 
-594 
-572 
-550 
-580 
-569 
-571 
-584 
-602 
-653 
-628 
-636 
-671 
-699 
-720 
-730 
-744 
-747 
-778 
-806 
-809 
-836 
-888 
-887 
-870 
-911 
-927 
-878 
-859 
-917 
-866 
-860 
-879 
-928 
-907 
-893 
-868 
-865 
-906 
-896 
-890 
-864 
-879 
-865 
-848 
-900 
-940 
-904 
-871 
-904 
-906 
-823 
-815 
-871 
-907 
-903 
-872 
-917 
-922 
-923 
-890 
-888 
-921 
-843 
-825 
-872 
-941 
-946 
-909 
-894 
-899 
-942 
-953 
-897 
-956 
-966 
-922 
-926 
-924 
-932 
-905 
-860 
-900 
-935 
-916 
-865 
-836 
-876 
-927 
-957 
-969 
-1008 
-973 
-977 
-971 
-1012 
-1013 
-975 
-968 
-975 
-1003 
-977 
-977 
-999 
-1001 
-961 
-974 
-970 
-981 
-996 
-969 
-819 
-706 
-608 
-445 
-367 
-470 
-775 
-941 
-1121 
-1256 
-1219 
-1112 
-1010 
-951 
-968 
-991 
-1004 
-1030 
-1052 
-1020 
-968 
-949 
-947 
-962 
-940 
-941 
-962 
-938 
-923 
-942 
-946 
-939 
-925 
-908 
-946 
-973 
-930 
-906 
-903 
-905 
-880 
-805 
-807 
-875 
-845 
-758 
-771 
-793 
-811 
-753 
-734 
-718 
-723 
-713 
-714 
-734 
-742 
-725 
-722 
-757 
-827 
-798 
-803 
-830 
-836 
-830 
-853 
-887 
-967 
-976 
-923 
-945 
-941 
-962 
-1016 
-1062 
-1100 
-1014 
-972 
-1030 
-1055 
-1048 
-1056 
-1047 
-1060 
-1016 
-1031 
-1025 
-1007 
-1048 
-1022 
-1021 
-1012 
-955 
-998 
-987 
-965 
-1043 
-1055 
-1053 
-1064 
-989 
-978 
-1006 
-1002 
-1038 
-1026 
-1022 
-1010 
-1028 
-1037 
-1010 
-992 
-1014 
-1056 
-1074 
-1038 
-991 
-1021 
-1063 
-1021 
-1035 
-1053 
-1079 
-1074 
-1033 
-1039 
-984 
-1002 
-1015 
-1026 
-1017 
-990 
-958 
-967 
-974 
-968 
-1008 
-1040 
-1064 
-1075 
-1077 
-1064 
-1088 
-1047 
-1021 
-1045 
-1064 
-1051 
-1062 
-1057 
-1037 
-1067 
-1081 
-1048 
-1055 
-1060 
-1086 
-1028 
-901 
-760 
-612 
-473 
-446 
-536 
-792 
-998 
-1212 
-1367 
-1329 
-1228 
-1117 
-1071 
-1032 
-1034 
-1000 
-1000 
-1028 
-1048 
-1001 
-1034 
-1031 
-1008 
-986 
-978 
-998 
-996 
-916 
-970 
-965 
-961 
-937 
-959 
-984 
-965 
-950 
-941 
-958 
-887 
-867 
-893 
-876 
-895 
-867 
-858 
-857 
-840 
-842 
-814 
-780 
-764 
-759 
-750 
-756 
-781 
-801 
-754 
-754 
-830 
-881 
-841 
-816 
-856 
-915 
-967 
-961 
-953 
-964 
-969 
-1005 
-1025 
-1076 
-1078 
-1050 
-1042 
-1089 
-1065 
-1070 
-1111 
-1104 
-1126 
-1101 
-1069 
-1090 
-1126 
-1102 
-1066 
-1075 
-1089 
-1105 
-1073 
-1124 
-1136 
-1142 
-1077 
-1035 
-1023 
-1090 
-1065 
-1067 
-1070 
-1082 
-1082 
-1058 
-1074 
-1063 
-1029 
-1058 
-1091 
-1126 
-1099 
-1084 
-1079 
-1104 
-1085 
-1067 
-1102 
-1123 
-1106 
-1112 
-1103 
-1065 
-1092 
-1071 
-1018 
-1080 
-1086 
-1052 
-1030 
-1055 
-1048 
-1043 
-1014 
-1097 
-1119 
-1138 
-1129 
-1102 
-1124 
-1115 
-1115 
-1146 
-1154 
-1166 
-1093 
-1083 
-1105 
-1116 
-1112 
-1115 
-1136 
-1148 
-1124 
-1126 
-1065 
-930 
-790 
-604 
-506 
-522 
-731 
-991 
-1181 
-1404 
-1458 
-1348 
-1263 
-1214 
-1177 
-1099 
-1073 
-1100 
-1065 
-1094 
-1084 
-1061 
-1057 
-1050 
-1083 
-1143 
-1124 
-1098 
-1057 
-1018 
-1028 
-1040 
-1025 
-1007 
-1040 
-1066 
-1017 
-1006 
-990 
-992 
-967 
-951 
-958 
-975 
-950 
-884 
-894 
-898 
-926 
-898 
-835 
-865 
-809 
-804 
-820 
-813 
-834 
-817 
-808 
-837 
-908 
-887 
-900 
-929 
-951 
-956 
-984 
-1017 
-1050 
-1044 
-1071 
-1085 
-1062 
-1106 
-1112 
-1151 
-1164 
-1186 
-1142 
-1144 
-1190 
-1179 
-1143 
-1176 
-1169 
-1173 
-1102 
-1130 
-1163 
-1163 
-1165 
-1146 
-1188 
-1165 
-1130 
-1131 
-1124 
-1100 
-1142 
-1178 
-1168 
-1136 
-1163 
-1116 
-1100 
-1143 
-1106 
-1023 
-1079 
-1144 
-1169 
-1096 
-1091 
-1120 
-1093 
-1092 
-1106 
-1142 
-1170 
-1114 
-1115 
-1156 
-1180 
-1138 
-1079 
-1082 
-1136 
-1123 
-1079 
-1068 
-1067 
-1078 
-1089 
-1088 
-1107 
-1140 
-1144 
-1120 
-1157 
-1171 
-1150 
-1199 
-1158 
-1117 
-1140 
-1143 
-1169 
-1148 
-1175 
-1179 
-1154 
-1181 
-1181 
-1186 
-1164 
-1109 
-1021 
-901 
-793 
-618 
-531 
-581 
-854 
-1090 
-1291 
-1414 
-1399 
-1372 
-1299 
-1252 
-1156 
-1142 
-1177 
-1144 
-1100 
-1106 
-1112 
-1102 
-1097 
-1132 
-1140 
-1116 
-1088 
-1084 
-1113 
-1133 
-1132 
-1109 
-1084 
-1095 
-1085 
-1077 
-1079 
-1091 
-1103 
-1055 
-1059 
-1052 
-1027 
-977 
-943 
-998 
-953 
-910 
-922 
-906 
-898 
-875 
-894 
-940 
-949 
-915 
-890 
-896 
-933 
-935 
-929 
-1031 
-1058 
-1006 
-972 
-1013 
-1031 
-1072 
-1115 
-1107 
-1148 
-1198 
-1199 
-1200 
-1194 
-1221 
-1238 
-1198 
-1223 
-1240 
-1248 
-1221 
-1226 
-1203 
-1213 
-1249 
-1257 
-1233 
-1205 
-1176 
-1217 
-1241 
-1181 
-1176 
-1191 
-1241 
-1210 
-1233 
-1230 
-1225 
-1227 
-1216 
-1181 
-1184 
-1142 
-1146 
-1161 
-1205 
-1196 
-1235 
-1211 
-1202 
-1212 
-1234 
-1227 
-1227 
-1245 
-1226 
-1164 
-1207 
-1223 
-1231 
-1212 
-1215 
-1237 
-1233 
-1226 
-1214 
-1209 
-1199 
-1242 
-1227 
-1218 
-1176 
-1187 
-1180 
-1164 
-1223 
-1201 
-1201 
-1246 
-1252 
-1239 
-1237 
-1265 
-1268 
-1235 
-1222 
-1252 
-1300 
-1272 
-1222 
-1230 
-1300 
-1280 
-1255 
-1259 
-1270 
-1252 
-1213 
-1087 
-976 
-855 
-737 
-630 
-788 
-1065 
-1137 
-1429 
-1566 
-1469 
-1358 
-1294 
-1284 
-1273 
-1257 
-1201 
-1203 
-1243 
-1253 
-1219 
-1188 
-1277 
-1259 
-1213 
-1214 
-1215 
-1192 
-1210 
-1196 
-1229 
-1220 
-1182 
-1164 
-1177 
-1179 
-1187 
-1175 
-1149 
-1136 
-1142 
-1131 
-1105 
-1112 
-1086 
-1041 
-1012 
-1071 
-1086 
-1036 
-1016 
-1016 
-983 
-968 
-958 
-976 
-965 
-980 
-986 
-1011 
-1035 
-1050 
-1104 
-1140 
-1134 
-1137 
-1143 
-1155 
-1166 
-1184 
-1233 
-1279 
-1282 
-1273 
-1302 
-1274 
-1273 
-1273 
-1296 
-1316 
-1307 
-1310 
-1301 
-1339 
-1320 
-1359 
-1334 
-1267 
-1276 
-1304 
-1304 
-1278 
-1272 
-1294 
-1297 
-1315 
-1341 
-1280 
-1264 
-1259 
-1245 
-1307 
-1327 
-1298 
-1294 
-1302 
-1281 
-1265 
-1265 
-1214 
-1242 
-1260 
-1294 
-1266 
-1267 
-1299 
-1315 
-1270 
-1251 
-1267 
-1283 
-1260 
-1221 
-1288 
-1266 
-1266 
-1286 
-1316 
-1306 
-1223 
-1233 
-1259 
-1240 
-1185 
-1180 
-1220 
-1250 
-1236 
-1228 
-1244 
-1292 
-1294 
-1278 
-1281 
-1289 
-1271 
-1279 
-1293 
-1278 
-1270 
-1237 
-1295 
-1301 
-1290 
-1286 
-1290 
-1286 
-1310 
-1319 
-1280 
-1272 
-1196 
-1048 
-853 
-716 
-669 
-758 
-995 
-1165 
-1406 
-1578 
-1570 
-1475 
-1365 
-1319 
-1287 
-1283 
-1266 
-1268 
-1241 
-1216 
-1252 
-1264 
-1238 
-1250 
-1254 
-1251 
-1235 
-1219 
-1230 
-1210 
-1215 
-1234 
-1274 
-1192 
-1133 
-1124 
-1140 
-1146 
-1140 
-1156 
-1150 
-1167 
-1166 
-1130 
-1108 
-1057 
-1043 
-1025 
-1016 
-1024 
-1028 
-990 
-1006 
-980 
-968 
-956 
-936 
-986 
-1003 
-985 
-1026 
-1060 
-1056 
-1065 
-1054 
-1061 
-1116 
-1167 
-1196 
-1236 
-1288 
-1271 
-1246 
-1266 
-1301 
-1306 
-1254 
-1237 
-1294 
-1331 
-1326 
-1286 
-1289 
-1274 
-1232 
-1248 
-1291 
-1332 
-1310 
-1300 
-1273 
-1264 
-1250 
-1235 
-1282 
-1280 
-1257 
-1272 
-1230 
-1217 
-1252 
-1257 
-1254 
-1243 
-1256 
-1219 
-1173 
-1227 
-1247 
-1234 
-1250 
-1266 
-1264 
-1229 
-1221 
-1226 
-1238 
-1240 
-1206 
-1226 
-1212 
-1236 
-1269 
-1234 
-1249 
-1251 
-1226 
-1135 
-1199 
-1233 
-1167 
-1176 
-1205 
-1209 
-1180 
-1163 
-1173 
-1212 
-1241 
-1264 
-1252 
-1282 
-1283 
-1238 
-1225 
-1199 
-1255 
-1291 
-1252 
-1232 
-1240 
-1244 
-1230 
-1255 
-1263 
-1270 
-1256 
-1244 
-1223 
-1093 
-958 
-807 
-699 
-668 
-711 
-976 
-1187 
-1381 
-1525 
-1481 
-1460 
-1380 
-1331 
-1282 
-1261 
-1218 
-1200 
-1194 
-1220 
-1209 
-1173 
-1195 
-1215 
-1222 
-1200 
-1204 
-1205 
-1130 
-1120 
-1169 
-1168 
-1161 
-1150 
-1141 
-1143 
-1155 
-1147 
-1125 
-1090 
-1094 
-1094 
-1065 
-1030 
-1048 
-1063 
-1056 
-1029 
-992 
-979 
-975 
-940 
-950 
-925 
-912 
-899 
-933 
-953 
-964 
-957 
-927 
-925 
-1005 
-1040 
-1024 
-1089 
-1146 
-1126 
-1143 
-1137 
-1169 
-1182 
-1180 
-1188 
-1218 
-1238 
-1213 
-1275 
-1309 
-1249 
-1230 
-1230 
-1266 
-1292 
-1263 
-1232 
-1260 
-1250 
-1234 
-1222 
-1236 
-1275 
-1253 
-1220 
-1248 
-1237 
-1239 
-1262 
-1259 
-1232 
-1194 
-1192 
-1183 
-1213 
-1192 
-1204 
-1254 
-1288 
-1257 
-1207 
-1212 
-1227 
-1191 
-1180 
-1200 
-1221 
-1227 
-1231 
-1191 
-1213 
-1216 
-1201 
-1202 
-1226 
-1232 
-1234 
-1211 
-1237 
-1235 
-1185 
-1163 
-1169 
-1203 
-1147 
-1114 
-1068 
-1098 
-1156 
-1198 
-1254 
-1244 
-1233 
-1225 
-1203 
-1257 
-1258 
-1240 
-1230 
-1233 
-1255 
-1274 
-1209 
-1229 
-1264 
-1252 
-1207 
-1229 
-1273 
-1298 
-1196 
-1037 
-945 
-841 
-698 
-615 
-733 
-1051 
-1188 
-1378 
-1529 
-1498 
-1427 
-1321 
-1244 
-1247 
-1246 
-1234 
-1199 
-1214 
-1222 
-1253 
-1185 
-1187 
-1207 
-1199 
-1154 
-1169 
-1197 
-1191 
-1150 
-1165 
-1161 
-1135 
-1115 
-1137 
-1120 
-1119 
-1123 
-1088 
-1121 
-1139 
-1097 
-1080 
-1088 
-1044 
-990 
-987 
-1001 
-971 
-945 
-941 
-950 
-967 
-930 
-874 
-875 
-912 
-907 
-906 
-983 
-987 
-954 
-936 
-982 
-1046 
-1073 
-1064 
-1070 
-1078 
-1092 
-1138 
-1178 
-1181 
-1175 
-1183 
-1191 
-1195 
-1195 
-1188 
-1218 
-1237 
-1224 
-1207 
-1203 
-1226 
-1230 
-1238 
-1238 
-1175 
-1226 
-1226 
-1171 
-1165 
-1190 
-1203 
-1199 
-1186 
-1202 
-1225 
-1202 
-1187 
-1226 
-1208 
-1164 
-1200 
-1226 
-1223 
-1203 
-1190 
-1188 
-1185 
-1135 
-1141 
-1212 
-1209 
-1174 
-1178 
-1208 
-1236 
-1251 
-1185 
-1129 
-1211 
-1271 
-1230 
-1251 
-1254 
-1204 
-1186 
-1175 
-1156 
-1215 
-1225 
-1194 
-1177 
-1151 
-1174 
-1176 
-1168 
-1156 
-1134 
-1163 
-1193 
-1228 
-1237 
-1226 
-1205 
-1262 
-1291 
-1204 
-1223 
-1250 
-1261 
-1228 
-1202 
-1222 
-1215 
-1194 
-1197 
-1224 
-1253 
-1274 
-1255 
-1250 
-1155 
-996 
-840 
-700 
-651 
-699 
-875 
-1068 
-1262 
-1498 
-1486 
-1409 
-1366 
-1288 
-1227 
-1209 
-1223 
-1202 
-1203 
-1145 
-1144 
-1179 
-1224 
-1208 
-1177 
-1178 
-1193 
-1159 
-1145 
-1154 
-1182 
-1153 
-1185 
-1224 
-1174 
-1100 
-1128 
-1136 
-1123 
-1113 
-1110 
-1121 
-1074 
-1083 
-1074 
-1061 
-1016 
-1003 
-1019 
-1018 
-980 
-948 
-891 
-934 
-975 
-969 
-935 
-926 
-956 
-988 
-986 
-994 
-1020 
-1023 
-1040 
-1070 
-1117 
-1147 
-1150 
-1120 
-1104 
-1174 
-1214 
-1240 
-1244 
-1195 
-1191 
-1253 
-1267 
-1276 
-1318 
-1271 
-1219 
-1267 
-1251 
-1250 
-1250 
-1240 
-1264 
-1280 
-1278 
-1282 
-1258 
-1241 
-1232 
-1178 
-1219 
-1245 
-1243 
-1239 
-1243 
-1245 
-1245 
-1231 
-1243 
-1252 
-1251 
-1235 
-1250 
-1269 
-1260 
-1233 
-1213 
-1261 
-1251 
-1185 
-1216 
-1255 
-1263 
-1296 
-1253 
-1245 
-1277 
-1277 
-1228 
-1252 
-1285 
-1261 
-1251 
-1281 
-1260 
-1238 
-1200 
-1221 
-1211 
-1242 
-1229 
-1218 
-1213 
-1185 
-1182 
-1213 
-1214 
-1200 
-1203 
-1195 
-1214 
-1266 
-1270 
-1265 
-1254 
-1279 
-1272 
-1243 
-1283 
-1272 
-1250 
-1212 
-1229 
-1325 
-1336 
-1320 
-1252 
-1221 
-1233 
-1265 
-1247 
-1243 
-1162 
-1018 
-882 
-731 
-659 
-700 
-903 
-1124 
-1311 
-1514 
-1532 
-1463 
-1369 
-1301 
-1240 
-1247 
-1266 
-1270 
-1231 
-1215 
-1219 
-1241 
-1226 
-1234 
-1226 
-1223 
-1179 
-1203 
-1214 
-1207 
-1163 
-1144 
-1179 
-1204 
-1172 
-1153 
-1182 
-1189 
-1143 
-1104 
-1151 
-1163 
-1106 
-1047 
-1092 
-1121 
-1074 
-1031 
-1038 
-1042 
-995 
-984 
-1011 
-964 
-961 
-947 
-941 
-961 
-964 
-951 
-947 
-1018 
-1073 
-1075 
-1072 
-1101 
-1136 
-1129 
-1167 
-1171 
-1190 
-1199 
-1219 
-1256 
-1243 
-1254 
-1255 
-1244 
-1298 
-1297 
-1258 
-1253 
-1247 
-1272 
-1262 
-1269 
-1260 
-1300 
-1310 
-1238 
-1292 
-1300 
-1250 
-1272 
-1285 
-1283 
-1262 
-1244 
-1247 
-1253 
-1285 
-1243 
-1228 
-1253 
-1277 
-1274 
-1214 
-1245 
-1281 
-1301 
-1294 
-1322 
-1327 
-1283 
-1290 
-1293 
-1269 
-1269 
-1303 
-1319 
-1329 
-1308 
-1311 
-1281 
-1290 
-1333 
-1293 
-1304 
-1330 
-1325 
-1347 
-1314 
-1315 
-1328 
-1284 
-1290 
-1301 
-1317 
-1293 
-1309 
-1321 
-1370 
-1330 
-1310 
-1359 
-1408 
-1417 
-1409 
-1440 
-1419 
-1419 
-1400 
-1398 
-1422 
-1462 
-1461 
-1445 
-1474 
-1487 
-1476 
-1426 
-1478 
-1509 
-1530 
-1516 
-1410 
-1262 
-1119 
-992 
-875 
-930 
-1203 
-1412 
-1647 
-1855 
-1851 
-1760 
-1729 
-1717 
-1636 
-1587 
-1570 
-1596 
-1612 
-1629 
-1603 
-1642 
-1675 
-1646 
-1621 
-1621 
-1661 
-1643 
-1641 
-1614 
-1649 
-1676 
-1696 
-1678 
-1656 
-1673 
-1631 
-1651 
-1635 
-1656 
-1665 
-1661 
-1662 
-1673 
-1649 
-1627 
-1663 
-1680 
-1614 
-1589 
-1597 
-1599 
-1597 
-1650 
-1621 
-1588 
-1644 
-1600 
-1617 
-1677 
-1687 
-1675 
-1720 
-1794 
-1806 
-1791 
-1796 
-1892 
-1934 
-1943 
-1969 
-1968 
-1984 
-2058 
-2080 
-2064 
-2078 
-2071 
-2061 
-2120 
-2143 
-2165 
-2173 
-2152 
-2167 
-2201 
-2178 
-2163 
-2158 
-2196 
-2242 
-2190 
-2174 
-2244 
-2287 
-2259 
-2256 
-2266 
-2270 
-2256 
-2229 
-2221 
-2262 
-2262 
-2276 
-2278 
-2270 
-2267 
-2298 
-2357 
-2357 
-2319 
-2326 
-2352 
-2397 
-2377 
-2337 
-2329 
-2338 
-2366 
-2354 
-2354 
-2404 
-2365 
-2367 
-2438 
-2497 
-2434 
-2462 
-2483 
-2439 
-2465 
-2478 
-2438 
-2431 
-2460 
-2463 
-2425 
-2449 
-2456 
-2415 
-2396 
-2378 
-2392 
-2392 
-2350 
-2367 
-2413 
-2475 
-2448 
-2406 
-2446 
-2466 
-2403 
-2408 
-2413 
-2385 
-2422 
-2415 
-2364 
-2393 
-2375 
-2374 
-2342 
-2327 
-2367 
-2402 
-2365 
-2243 
-2057 
-1941 
-1792 
-1663 
-1705 
-1933 
-2118 
-2253 
-2496 
-2541 
-2452 
-2388 
-2260 
-2195 
-2183 
-2211 
-2178 
-2140 
-2125 
-2111 
-2090 
-2069 
-2058 
-2044 
-2032 
-2013 
-2002 
-1984 
-1962 
-1947 
-1893 
-1880 
-1919 
-1889 
-1850 
-1815 
-1766 
-1819 
-1761 
-1712 
-1717 
-1682 
-1645 
-1597 
-1600 
-1631 
-1571 
-1536 
-1518 
-1504 
-1454 
-1394 
-1340 
-1359 
-1363 
-1305 
-1259 
-1292 
-1324 
-1305 
-1267 
-1317 
-1333 
-1335 
-1351 
-1347 
-1305 
-1345 
-1397 
-1417 
-1394 
-1388 
-1351 
-1336 
-1328 
-1331 
-1303 
-1361 
-1353 
-1360 
-1385 
-1358 
-1324 
-1293 
-1274 
-1248 
-1254 
-1263 
-1258 
-1236 
-1219 
-1217 
-1191 
-1178 
-1165 
-1162 
-1156 
-1162 
-1161 
-1149 
-1123 
-1117 
-1070 
-1086 
-1104 
-1056 
-1029 
-1041 
-1052 
-1035 
-1020 
-1041 
-1017 
-973 
-993 
-980 
-971 
-969 
-998 
-1000 
-971 
-966 
-960 
-969 
-976 
-918 
-858 
-823 
-893 
-887 
-865 
-849 
-838 
-846 
-794 
-755 
-777 
-819 
-816 
-754 
-758 
-727 
-715 
-688 
-717 
-741 
-722 
-690 
-740 
-750 
-703 
-690 
-700 
-708 
-750 
-748 
-705 
-685 
-714 
-717 
-687 
-683 
-723 
-723 
-663 
-727 
-717 
-727 
-699 
-543 
-382 
-309 
-223 
-134 
-120 
-287 
-493 
-671 
-866 
-922 
-837 
-698 
-640 
-600 
-524 
-556 
-618 
-613 
-613 
-626 
-635 
-626 
-650 
-600 
-558 
-589 
-607 
-548 
-539 
-564 
-591 
-592 
-541 
-512 
-518 
-499 
-450 
-448 
-519 
-511 
-498 
-448 
-413 
-399 
-382 
-383 
-359 
-364 
-374 
-329 
-303 
-289 
-186 
-203 
-293 
-318 
-289 
-296 
-317 
-332 
-272 
-281 
-340 
-359 
-372 
-382 
-378 
-437 
-471 
-486 
-484 
-475 
-498 
-525 
-560 
-569 
-550 
-512 
-525 
-568 
-605 
-549 
-503 
-493 
-555 
-557 
-523 
-513 
-496 
-482 
-461 
-471 
-494 
-504 
-498 
-474 
-485 
-455 
-441 
-503 
-559 
-522 
-463 
-479 
-526 
-524 
-539 
-490 
-432 
-442 
-468 
-468 
-450 
-450 
-421 
-436 
-467 
-481 
-418 
-412 
-464 
-469 
-459 
-414 
-410 
-399 
-408 
-441 
-415 
-421 
-432 
-388 
-346 
-423 
-457 
-433 
-421 
-403 
-405 
-364 
-363 
-379 
-376 
-363 
-357 
-398 
-411 
-393 
-354 
-378 
-418 
-439 
-411 
-431 
-435 
-431 
-401 
-443 
-447 
-422 
-441 
-394 
-399 
-471 
-468 
-481 
-472 
-481 
-513 
-426 
-283 
-202 
-99 
56 
156 
78 
-143 
-347 
-531 
-719 
-719 
-607 
-499 
-450 
-430 
-399 
-425 
-466 
-464 
-452 
-410 
-390 
-405 
-365 
-384 
-395 
-397 
-401 
-383 
-382 
-373 
-393 
-387 
-366 
-373 
-380 
-348 
-312 
-326 
-327 
-338 
-331 
-306 
-296 
-230 
-228 
-269 
-289 
-268 
-158 
-144 
-168 
-151 
-167 
-148 
-163 
-164 
-175 
-136 
-168 
-175 
-191 
-247 
-312 
-314 
-312 
-328 
-367 
-341 
-347 
-373 
-409 
-438 
-436 
-415 
-409 
-419 
-429 
-450 
-467 
-514 
-524 
-506 
-487 
-514 
-505 
-480 
-487 
-521 
-557 
-467 
-467 
-496 
-531 
-517 
-493 
-504 
-493 
-494 
-455 
-491 
-487 
-494 
-495 
-578 
-581 
-554 
-507 
-500 
-515 
-503 
-489 
-516 
-613 
-582 
-548 
-522 
-519 
-565 
-579 
-552 
-531 
-557 
-553 
-554 
-558 
-582 
-552 
-515 
-526 
-574 
-572 
-576 
-598 
-593 
-583 
-512 
-502 
-547 
-543 
-490 
-500 
-535 
-569 
-546 
-518 
-527 
-548 
-519 
-552 
-628 
-656 
-665 
-613 
-553 
-575 
-587 
-625 
-591 
-600 
-610 
-590 
-601 
-661 
-650 
-635 
-631 
-613 
-627 
-576 
-511 
-347 
-180 
-72 
-59 
-122 
-386 
-538 
-710 
-829 
-810 
-803 
-744 
-659 
-610 
-591 
-577 
-606 
-574 
-589 
-583 
-562 
-570 
-598 
-599 
-557 
-560 
-550 
-559 
-548 
-519 
-533 
-514 
-499 
-479 
-524 
-495 
-468 
-460 
-465 
-479 
-468 
-457 
-449 
-452 
-405 
-340 
-322 
-334 
-331 
-340 
-339 
-297 
-320 
-323 
-323 
-320 
-314 
-284 
-300 
-313 
-319 
-300 
-352 
-415 
-452 
-436 
-432 
-466 
-487 
-514 
-520 
-532 
-561 
-582 
-578 
-601 
-633 
-647 
-583 
-594 
-580 
-617 
-621 
-594 
-578 
-596 
-625 
-620 
-609 
-597 
-613 
-587 
-561 
-616 
-590 
-579 
-565 
-576 
-579 
-578 
-593 
-636 
-627 
-605 
-609 
-583 
-579 
-553 
-549 
-587 
-659 
-621 
-605 
-651 
-680 
-643 
-618 
-637 
-630 
-633 
-614 
-585 
-596 
-603 
-628 
-601 
-588 
-603 
-568 
-595 
-631 
-634 
-644 
-631 
-600 
-586 
-561 
-582 
-597 
-621 
-637 
-615 
-637 
-693 
-671 
-593 
-614 
-654 
-674 
-662 
-676 
-679 
-630 
-613 
-621 
-685 
-682 
-640 
-666 
-699 
-716 
-575 
-361 
-258 
-131 
-68 
-146 
-389 
-602 
-819 
-991 
-953 
-895 
-762 
-672 
-654 
-637 
-688 
-664 
-661 
-696 
-728 
-706 
-621 
-633 
-654 
-592 
-575 
-607 
-633 
-633 
-662 
-665 
-625 
-624 
-601 
-599 
-564 
-592 
-602 
-574 
-556 
-595 
-560 
-516 
-511 
-518 
-496 
-468 
-475 
-461 
-449 
-384 
-412 
-436 
-427 
-373 
-382 
-371 
-370 
-422 
-437 
-466 
-491 
-498 
-525 
-544 
-583 
-567 
-616 
-628 
-616 
-679 
-681 
-658 
-670 
-717 
-741 
-710 
-707 
-724 
-692 
-716 
-723 
-711 
-683 
-689 
-745 
-756 
-713 
-708 
-706 
-712 
-745 
-727 
-740 
-771 
-738 
-735 
-747 
-769 
-725 
-678 
-730 
-737 
-708 
-658 
-676 
-733 
-748 
-706 
-711 
-752 
-722 
-696 
-713 
-746 
-774 
-723 
-683 
-740 
-801 
-774 
-682 
-719 
-751 
-729 
-701 
-677 
-734 
-775 
-723 
-682 
-712 
-726 
-716 
-677 
-672 
-711 
-746 
-773 
-745 
-749 
-761 
-760 
-786 
-758 
-754 
-737 
-734 
-769 
-809 
-755 
-772 
-797 
-757 
-767 
-765 
-788 
-790 
-743 
-771 
-772 
-684 
-540 
-379 
-253 
-195 
-306 
-562 
-707 
-951 
-1029 
-965 
-885 
-818 
-764 
-770 
-754 
-739 
-763 
-764 
-759 
-776 
-727 
-648 
-627 
-703 
-742 
-710 
-696 
-677 
-657 
-637 
-657 
-707 
-706 
-689 
-683 
-649 
-628 
-634 
-638 
-638 
-625 
-612 
-586 
-530 
-552 
-546 
-555 
-539 
-502 
-454 
-440 
-473 
-499 
-451 
-447 
-466 
-475 
-491 
-485 
-481 
-512 
-533 
-541 
-529 
-570 
-628 
-614 
-652 
-681 
-718 
-703 
-732 
-740 
-731 
-729 
-724 
-705 
-712 
-805 
-803 
-752 
-780 
-788 
-789 
-763 
-758 
-786 
-784 
-748 
-723 
-741 
-756 
-731 
-733 
-795 
-750 
-724 
-736 
-756 
-764 
-769 
-793 
-777 
-762 
-764 
-751 
-759 
-776 
-766 
-743 
-734 
-751 
-793 
-799 
-782 
-731 
-725 
-754 
-748 
-766 
-772 
-776 
-754 
-766 
-776 
-748 
-741 
-722 
-696 
-727 
-711 
-729 
-758 
-749 
-788 
-834 
-814 
-788 
-778 
-811 
-834 
-819 
-795 
-792 
-810 
-796 
-798 
-810 
-831 
-825 
-824 
-788 
-793 
-855 
-800 
-705 
-592 
-481 
-328 
-202 
-275 
-525 
-695 
-837 
-1061 
-1095 
-1007 
-923 
-854 
-829 
-832 
-824 
-794 
-799 
-818 
-810 
-772 
-773 
-780 
-758 
-773 
-769 
-774 
-762 
-725 
-714 
-794 
-840 
-778 
-758 
-730 
-752 
-727 
-673 
-719 
-726 
-707 
-660 
-625 
-661 
-679 
-653 
-635 
-592 
-585 
-590 
-570 
-605 
-603 
-578 
-556 
-517 
-498 
-522 
-528 
-582 
-634 
-618 
-616 
-651 
-668 
-710 
-725 
-729 
-834 
-833 
-806 
-805 
-820 
-841 
-841 
-846 
-822 
-844 
-848 
-852 
-913 
-925 
-853 
-796 
-806 
-830 
-872 
-876 
-831 
-866 
-853 
-856 
-895 
-890 
-849 
-852 
-853 
-866 
-872 
-855 
-871 
-870 
-853 
-865 
-820 
-801 
-843 
-856 
-872 
-897 
-862 
-806 
-856 
-888 
-848 
-863 
-869 
-854 
-910 
-863 
-799 
-794 
-826 
-820 
-799 
-808 
-805 
-813 
-841 
-848 
-879 
-879 
-873 
-910 
-935 
-930 
-914 
-916 
-909 
-890 
-845 
-859 
-878 
-927 
-921 
-895 
-882 
-923 
-920 
-941 
-851 
-757 
-625 
-463 
-351 
-325 
-468 
-712 
-885 
-1110 
-1206 
-1114 
-1026 
-972 
-925 
-925 
-943 
-899 
-920 
-885 
-866 
-894 
-850 
-835 
-849 
-910 
-880 
-877 
-842 
-854 
-811 
-805 
-844 
-825 
-843 
-823 
-796 
-835 
-842 
-825 
-750 
-739 
-775 
-785 
-768 
-687 
-681 
-716 
-710 
-646 
-605 
-593 
-623 
-599 
-641 
-659 
-601 
-585 
-626 
-654 
-613 
-625 
-689 
-725 
-746 
-736 
-734 
-783 
-781 
-796 
-818 
-863 
-841 
-866 
-909 
-953 
-969 
-931 
-908 
-974 
-978 
-980 
-931 
-929 
-933 
-895 
-859 
-917 
-996 
-980 
-914 
-905 
-924 
-960 
-952 
-903 
-919 
-958 
-932 
-888 
-925 
-984 
-990 
-900 
-922 
-929 
-928 
-911 
-906 
-921 
-934 
-929 
-911 
-940 
-945 
-908 
-884 
-906 
-948 
-942 
-910 
-899 
-900 
-886 
-873 
-870 
-854 
-871 
-879 
-919 
-918 
-942 
-960 
-919 
-931 
-971 
-969 
-958 
-923 
-886 
-929 
-935 
-958 
-933 
-916 
-929 
-937 
-916 
-923 
-924 
-941 
-866 
-742 
-628 
-429 
-332 
-323 
-496 
-782 
-954 
-1160 
-1245 
-1182 
-1097 
-1039 
-985 
-916 
-905 
-900 
-900 
-892 
-893 
-907 
-880 
-863 
-864 
-864 
-865 
-778 
-791 
-831 
-860 
-905 
-900 
-857 
-810 
-801 
-825 
-818 
-828 
-809 
-771 
-735 
-767 
-777 
-749 
-750 
-727 
-683 
-628 
-645 
-706 
-680 
-626 
-618 
-611 
-614 
-609 
-585 
-622 
-615 
-641 
-684 
-690 
-676 
-689 
-731 
-811 
-834 
-788 
-830 
-890 
-939 
-893 
-888 
-891 
-900 
-932 
-932 
-906 
-931 
-933 
-988 
-933 
-966 
-991 
-968 
-886 
-913 
-918 
-915 
-930 
-982 
-980 
-974 
-949 
-945 
-961 
-933 
-916 
-912 
-904 
-938 
-894 
-877 
-913 
-932 
-881 
-894 
-954 
-963 
-935 
-890 
-896 
-911 
-897 
-931 
-919 
-924 
-933 
-916 
-923 
-921 
-895 
-873 
-854 
-872 
-889 
-876 
-899 
-944 
-913 
-912 
-921 
-962 
-935 
-957 
-955 
-949 
-977 
-997 
-954 
-934 
-934 
-955 
-967 
-978 
-1057 
-1023 
-896 
-830 
-721 
-628 
-502 
-360 
-402 
-656 
-861 
-951 
-1166 
-1239 
-1189 
-1133 
-1059 
-1000 
-971 
-923 
-922 
-905 
-905 
-969 
-964 
-966 
-971 
-939 
-931 
-938 
-919 
-895 
-886 
-865 
-901 
-907 
-849 
-866 
-862 
-848 
-868 
-844 
-836 
-844 
-765 
-770 
-773 
-771 
-773 
-798 
-825 
-718 
-671 
-694 
-726 
-715 
-677 
-646 
-675 
-671 
-651 
-656 
-709 
-711 
-684 
-706 
-735 
-771 
-776 
-800 
-849 
-867 
-903 
-832 
-852 
-906 
-923 
-917 
-926 
-938 
-973 
-988 
-949 
-931 
-991 
-959 
-945 
-971 
-972 
-965 
-973 
-975 
-979 
-962 
-952 
-948 
-933 
-931 
-986 
-982 
-924 
-928 
-914 
-934 
-950 
-907 
-918 
-945 
-975 
-959 
-962 
-975 
-970 
-931 
-933 
-928 
-937 
-934 
-958 
-996 
-944 
-926 
-938 
-917 
-891 
-843 
-881 
-888 
-889 
-861 
-865 
-901 
-902 
-947 
-977 
-966 
-959 
-976 
-1005 
-942 
-917 
-951 
-936 
-950 
-942 
-928 
-916 
-869 
-913 
-997 
-1008 
-1018 
-985 
-904 
-808 
-714 
-528 
-368 
-385 
-553 
-741 
-881 
-1103 
-1198 
-1152 
-1090 
-1067 
-1029 
-945 
-919 
-910 
-942 
-969 
-971 
-960 
-932 
-939 
-884 
-903 
-920 
-904 
-845 
-844 
-903 
-920 
-927 
-872 
-827 
-840 
-900 
-871 
-830 
-874 
-862 
-901 
-837 
-810 
-828 
-808 
-771 
-811 
-780 
-768 
-733 
-708 
-704 
-699 
-672 
-679 
-687 
-697 
-696 
-745 
-789 
-760 
-764 
-773 
-804 
-836 
-855 
-872 
-892 
-863 
-879 
-948 
-984 
-930 
-906 
-965 
-1019 
-1017 
-1027 
-998 
-980 
-983 
-1001 
-1025 
-1020 
-1020 
-1010 
-1010 
-986 
-1016 
-983 
-960 
-958 
-974 
-1000 
-1017 
-973 
-928 
-961 
-984 
-932 
-946 
-1006 
-975 
-943 
-941 
-988 
-995 
-960 
-993 
-1021 
-1002 
-964 
-998 
-1003 
-994 
-968 
-949 
-969 
-997 
-1004 
-1030 
-1021 
-965 
-968 
-932 
-942 
-937 
-920 
-914 
-968 
-1039 
-1046 
-975 
-994 
-1028 
-992 
-953 
-1021 
-1097 
-1056 
-1044 
-1048 
-1032 
-1018 
-1004 
-1028 
-1054 
-1051 
-1048 
-1038 
-1045 
-1004 
-850 
-770 
-662 
-546 
-466 
-516 
-725 
-919 
-1164 
-1313 
-1288 
-1200 
-1117 
-1055 
-1023 
-1015 
-1024 
-1011 
-1009 
-1021 
-1030 
-1032 
-1012 
-1027 
-1021 
-993 
-985 
-1009 
-990 
-1002 
-1004 
-917 
-925 
-956 
-966 
-975 
-949 
-969 
-920 
-922 
-959 
-943 
-901 
-897 
-902 
-845 
-841 
-855 
-820 
-828 
-868 
-809 
-764 
-774 
-793 
-816 
-853 
-842 
-806 
-809 
-794 
-870 
-915 
-874 
-870 
-996 
-1026 
-999 
-997 
-1006 
-1072 
-1109 
-1062 
-1021 
-1086 
-1077 
-1066 
-1115 
-1121 
-1141 
-1112 
-1084 
-1119 
-1146 
-1149 
-1140 
-1137 
-1156 
-1142 
-1144 
-1099 
-1116 
-1130 
-1143 
-1134 
-1130 
-1125 
-1124 
-1128 
-1131 
-1142 
-1137 
-1107 
-1189 
-1175 
-1126 
-1144 
-1196 
-1176 
-1179 
-1173 
-1194 
-1158 
-1144 
-1154 
-1179 
-1186 
-1158 
-1157 
-1206 
-1228 
-1244 
-1184 
-1213 
-1233 
-1187 
-1186 
-1183 
-1212 
-1155 
-1124 
-1146 
-1170 
-1187 
-1227 
-1243 
-1284 
-1304 
-1302 
-1296 
-1276 
-1285 
-1254 
-1243 
-1286 
-1285 
-1292 
-1288 
-1315 
-1305 
-1284 
-1306 
-1378 
-1364 
-1341 
-1296 
-1185 
-1106 
-980 
-847 
-802 
-844 
-1078 
-1246 
-1443 
-1649 
-1628 
-1500 
-1421 
-1429 
-1434 
-1407 
-1393 
-1414 
-1390 
-1367 
-1356 
-1397 
-1441 
-1404 
-1382 
-1382 
-1402 
-1389 
-1362 
-1342 
-1347 
-1411 
-1385 
-1401 
-1464 
-1422 
-1331 
-1386 
-1395 
-1353 
-1355 
-1332 
-1338 
-1314 
-1316 
-1284 
-1273 
-1280 
-1247 
-1230 
-1262 
-1275 
-1226 
-1198 
-1214 
-1227 
-1274 
-1259 
-1265 
-1292 
-1294 
-1306 
-1346 
-1359 
-1351 
-1386 
-1403 
-1484 
-1489 
-1490 
-1498 
-1536 
-1562 
-1548 
-1567 
-1553 
-1534 
-1608 
-1635 
-1646 
-1646 
-1632 
-1601 
-1583 
-1578 
-1602 
-1628 
-1638 
-1612 
-1643 
-1670 
-1674 
-1685 
-1654 
-1614 
-1591 
-1654 
-1671 
-1651 
-1609 
-1632 
-1629 
-1627 
-1635 
-1639 
-1673 
-1657 
-1665 
-1668 
-1689 
-1712 
-1700 
-1675 
-1654 
-1668 
-1633 
-1653 
-1716 
-1714 
-1705 
-1682 
-1731 
-1742 
-1722 
-1692 
-1697 
-1731 
-1708 
-1707 
-1692 
-1692 
-1711 
-1696 
-1636 
-1651 
-1660 
-1663 
-1675 
-1689 
-1716 
-1757 
-1728 
-1728 
-1753 
-1772 
-1751 
-1707 
-1742 
-1751 
-1782 
-1778 
-1795 
-1767 
-1750 
-1745 
-1731 
-1740 
-1781 
-1779 
-1820 
-1833 
-1820 
-1774 
-1635 
-1488 
-1353 
-1179 
-1169 
-1325 
-1594 
-1768 
-2019 
-2077 
-1999 
-1870 
-1799 
-1773 
-1767 
-1787 
-1815 
-1817 
-1785 
-1729 
-1732 
-1787 
-1786 
-1745 
-1749 
-1762 
-1766 
-1762 
-1714 
-1706 
-1733 
-1730 
-1720 
-1708 
-1674 
-1643 
-1681 
-1716 
-1707 
-1664 
-1672 
-1663 
-1689 
-1637 
-1588 
-1574 
-1576 
-1588 
-1608 
-1569 
-1498 
-1475 
-1461 
-1449 
-1491 
-1506 
-1520 
-1494 
-1519 
-1500 
-1528 
-1522 
-1541 
-1587 
-1599 
-1574 
-1656 
-1683 
-1672 
-1697 
-1727 
-1736 
-1711 
-1722 
-1733 
-1755 
-1820 
-1804 
-1794 
-1760 
-1741 
-1702 
-1716 
-1739 
-1781 
-1800 
-1783 
-1778 
-1764 
-1751 
-1721 
-1738 
-1745 
-1765 
-1772 
-1757 
-1728 
-1749 
-1771 
-1766 
-1762 
-1768 
-1746 
-1780 
-1736 
-1690 
-1729 
-1724 
-1743 
-1750 
-1748 
-1760 
-1782 
-1779 
-1765 
-1776 
-1738 
-1762 
-1751 
-1724 
-1750 
-1743 
-1762 
-1782 
-1761 
-1772 
-1780 
-1775 
-1756 
-1767 
-1752 
-1766 
-1779 
-1759 
-1747 
-1752 
-1748 
-1756 
-1730 
-1732 
-1718 
-1694 
-1726 
-1723 
-1731 
-1730 
-1775 
-1812 
-1750 
-1741 
-1772 
-1803 
-1827 
-1807 
-1802 
-1788 
-1767 
-1756 
-1776 
-1795 
-1800 
-1771 
-1789 
-1805 
-1783 
-1786 
-1761 
-1633 
-1491 
-1329 
-1207 
-1198 
-1354 
-1603 
-1746 
-1953 
-2068 
-2004 
-1886 
-1815 
-1762 
-1787 
-1758 
-1737 
-1765 
-1804 
-1724 
-1713 
-1745 
-1741 
-1691 
-1669 
-1673 
-1685 
-1684 
-1652 
-1687 
-1680 
-1643 
-1633 
-1644 
-1629 
-1616 
-1639 
-1658 
-1636 
-1637 
-1618 
-1529 
-1537 
-1559 
-1566 
-1523 
-1488 
-1506 
-1496 
-1475 
-1440 
-1463 
-1446 
-1384 
-1430 
-1411 
-1373 
-1412 
-1412 
-1421 
-1487 
-1487 
-1468 
-1499 
-1515 
-1529 
-1553 
-1620 
-1641 
-1650 
-1641 
-1655 
-1676 
-1656 
-1655 
-1663 
-1710 
-1733 
-1717 
-1713 
-1729 
-1746 
-1710 
-1679 
-1716 
-1695 
-1663 
-1681 
-1710 
-1688 
-1658 
-1616 
-1671 
-1722 
-1696 
-1700 
-1688 
-1665 
-1656 
-1665 
-1678 
-1679 
-1678 
-1690 
-1647 
-1658 
-1666 
-1673 
-1672 
-1706 
-1712 
-1685 
-1666 
-1645 
-1642 
-1669 
-1678 
-1692 
-1665 
-1666 
-1647 
-1674 
-1698 
-1646 
-1642 
-1651 
-1656 
-1635 
-1664 
-1630 
-1616 
-1605 
-1620 
-1619 
-1617 
-1591 
-1567 
-1589 
-1616 
-1656 
-1649 
-1652 
-1702 
-1677 
-1632 
-1654 
-1680 
-1685 
-1720 
-1714 
-1699 
-1673 
-1669 
-1653 
-1651 
-1605 
-1633 
-1691 
-1695 
-1629 
-1522 
-1348 
-1216 
-1099 
-1037 
-1164 
-1452 
-1642 
-1868 
-1961 
-1921 
-1866 
-1794 
-1728 
-1627 
-1645 
-1652 
-1626 
-1599 
-1612 
-1604 
-1623 
-1597 
-1587 
-1606 
-1633 
-1594 
-1561 
-1565 
-1574 
-1527 
-1513 
-1557 
-1564 
-1521 
-1512 
-1514 
-1533 
-1517 
-1472 
-1468 
-1454 
-1447 
-1409 
-1442 
-1458 
-1401 
-1356 
-1395 
-1397 
-1359 
-1325 
-1328 
-1361 
-1319 
-1318 
-1311 
-1304 
-1366 
-1320 
-1330 
-1368 
-1395 
-1374 
-1375 
-1440 
-1467 
-1488 
-1459 
-1494 
-1582 
-1560 
-1586 
-1630 
-1666 
-1618 
-1574 
-1640 
-1681 
-1644 
-1624 
-1644 
-1671 
-1644 
-1599 
-1614 
-1599 
-1585 
-1581 
-1584 
-1589 
-1610 
-1606 
-1587 
-1615 
-1661 
-1596 
-1602 
-1659 
-1627 
-1585 
-1599 
-1609 
-1619 
-1599 
-1567 
-1557 
-1567 
-1585 
-1613 
-1592 
-1613 
-1635 
-1592 
-1611 
-1610 
-1621 
-1586 
-1552 
-1571 
-1616 
-1641 
-1582 
-1573 
-1620 
-1609 
-1593 
-1579 
-1577 
-1597 
-1545 
-1518 
-1532 
-1578 
-1552 
-1523 
-1548 
-1499 
-1554 
-1664 
-1654 
-1624 
-1627 
-1639 
-1620 
-1624 
-1600 
-1611 
-1620 
-1601 
-1630 
-1635 
-1608 
-1616 
-1650 
-1628 
-1629 
-1596 
-1466 
-1368 
-1282 
-1139 
-1079 
-1104 
-1248 
-1493 
-1690 
-1886 
-1892 
-1815 
-1713 
-1671 
-1642 
-1614 
-1591 
-1571 
-1574 
-1614 
-1595 
-1584 
-1574 
-1554 
-1559 
-1566 
-1548 
-1539 
-1562 
-1600 
-1579 
-1509 
-1517 
-1535 
-1513 
-1521 
-1530 
-1527 
-1527 
-1478 
-1462 
-1497 
-1467 
-1454 
-1455 
-1485 
-1444 
-1370 
-1335 
-1405 
-1413 
-1350 
-1281 
-1309 
-1333 
-1349 
-1290 
-1305 
-1327 
-1351 
-1343 
-1380 
-1390 
-1406 
-1464 
-1475 
-1483 
-1443 
-1486 
-1511 
-1540 
-1600 
-1575 
-1560 
-1619 
-1590 
-1539 
-1586 
-1649 
-1627 
-1605 
-1617 
-1609 
-1631 
-1629 
-1619 
-1617 
-1630 
-1631 
-1581 
-1618 
-1607 
-1570 
-1593 
-1589 
-1604 
-1593 
-1588 
-1562 
-1551 
-1553 
-1576 
-1606 
-1588 
-1575 
-1566 
-1548 
-1583 
-1573 
-1596 
-1594 
-1587 
-1579 
-1588 
-1517 
-1569 
-1573 
-1570 
-1583 
-1586 
-1592 
-1558 
-1544 
-1566 
-1573 
-1603 
-1561 
-1552 
-1577 
-1586 
-1538 
-1473 
-1519 
-1554 
-1549 
-1529 
-1562 
-1583 
-1570 
-1596 
-1588 
-1555 
-1585 
-1620 
-1543 
-1566 
-1606 
-1621 
-1596 
-1593 
-1580 
-1580 
-1542 
-1549 
-1595 
-1579 
-1529 
-1423 
-1343 
-1151 
-999 
-993 
-1089 
-1306 
-1510 
-1728 
-1805 
-1771 
-1684 
-1624 
-1630 
-1526 
-1490 
-1498 
-1548 
-1561 
-1524 
-1505 
-1512 
-1520 
-1518 
-1498 
-1489 
-1502 
-1502 
-1486 
-1505 
-1508 
-1506 
-1426 
-1421 
-1473 
-1487 
-1469 
-1403 
-1414 
-1425 
-1399 
-1411 
-1386 
-1389 
-1338 
-1303 
-1300 
-1319 
-1311 
-1302 
-1336 
-1299 
-1253 
-1243 
-1223 
-1259 
-1265 
-1230 
-1238 
-1289 
-1277 
-1290 
-1292 
-1332 
-1341 
-1334 
-1365 
-1395 
-1460 
-1511 
-1462 
-1455 
-1478 
-1521 
-1515 
-1488 
-1511 
-1513 
-1516 
-1524 
-1570 
-1575 
-1579 
-1544 
-1489 
-1481 
-1467 
-1506 
-1556 
-1527 
-1489 
-1487 
-1444 
-1479 
-1506 
-1517 
-1518 
-1505 
-1506 
-1502 
-1468 
-1480 
-1457 
-1398 
-1450 
-1511 
-1495 
-1469 
-1441 
-1448 
-1494 
-1501 
-1473 
-1489 
-1482 
-1475 
-1430 
-1435 
-1457 
-1449 
-1419 
-1436 
-1470 
-1453 
-1457 
-1438 
-1404 
-1368 
-1354 
-1408 
-1433 
-1410 
-1390 
-1396 
-1419 
-1452 
-1404 
-1416 
-1459 
-1501 
-1448 
-1440 
-1443 
-1438 
-1475 
-1461 
-1496 
-1498 
-1476 
-1456 
-1436 
-1451 
-1456 
-1495 
-1401 
-1310 
-1210 
-1014 
-884 
-874 
-1045 
-1259 
-1424 
-1677 
-1732 
-1634 
-1597 
-1527 
-1470 
-1447 
-1434 
-1477 
-1432 
-1443 
-1402 
-1417 
-1421 
-1410 
-1376 
-1362 
-1410 
-1420 
-1403 
-1400 
-1454 
-1425 
-1403 
-1366 
-1371 
-1366 
-1321 
-1317 
-1362 
-1360 
-1321 
-1306 
-1235 
-1283 
-1318 
-1289 
-1266 
-1241 
-1238 
-1228 
-1161 
-1198 
-1209 
-1143 
-1140 
-1147 
-1165 
-1116 
-1136 
-1142 
-1129 
-1166 
-1204 
-1226 
-1261 
-1272 
-1277 
-1314 
-1366 
-1375 
-1334 
-1359 
-1382 
-1393 
-1411 
-1473 
-1478 
-1454 
-1459 
-1431 
-1432 
-1503 
-1482 
-1429 
-1459 
-1467 
-1420 
-1407 
-1413 
-1440 
-1411 
-1413 
-1437 
-1386 
-1397 
-1418 
-1391 
-1371 
-1398 
-1394 
-1380 
-1427 
-1449 
-1450 
-1409 
-1367 
-1386 
-1355 
-1366 
-1372 
-1377 
-1429 
-1404 
-1423 
-1407 
-1376 
-1337 
-1353 
-1423 
-1432 
-1360 
-1299 
-1338 
-1332 
-1323 
-1335 
-1336 
-1325 
-1277 
-1283 
-1304 
-1347 
-1322 
-1318 
-1347 
-1394 
-1390 
-1386 
-1342 
-1343 
-1383 
-1364 
-1348 
-1368 
-1368 
-1351 
-1362 
-1401 
-1399 
-1352 
-1306 
-1331 
-1382 
-1426 
-1374 
-1265 
-1145 
-968 
-803 
-746 
-809 
-1059 
-1254 
-1435 
-1579 
-1565 
-1504 
-1442 
-1399 
-1364 
-1314 
-1315 
-1324 
-1312 
-1285 
-1281 
-1308 
-1328 
-1285 
-1296 
-1304 
-1263 
-1274 
-1263 
-1272 
-1271 
-1234 
-1238 
-1232 
-1264 
-1244 
-1220 
-1235 
-1255 
-1187 
-1142 
-1191 
-1216 
-1177 
-1154 
-1125 
-1132 
-1094 
-1088 
-1072 
-1053 
-1077 
-1070 
-1034 
-1043 
-1054 
-989 
-990 
-1034 
-1057 
-1078 
-1113 
-1134 
-1133 
-1152 
-1132 
-1153 
-1212 
-1257 
-1260 
-1278 
-1287 
-1313 
-1365 
-1367 
-1329 
-1365 
-1347 
-1354 
-1409 
-1385 
-1413 
-1385 
-1352 
-1379 
-1402 
-1327 
-1344 
-1385 
-1378 
-1372 
-1336 
-1328 
-1342 
-1407 
-1392 
-1382 
-1388 
-1368 
-1345 
-1386 
-1396 
-1357 
-1327 
-1363 
-1417 
-1421 
-1365 
-1376 
-1399 
-1380 
-1395 
-1402 
-1412 
-1442 
-1390 
-1356 
-1375 
-1425 
-1354 
-1349 
-1418 
-1431 
-1370 
-1404 
-1404 
-1396 
-1381 
-1343 
-1392 
-1426 
-1393 
-1397 
-1443 
-1467 
-1492 
-1468 
-1463 
-1466 
-1464 
-1518 
-1505 
-1514 
-1521 
-1530 
-1502 
-1492 
-1539 
-1532 
-1525 
-1516 
-1547 
-1538 
-1459 
-1333 
-1193 
-1068 
-944 
-949 
-1134 
-1399 
-1596 
-1808 
-1836 
-1786 
-1724 
-1650 
-1645 
-1584 
-1537 
-1501 
-1531 
-1572 
-1579 
-1565 
-1585 
-1598 
-1539 
-1513 
-1544 
-1536 
-1515 
-1507 
-1548 
-1536 
-1565 
-1538 
-1485 
-1510 
-1534 
-1485 
-1520 
-1529 
-1494 
-1483 
-1441 
-1432 
-1442 
-1429 
-1422 
-1399 
-1413 
-1405 
-1377 
-1321 
-1349 
-1340 
-1304 
-1315 
-1381 
-1347 
-1321 
-1370 
-1375 
-1374 
-1388 
-1395 
-1438 
-1446 
-1478 
-1496 
-1566 
-1567 
-1550 
-1588 
-1664 
-1658 
-1621 
-1650 
-1663 
-1680 
-1697 
-1635 
-1701 
-1693 
-1664 
-1630 
-1678 
-1685 
-1686 
-1663 
-1648 
-1685 
-1701 
-1720 
-1652 
-1637 
-1676 
-1693 
-1642 
-1622 
-1620 
-1610 
-1626 
-1661 
-1656 
-1637 
-1601 
-1629 
-1663 
-1642 
-1628 
-1599 
-1633 
-1662 
-1629 
-1617 
-1604 
-1591 
-1570 
-1540 
-1566 
-1586 
-1590 
-1583 
-1569 
-1572 
-1564 
-1555 
-1569 
-1575 
-1550 
-1547 
-1558 
-1577 
-1580 
-1563 
-1590 
-1609 
-1630 
-1615 
-1597 
-1587 
-1617 
-1575 
-1580 
-1637 
-1675 
-1622 
-1596 
-1587 
-1606 
-1618 
-1603 
-1631 
-1554 
-1397 
-1257 
-1131 
-1025 
-994 
-1152 
-1436 
-1540 
-1800 
-1878 
-1789 
-1711 
-1649 
-1562 
-1511 
-1501 
-1480 
-1510 
-1513 
-1517 
-1533 
-1487 
-1462 
-1467 
-1480 
-1488 
-1500 
-1490 
-1448 
-1418 
-1419 
-1412 
-1392 
-1400 
-1421 
-1392 
-1370 
-1413 
-1375 
-1365 
-1361 
-1310 
-1262 
-1254 
-1297 
-1326 
-1273 
-1247 
-1252 
-1244 
-1195 
-1174 
-1190 
-1158 
-1172 
-1162 
-1179 
-1189 
-1199 
-1203 
-1250 
-1263 
-1206 
-1281 
-1301 
-1315 
-1325 
-1298 
-1346 
-1438 
-1470 
-1437 
-1436 
-1431 
-1416 
-1446 
-1431 
-1440 
-1483 
-1450 
-1424 
-1428 
-1463 
-1467 
-1416 
-1456 
-1462 
-1410 
-1409 
-1415 
-1428 
-1423 
-1398 
-1382 
-1399 
-1407 
-1386 
-1398 
-1353 
-1394 
-1380 
-1374 
-1392 
-1346 
-1374 
-1388 
-1334 
-1352 
-1412 
-1390 
-1339 
-1314 
-1259 
-1328 
-1354 
-1365 
-1408 
-1382 
-1349 
-1335 
-1358 
-1380 
-1348 
-1322 
-1363 
-1374 
-1331 
-1293 
-1300 
-1310 
-1310 
-1311 
-1311 
-1311 
-1357 
-1394 
-1366 
-1372 
-1364 
-1346 
-1354 
-1387 
-1375 
-1381 
-1413 
-1405 
-1409 
-1398 
-1400 
-1368 
-1345 
-1359 
-1383 
-1399 
-1339 
-1195 
-1032 
-944 
-841 
-839 
-1009 
-1212 
-1404 
-1594 
-1591 
-1529 
-1469 
-1428 
-1371 
-1356 
-1347 
-1306 
-1342 
-1363 
-1349 
-1367 
-1361 
-1358 
-1360 
-1343 
-1289 
-1277 
-1312 
-1329 
-1289 
-1299 
-1279 
-1258 
-1272 
-1261 
-1272 
-1263 
-1233 
-1237 
-1231 
-1247 
-1234 
-1171 
-1184 
-1190 
-1173 
-1148 
-1146 
-1131 
-1101 
-1066 
-1046 
-1038 
-1008 
-1058 
-1043 
-1053 
-1051 
-1008 
-1026 
-1122 
-1138 
-1132 
-1139 
-1163 
-1284 
-1303 
-1244 
-1234 
-1257 
-1269 
-1278 
-1289 
-1283 
-1295 
-1288 
-1304 
-1327 
-1352 
-1358 
-1327 
-1326 
-1298 
-1349 
-1324 
-1309 
-1282 
-1304 
-1287 
-1313 
-1355 
-1305 
-1264 
-1289 
-1282 
-1273 
-1303 
-1276 
-1203 
-1235 
-1290 
-1285 
-1247 
-1268 
-1284 
-1288 
-1287 
-1262 
-1235 
-1271 
-1290 
-1331 
-1305 
-1268 
-1257 
-1260 
-1260 
-1266 
-1278 
-1364 
-1362 
-1331 
-1254 
-1279 
-1274 
-1251 
-1262 
-1248 
-1281 
-1295 
-1283 
-1280 
-1254 
-1238 
-1204 
-1235 
-1298 
-1300 
-1289 
-1282 
-1317 
-1314 
-1281 
-1293 
-1317 
-1312 
-1290 
-1258 
-1288 
-1331 
-1338 
-1298 
-1300 
-1271 
-1295 
-1300 
-1311 
-1287 
-1141 
-1006 
-835 
-725 
-690 
-817 
-1054 
-1236 
-1465 
-1560 
-1514 
-1413 
-1363 
-1308 
-1261 
-1250 
-1258 
-1291 
-1275 
-1273 
-1291 
-1265 
-1189 
-1210 
-1262 
-1269 
-1214 
-1216 
-1272 
-1246 
-1182 
-1146 
-1147 
-1190 
-1215 
-1223 
-1219 
-1154 
-1128 
-1102 
-1127 
-1130 
-1141 
-1110 
-1106 
-1124 
-1067 
-1004 
-1056 
-1027 
-985 
-978 
-1007 
-993 
-970 
-988 
-981 
-981 
-990 
-973 
-975 
-999 
-1056 
-1068 
-1133 
-1163 
-1136 
-1149 
-1178 
-1182 
-1197 
-1252 
-1257 
-1226 
-1235 
-1253 
-1292 
-1277 
-1258 
-1257 
-1262 
-1245 
-1244 
-1268 
-1249 
-1278 
-1258 
-1268 
-1259 
-1270 
-1281 
-1276 
-1261 
-1250 
-1286 
-1267 
-1235 
-1226 
-1259 
-1261 
-1226 
-1229 
-1242 
-1262 
-1216 
-1183 
-1192 
-1223 
-1277 
-1258 
-1215 
-1192 
-1201 
-1246 
-1221 
-1242 
-1290 
-1247 
-1251 
-1305 
-1242 
-1216 
-1223 
-1257 
-1277 
-1309 
-1298 
-1249 
-1227 
-1255 
-1249 
-1215 
-1207 
-1199 
-1214 
-1214 
-1193 
-1233 
-1210 
-1162 
-1243 
-1317 
-1305 
-1263 
-1249 
-1254 
-1260 
-1294 
-1339 
-1374 
-1311 
-1287 
-1274 
-1295 
-1316 
-1285 
-1314 
-1364 
-1312 
-1317 
-1332 
-1278 
-1169 
-1029 
-810 
-716 
-702 
-835 
-1098 
-1304 
-1531 
-1609 
-1560 
-1470 
-1356 
-1314 
-1274 
-1258 
-1295 
-1295 
-1259 
-1273 
-1278 
-1254 
-1234 
-1244 
-1277 
-1311 
-1292 
-1272 
-1254 
-1244 
-1250 
-1227 
-1230 
-1213 
-1231 
-1237 
-1181 
-1199 
-1215 
-1191 
-1194 
-1262 
-1207 
-1145 
-1133 
-1142 
-1142 
-1101 
-1082 
-1118 
-1096 
-1073 
-1015 
-1023 
-1048 
-1078 
-1055 
-1051 
-1085 
-1078 
-1061 
-1091 
-1153 
-1193 
-1252 
-1293 
-1274 
-1283 
-1282 
-1283 
-1352 
-1390 
-1372 
-1350 
-1381 
-1413 
-1410 
-1396 
-1415 
-1411 
-1415 
-1401 
-1447 
-1459 
-1418 
-1412 
-1447 
-1447 
-1444 
-1438 
-1479 
-1488 
-1490 
-1440 
-1464 
-1517 
-1501 
-1458 
-1463 
-1503 
-1496 
-1486 
-1481 
-1475 
-1470 
-1469 
-1495 
-1467 
-1504 
-1505 
-1525 
-1544 
-1514 
-1516 
-1516 
-1547 
-1559 
-1557 
-1543 
-1512 
-1534 
-1584 
-1579 
-1590 
-1616 
-1586 
-1543 
-1557 
-1601 
-1557 
-1531 
-1523 
-1572 
-1561 
-1514 
-1532 
-1598 
-1665 
-1645 
-1597 
-1638 
-1730 
-1705 
-1691 
-1686 
-1667 
-1688 
-1661 
-1681 
-1678 
-1683 
-1698 
-1691 
-1705 
-1705 
-1682 
-1720 
-1700 
-1612 
-1482 
-1259 
-1111 
-1069 
-1205 
-1436 
-1689 
-1856 
-1980 
-1982 
-1950 
-1877 
-1787 
-1765 
-1707 
-1710 
-1695 
-1683 
-1704 
-1726 
-1735 
-1723 
-1710 
-1704 
-1696 
-1722 
-1721 
-1667 
-1639 
-1636 
-1711 
-1700 
-1677 
-1652 
-1633 
-1673 
-1689 
-1659 
-1650 
-1669 
-1658 
-1655 
-1588 
-1542 
-1613 
-1607 
-1588 
-1522 
-1503 
-1501 
-1492 
-1439 
-1474 
-1482 
-1500 
-1476 
-1495 
-1503 
-1496 
-1485 
-1493 
-1510 
-1550 
-1608 
-1698 
-1683 
-1656 
-1690 
-1713 
-1732 
-1748 
-1763 
-1788 
-1794 
-1776 
-1790 
-1782 
-1786 
-1832 
-1854 
-1873 
-1839 
-1815 
-1831 
-1806 
-1793 
-1861 
-1854 
-1834 
-1853 
-1869 
-1887 
-1827 
-1785 
-1790 
-1828 
-1890 
-1862 
-1833 
-1818 
-1828 
-1812 
-1797 
-1807 
-1812 
-1782 
-1756 
-1762 
-1830 
-1821 
-1809 
-1867 
-1883 
-1875 
-1843 
-1866 
-1922 
-1876 
-1864 
-1878 
-1884 
-1906 
-1870 
-1872 
-1913 
-1861 
-1828 
-1835 
-1822 
-1856 
-1852 
-1869 
-1913 
-1862 
-1844 
-1927 
-1919 
-1943 
-1951 
-1937 
-1948 
-1967 
-1936 
-1905 
-1861 
-1891 
-1925 
-1917 
-1945 
-1952 
-1934 
-1907 
-1884 
-1911 
-1959 
-1933 
-1832 
-1719 
-1609 
-1462 
-1343 
-1338 
-1472 
-1743 
-1944 
-2117 
-2189 
-2176 
-2090 
-2008 
-1977 
-1919 
-1865 
-1839 
-1863 
-1909 
-1878 
-1882 
-1893 
-1891 
-1826 
-1817 
-1831 
-1836 
-1771 
-1777 
-1847 
-1865 
-1854 
-1844 
-1852 
-1826 
-1778 
-1762 
-1781 
-1811 
-1794 
-1764 
-1740 
-1726 
-1711 
-1696 
-1692 
-1660 
-1641 
-1635 
-1631 
-1623 
-1589 
-1555 
-1563 
-1564 
-1534 
-1572 
-1593 
-1638 
-1637 
-1631 
-1652 
-1672 
-1661 
-1759 
-1757 
-1765 
-1823 
-1805 
-1811 
-1832 
-1820 
-1851 
-1887 
-1879 
-1859 
-1810 
-1811 
-1854 
-1905 
-1860 
-1873 
-1946 
-1968 
-1946 
-1892 
-1865 
-1879 
-1866 
-1868 
-1884 
-1897 
-1890 
-1861 
-1877 
-1895 
-1888 
-1859 
-1853 
-1857 
-1865 
-1882 
-1857 
-1837 
-1813 
-1799 
-1812 
-1817 
-1839 
-1857 
-1892 
-1857 
-1822 
-1871 
-1887 
-1845 
-1807 
-1880 
-1888 
-1855 
-1844 
-1853 
-1839 
-1791 
-1818 
-1841 
-1860 
-1860 
-1823 
-1850 
-1824 
-1771 
-1768 
-1814 
-1813 
-1792 
-1783 
-1817 
-1844 
-1846 
-1856 
-1815 
-1848 
-1858 
-1865 
-1862 
-1834 
-1842 
-1832 
-1876 
-1845 
-1830 
-1854 
-1831 
-1825 
-1860 
-1873 
-1870 
-1845 
-1697 
-1565 
-1407 
-1272 
-1253 
-1319 
-1520 
-1675 
-1880 
-2039 
-2038 
-1945 
-1880 
-1836 
-1804 
-1756 
-1759 
-1807 
-1842 
-1801 
-1754 
-1750 
-1771 
-1795 
-1779 
-1762 
-1725 
-1720 
-1710 
-1733 
-1756 
-1684 
-1685 
-1711 
-1730 
-1705 
-1677 
-1726 
-1741 
-1671 
-1643 
-1640 
-1633 
-1644 
-1614 
-1597 
-1592 
-1581 
-1532 
-1500 
-1515 
-1540 
-1517 
-1484 
-1482 
-1467 
-1433 
-1489 
-1516 
-1563 
-1568 
-1602 
-1650 
-1685 
-1588 
-1583 
-1640 
-1656 
-1671 
-1692 
-1733 
-1755 
-1741 
-1731 
-1768 
-1808 
-1824 
-1832 
-1794 
-1797 
-1794 
-1803 
-1748 
-1793 
-1833 
-1795 
-1774 
-1794 
-1784 
-1795 
-1800 
-1791 
-1820 
-1776 
-1744 
-1783 
-1805 
-1775 
-1711 
-1761 
-1771 
-1768 
-1738 
-1735 
-1644 
-1662 
-1743 
-1749 
-1741 
-1729 
-1719 
-1728 
-1745 
-1772 
-1784 
-1772 
-1740 
-1722 
-1737 
-1733 
-1705 
-1777 
-1768 
-1755 
-1787 
-1791 
-1751 
-1694 
-1695 
-1717 
-1713 
-1718 
-1706 
-1719 
-1748 
-1707 
-1696 
-1720 
-1756 
-1778 
-1804 
-1799 
-1790 
-1812 
-1758 
-1751 
-1788 
-1768 
-1776 
-1777 
-1778 
-1787 
-1780 
-1762 
-1751 
-1769 
-1808 
-1836 
-1823 
-1778 
-1635 
-1525 
-1431 
-1295 
-1226 
-1300 
-1524 
-1664 
-1827 
-1960 
-1976 
-1887 
-1827 
-1803 
-1739 
-1767 
-1782 
-1734 
-1770 
-1748 
-1762 
-1724 
-1698 
-1738 
-1744 
-1692 
-1670 
-1708 
-1725 
-1680 
-1663 
-1678 
-1670 
-1664 
-1636 
-1596 
-1643 
-1618 
-1570 
-1633 
-1652 
-1620 
-1605 
-1571 
-1557 
-1535 
-1508 
-1491 
-1506 
-1494 
-1458 
-1444 
-1405 
-1417 
-1391 
-1337 
-1393 
-1411 
-1408 
-1462 
-1535 
-1522 
-1498 
-1482 
-1503 
-1531 
-1545 
-1572 
-1526 
-1520 
-1604 
-1616 
-1604 
-1635 
-1656 
-1651 
-1660 
-1676 
-1676 
-1688 
-1685 
-1669 
-1677 
-1655 
-1653 
-1668 
-1612 
-1638 
-1651 
-1610 
-1618 
-1657 
-1649 
-1651 
-1621 
-1562 
-1564 
-1593 
-1651 
-1650 
-1636 
-1584 
-1599 
-1605 
-1605 
-1545 
-1585 
-1589 
-1577 
-1542 
-1576 
-1578 
-1634 
-1582 
-1585 
-1557 
-1546 
-1542 
-1564 
-1580 
-1593 
-1620 
-1581 
-1536 
-1542 
-1545 
-1552 
-1541 
-1547 
-1544 
-1476 
-1471 
-1471 
-1465 
-1461 
-1494 
-1498 
-1517 
-1525 
-1540 
-1559 
-1558 
-1543 
-1616 
-1634 
-1594 
-1541 
-1582 
-1609 
-1588 
-1570 
-1519 
-1505 
-1500 
-1553 
-1514 
-1522 
-1508 
-1515 
-1486 
-1534 
-1553 
-1500 
-1341 
-1229 
-1097 
-938 
-836 
-978 
-1223 
-1350 
-1559 
-1742 
-1713 
-1585 
-1477 
-1450 
-1401 
-1351 
-1355 
-1369 
-1365 
-1354 
-1364 
-1325 
-1335 
-1378 
-1339 
-1302 
-1312 
-1311 
-1306 
-1274 
-1286 
-1280 
-1289 
-1291 
-1233 
-1243 
-1267 
-1250 
-1180 
-1161 
-1207 
-1221 
-1202 
-1185 
-1158 
-1135 
-1123 
-1083 
-1086 
-1089 
-1028 
-1015 
-993 
-927 
-1015 
-1016 
-1000 
-974 
-1005 
-967 
-1009 
-1003 
-1004 
-1024 
-1085 
-1098 
-1109 
-1075 
-1127 
-1138 
-1140 
-1172 
-1177 
-1160 
-1181 
-1212 
-1214 
-1201 
-1173 
-1162 
-1178 
-1162 
-1158 
-1180 
-1169 
-1180 
-1198 
-1195 
-1199 
-1195 
-1161 
-1144 
-1140 
-1151 
-1137 
-1120 
-1110 
-1135 
-1128 
-1119 
-1103 
-1105 
-1084 
-1105 
-1077 
-1045 
-1053 
-1097 
-1080 
-1058 
-1082 
-1103 
-1090 
-1073 
-1064 
-1084 
-1056 
-1060 
-1087 
-1096 
-1063 
-997 
-1050 
-1049 
-1036 
-994 
-984 
-1055 
-1057 
-1016 
-1007 
-1015 
-984 
-973 
-994 
-1020 
-982 
-918 
-913 
-910 
-985 
-974 
-927 
-967 
-987 
-982 
-971 
-995 
-1020 
-1026 
-1028 
-1001 
-966 
-964 
-998 
-988 
-977 
-1032 
-993 
-999 
-1009 
-1002 
-1033 
-1026 
-1030 
-996 
-917 
-771 
-640 
-501 
-400 
-403 
-575 
-811 
-1033 
-1241 
-1225 
-1194 
-1103 
-1013 
-1009 
-1024 
-966 
-921 
-919 
-940 
-956 
-970 
-888 
-859 
-926 
-928 
-933 
-942 
-891 
-893 
-856 
-853 
-858 
-910 
-837 
-807 
-870 
-884 
-854 
-821 
-796 
-780 
-766 
-779 
-738 
-737 
-735 
-691 
-663 
-685 
-687 
-675 
-663 
-656 
-660 
-641 
-659 
-698 
-687 
-674 
-650 
-619 
-690 
-727 
-737 
-755 
-778 
-787 
-790 
-817 
-871 
-879 
-900 
-879 
-869 
-918 
-888 
-872 
-932 
-946 
-934 
-895 
-910 
-951 
-930 
-881 
-887 
-906 
-936 
-923 
-898 
-883 
-878 
-895 
-912 
-914 
-885 
-865 
-885 
-880 
-864 
-860 
-839 
-863 
-900 
-783 
-790 
-874 
-862 
-868 
-885 
-891 
-884 
-874 
-860 
-878 
-906 
-916 
-876 
-889 
-887 
-915 
-857 
-878 
-927 
-922 
-856 
-816 
-845 
-859 
-899 
-867 
-863 
-858 
-851 
-801 
-821 
-827 
-845 
-839 
-852 
-895 
-868 
-898 
-874 
-856 
-878 
-904 
-916 
-948 
-978 
-938 
-910 
-919 
-927 
-903 
-882 
-883 
-911 
-980 
-946 
-934 
-953 
-850 
-817 
-794 
-642 
-487 
-339 
-324 
-489 
-727 
-904 
-1130 
-1269 
-1196 
-1056 
-969 
-981 
-978 
-936 
-886 
-890 
-925 
-884 
-835 
-860 
-870 
-874 
-845 
-871 
-919 
-867 
-850 
-849 
-850 
-892 
-790 
-756 
-809 
-849 
-853 
-806 
-777 
-780 
-833 
-800 
-742 
-763 
-766 
-712 
-722 
-706 
-684 
-645 
-651 
-660 
-621 
-614 
-610 
-598 
-589 
-576 
-619 
-660 
-736 
-727 
-725 
-731 
-780 
-800 
-801 
-786 
-819 
-874 
-905 
-951 
-931 
-897 
-929 
-906 
-988 
-994 
-988 
-1001 
-972 
-979 
-1004 
-992 
-1021 
-1004 
-1001 
-973 
-1005 
-988 
-940 
-967 
-967 
-969 
-986 
-969 
-970 
-964 
-971 
-961 
-987 
-1014 
-933 
-893 
-900 
-926 
-971 
-1011 
-1039 
-993 
-973 
-922 
-928 
-1019 
-1034 
-988 
-956 
-956 
-999 
-1019 
-1010 
-997 
-991 
-1002 
-1012 
-995 
-1019 
-977 
-944 
-970 
-990 
-999 
-977 
-966 
-970 
-954 
-964 
-927 
-935 
-1001 
-972 
-925 
-941 
-970 
-1021 
-1021 
-1012 
-1033 
-1020 
-1021 
-1062 
-1074 
-1062 
-1016 
-1026 
-1014 
-1025 
-1022 
-1039 
-1089 
-1078 
-1044 
-1009 
-1059 
-1015 
-1010 
-921 
-739 
-542 
-435 
-463 
-691 
-883 
-1019 
-1271 
-1337 
-1300 
-1209 
-1077 
-1041 
-1052 
-1027 
-978 
-990 
-1067 
-1053 
-1000 
-1018 
-1050 
-1036 
-959 
-960 
-958 
-965 
-999 
-1001 
-1018 
-1039 
-953 
-907 
-938 
-976 
-929 
-899 
-907 
-946 
-943 
-929 
-890 
-827 
-874 
-888 
-835 
-830 
-837 
-803 
-783 
-770 
-774 
-755 
-742 
-741 
-795 
-766 
-733 
-802 
-872 
-811 
-828 
-836 
-875 
-885 
-920 
-947 
-1010 
-1008 
-983 
-986 
-1031 
-1065 
-1055 
-1041 
-1083 
-1073 
-1064 
-1016 
-1019 
-1070 
-1008 
-1023 
-1019 
-1044 
-1037 
-1013 
-1064 
-1069 
-1051 
-998 
-1033 
-1038 
-1026 
-1028 
-1021 
-1029 
-1071 
-1041 
-1002 
-1024 
-1023 
-964 
-936 
-976 
-1030 
-1048 
-1019 
-1044 
-1007 
-1021 
-1004 
-1031 
-1080 
-1111 
-1046 
-1024 
-1061 
-1055 
-1009 
-1008 
-1069 
-1053 
-1044 
-1051 
-1014 
-1050 
-1030 
-1003 
-1068 
-1034 
-986 
-1020 
-1012 
-1000 
-974 
-951 
-987 
-1020 
-1040 
-997 
-959 
-978 
-992 
-1018 
-1041 
-1067 
-1042 
-1046 
-1052 
-1070 
-1043 
-1012 
-1031 
-1064 
-1100 
-1127 
-1062 
-1062 
-1076 
-1057 
-1058 
-1057 
-1110 
-1144 
-1102 
-1035 
-938 
-800 
-633 
-525 
-466 
-649 
-869 
-1032 
-1290 
-1374 
-1296 
-1183 
-1161 
-1119 
-1085 
-1060 
-1063 
-1076 
-1084 
-1071 
-1066 
-1045 
-1062 
-1057 
-1036 
-1072 
-1049 
-1035 
-1020 
-1024 
-1008 
-1021 
-1025 
-1038 
-1041 
-1029 
-992 
-1011 
-1031 
-945 
-917 
-940 
-962 
-939 
-908 
-884 
-892 
-914 
-888 
-852 
-845 
-891 
-862 
-795 
-828 
-818 
-844 
-903 
-870 
-813 
-823 
-864 
-890 
-940 
-970 
-927 
-928 
-996 
-1024 
-1049 
-993 
-1027 
-1073 
-1071 
-1029 
-1064 
-1096 
-1071 
-1081 
-1073 
-1100 
-1141 
-1097 
-1088 
-1122 
-1137 
-1057 
-1043 
-1080 
-1085 
-1095 
-1116 
-1063 
-1068 
-1048 
-1051 
-1109 
-1095 
-1059 
-1096 
-1085 
-1030 
-1055 
-1050 
-1051 
-1069 
-1103 
-1090 
-1047 
-1039 
-1057 
-1060 
-1043 
-1054 
-1073 
-1073 
-1053 
-1116 
-1162 
-1096 
-1055 
-1039 
-1067 
-1109 
-1123 
-1116 
-1085 
-1050 
-1082 
-1060 
-1074 
-1076 
-1061 
-1059 
-1069 
-1083 
-1061 
-1046 
-1060 
-1031 
-999 
-996 
-1013 
-1043 
-1017 
-1030 
-1081 
-1054 
-1050 
-1067 
-1117 
-1097 
-1103 
-1133 
-1123 
-1127 
-1086 
-1095 
-1108 
-1117 
-1101 
-1095 
-1154 
-1140 
-1170 
-1126 
-1071 
-1101 
-1088 
-932 
-851 
-716 
-602 
-500 
-635 
-866 
-1025 
-1260 
-1398 
-1316 
-1253 
-1220 
-1135 
-1099 
-1097 
-1118 
-1101 
-1060 
-1090 
-1105 
-1084 
-1080 
-1076 
-1059 
-1020 
-1052 
-1042 
-1031 
-1037 
-1023 
-1043 
-1024 
-992 
-1032 
-1033 
-1047 
-1046 
-971 
-961 
-974 
-1029 
-1027 
-959 
-936 
-938 
-892 
-874 
-915 
-926 
-885 
-839 
-815 
-780 
-785 
-800 
-925 
-926 
-851 
-790 
-821 
-944 
-968 
-922 
-972 
-964 
-963 
-1009 
-1026 
-1064 
-1067 
-1038 
-1055 
-1055 
-1127 
-1136 
-1077 
-1076 
-1119 
-1139 
-1150 
-1135 
-1138 
-1154 
-1090 
-1103 
-1158 
-1191 
-1158 
-1172 
-1169 
-1135 
-1082 
-1077 
-1074 
-1102 
-1153 
-1144 
-1157 
-1129 
-1100 
-1095 
-1102 
-1064 
-1104 
-1111 
-1160 
-1150 
-1146 
-1118 
-1132 
-1145 
-1120 
-1072 
-1124 
-1181 
-1158 
-1149 
-1139 
-1140 
-1160 
-1140 
-1135 
-1164 
-1197 
-1172 
-1172 
-1174 
-1155 
-1155 
-1171 
-1172 
-1116 
-1138 
-1133 
-1141 
-1155 
-1185 
-1134 
-1122 
-1139 
-1128 
-1075 
-1061 
-1168 
-1180 
-1139 
-1128 
-1136 
-1160 
-1139 
-1186 
-1227 
-1197 
-1188 
-1188 
-1180 
-1186 
-1195 
-1234 
-1219 
-1216 
-1238 
-1218 
-1173 
-1188 
-1190 
-1209 
-1266 
-1258 
-1211 
-1095 
-913 
-820 
-698 
-630 
-732 
-976 
-1154 
-1362 
-1528 
-1476 
-1363 
-1309 
-1215 
-1188 
-1178 
-1197 
-1191 
-1211 
-1183 
-1160 
-1154 
-1134 
-1148 
-1144 
-1156 
-1170 
-1149 
-1186 
-1180 
-1098 
-1067 
-1090 
-1099 
-1106 
-1066 
-1057 
-1086 
-1111 
-1067 
-1066 
-1066 
-1068 
-1063 
-1018 
-968 
-972 
-970 
-984 
-992 
-937 
-930 
-947 
-894 
-890 
-916 
-887 
-906 
-957 
-993 
-980 
-989 
-1024 
-1010 
-1007 
-1029 
-1066 
-1066 
-1104 
-1133 
-1116 
-1119 
-1158 
-1203 
-1261 
-1242 
-1221 
-1199 
-1200 
-1200 
-1181 
-1232 
-1234 
-1248 
-1195 
-1229 
-1263 
-1175 
-1157 
-1172 
-1207 
-1206 
-1186 
-1164 
-1181 
-1224 
-1215 
-1203 
-1209 
-1209 
-1209 
-1133 
-1124 
-1176 
-1214 
-1216 
-1173 
-1185 
-1180 
-1158 
-1187 
-1246 
-1239 
-1208 
-1209 
-1212 
-1224 
-1247 
-1228 
-1275 
-1217 
-1206 
-1235 
-1261 
-1240 
-1224 
-1186 
-1217 
-1234 
-1251 
-1229 
-1228 
-1285 
-1239 
-1232 
-1248 
-1210 
-1181 
-1188 
-1174 
-1176 
-1194 
-1199 
-1244 
-1263 
-1252 
-1253 
-1272 
-1325 
-1327 
-1305 
-1284 
-1295 
-1295 
-1338 
-1319 
-1341 
-1367 
-1375 
-1347 
-1324 
-1383 
-1365 
-1374 
-1351 
-1360 
-1386 
-1275 
-1135 
-991 
-835 
-780 
-869 
-1136 
-1371 
-1552 
-1701 
-1716 
-1677 
-1600 
-1476 
-1420 
-1409 
-1425 
-1457 
-1489 
-1422 
-1386 
-1432 
-1398 
-1463 
-1501 
-1492 
-1431 
-1397 
-1432 
-1436 
-1425 
-1454 
-1438 
-1435 
-1467 
-1422 
-1383 
-1424 
-1422 
-1418 
-1431 
-1425 
-1458 
-1436 
-1417 
-1425 
-1395 
-1418 
-1390 
-1370 
-1362 
-1362 
-1369 
-1323 
-1344 
-1332 
-1343 
-1348 
-1374 
-1434 
-1466 
-1494 
-1523 
-1516 
-1540 
-1582 
-1666 
-1675 
-1643 
-1685 
-1719 
-1744 
-1764 
-1793 
-1813 
-1828 
-1841 
-1824 
-1858 
-1878 
-1863 
-1852 
-1899 
-1908 
-1913 
-1936 
-1903 
-1935 
-1938 
-1972 
-1977 
-1929 
-1944 
-1996 
-2016 
-2010 
-2003 
-2017 
-2000 
-2010 
-1986 
-2007 
-2011 
-1980 
-2023 
-2034 
-2071 
-2074 
-2068 
-2055 
-2111 
-2135 
-2154 
-2146 
-2108 
-2112 
-2125 
-2179 
-2198 
-2216 
-2257 
-2219 
-2184 
-2174 
-2240 
-2233 
-2226 
-2262 
-2258 
-2236 
-2253 
-2280 
-2258 
-2257 
-2245 
-2221 
-2266 
-2254 
-2265 
-2273 
-2311 
-2336 
-2326 
-2324 
-2391 
-2418 
-2459 
-2445 
-2400 
-2426 
-2434 
-2450 
-2464 
-2460 
-2494 
-2453 
-2463 
-2523 
-2518 
-2489 
-2520 
-2541 
-2537 
-2454 
-2344 
-2245 
-2071 
-1908 
-1926 
-2115 
-2404 
-2550 
-2779 
-2875 
-2808 
-2770 
-2714 
-2649 
-2585 
-2567 
-2555 
-2638 
-2711 
-2719 
-2673 
-2655 
-2704 
-2711 
-2643 
-2672 
-2736 
-2675 
-2611 
-2637 
-2664 
-2668 
-2633 
-2655 
-2652 
-2626 
-2677 
-2576 
-2563 
-2601 
-2614 
-2569 
-2555 
-2569 
-2554 
-2521 
-2521 
-2526 
-2524 
-2498 
-2459 
-2469 
-2454 
-2413 
-2379 
-2448 
-2422 
-2448 
-2445 
-2468 
-2494 
-2488 
-2500 
-2527 
-2554 
-2559 
-2538 
-2566 
-2591 
-2577 
-2563 
-2607 
-2684 
-2686 
-2688 
-2661 
-2640 
-2685 
-2688 
-2671 
-2709 
-2670 
-2630 
-2632 
-2620 
-2640 
-2637 
-2578 
-2541 
-2577 
-2565 
-2511 
-2506 
-2539 
-2473 
-2482 
-2563 
-2545 
-2489 
-2492 
-2501 
-2509 
-2494 
-2486 
-2440 
-2426 
-2474 
-2427 
-2344 
-2362 
-2382 
-2368 
-2412 
-2415 
-2346 
-2341 
-2346 
-2404 
-2393 
-2380 
-2358 
-2342 
-2328 
-2282 
-2289 
-2297 
-2276 
-2315 
-2310 
-2312 
-2272 
-2236 
-2228 
-2222 
-2175 
-2192 
-2226 
-2230 
-2205 
-2179 
-2140 
-2169 
-2207 
-2245 
-2271 
-2244 
-2215 
-2226 
-2250 
-2217 
-2228 
-2214 
-2181 
-2212 
-2172 
-2134 
-2196 
-2193 
-2163 
-2173 
-2161 
-2148 
-2082 
-2016 
-1924 
-1756 
-1621 
-1581 
-1688 
-1890 
-2036 
-2315 
-2459 
-2381 
-2270 
-2175 
-2110 
-2129 
-2054 
-1994 
-2003 
-2034 
-2057 
-2023 
-2023 
-2048 
-1985 
-1966 
-1998 
-2000 
-1958 
-1947 
-1951 
-1950 
-1931 
-1885 
-1917 
-1932 
-1890 
-1837 
-1831 
-1824 
-1869 
-1807 
-1816 
-1837 
-1833 
-1743 
-1706 
-1730 
-1708 
-1687 
-1674 
-1674 
-1671 
-1674 
-1639 
-1633 
-1645 
-1657 
-1632 
-1651 
-1630 
-1625 
-1736 
-1755 
-1772 
-1781 
-1754 
-1746 
-1767 
-1765 
-1748 
-1796 
-1860 
-1811 
-1814 
-1854 
-1838 
-1848 
-1890 
-1913 
-1868 
-1902 
-1921 
-1803 
-1810 
-1879 
-1885 
-1866 
-1859 
-1818 
-1821 
-1786 
-1802 
-1818 
-1819 
-1813 
-1806 
-1800 
-1814 
-1769 
-1800 
-1822 
-1784 
-1766 
-1710 
-1746 
-1798 
-1769 
-1742 
-1754 
-1790 
-1788 
-1733 
-1737 
-1754 
-1740 
-1735 
-1725 
-1747 
-1744 
-1709 
-1687 
-1742 
-1728 
-1697 
-1723 
-1743 
-1744 
-1709 
-1672 
-1646 
-1644 
-1639 
-1630 
-1641 
-1621 
-1623 
-1643 
-1651 
-1659 
-1636 
-1642 
-1647 
-1674 
-1671 
-1704 
-1739 
-1736 
-1736 
-1665 
-1632 
-1657 
-1670 
-1677 
-1676 
-1682 
-1724 
-1730 
-1709 
-1678 
-1688 
-1710 
-1621 
-1472 
-1397 
-1267 
-1116 
-1054 
-1229 
-1523 
-1656 
-1852 
-1956 
-1896 
-1774 
-1735 
-1656 
-1648 
-1660 
-1652 
-1657 
-1677 
-1690 
-1669 
-1632 
-1624 
-1613 
-1572 
-1639 
-1651 
-1642 
-1641 
-1617 
-1606 
-1592 
-1590 
-1583 
-1567 
-1608 
-1581 
-1576 
-1582 
-1553 
-1554 
-1572 
-1554 
-1558 
-1562 
-1521 
-1493 
-1518 
-1464 
-1430 
-1392 
-1393 
-1393 
-1399 
-1395 
-1397 
-1417 
-1412 
-1435 
-1450 
-1502 
-1463 
-1473 
-1512 
-1555 
-1527 
-1568 
-1564 
-1588 
-1637 
-1677 
-1696 
-1663 
-1652 
-1637 
-1636 
-1689 
-1710 
-1716 
-1719 
-1719 
-1672 
-1654 
-1691 
-1686 
-1694 
-1679 
-1690 
-1755 
-1761 
-1721 
-1687 
-1676 
-1667 
-1656 
-1651 
-1642 
-1702 
-1721 
-1688 
-1637 
-1651 
-1696 
-1656 
-1679 
-1721 
-1758 
-1742 
-1647 
-1669 
-1707 
-1752 
-1727 
-1692 
-1711 
-1698 
-1681 
-1707 
-1706 
-1733 
-1731 
-1693 
-1714 
-1708 
-1670 
-1677 
-1710 
-1724 
-1706 
-1695 
-1683 
-1671 
-1664 
-1622 
-1648 
-1664 
-1682 
-1671 
-1696 
-1715 
-1725 
-1762 
-1732 
-1737 
-1724 
-1747 
-1757 
-1765 
-1797 
-1777 
-1725 
-1705 
-1740 
-1726 
-1751 
-1778 
-1823 
-1818 
-1732 
-1628 
-1504 
-1398 
-1259 
-1176 
-1176 
-1383 
-1611 
-1784 
-1989 
-2006 
-1955 
-1839 
-1783 
-1773 
-1761 
-1759 
-1747 
-1716 
-1702 
-1712 
-1711 
-1756 
-1721 
-1673 
-1673 
-1667 
-1674 
-1657 
-1655 
-1657 
-1662 
-1628 
-1638 
-1674 
-1682 
-1677 
-1691 
-1687 
-1659 
-1639 
-1598 
-1576 
-1582 
-1625 
-1571 
-1564 
-1566 
-1557 
-1493 
-1554 
-1575 
-1508 
-1430 
-1454 
-1477 
-1472 
-1460 
-1493 
-1500 
-1518 
-1501 
-1513 
-1571 
-1588 
-1628 
-1596 
-1641 
-1704 
-1677 
-1692 
-1727 
-1782 
-1764 
-1726 
-1736 
-1773 
-1811 
-1733 
-1766 
-1789 
-1766 
-1759 
-1739 
-1757 
-1790 
-1778 
-1751 
-1769 
-1804 
-1758 
-1740 
-1749 
-1795 
-1828 
-1796 
-1770 
-1779 
-1799 
-1775 
-1762 
-1738 
-1752 
-1772 
-1774 
-1766 
-1776 
-1761 
-1730 
-1748 
-1760 
-1774 
-1740 
-1757 
-1785 
-1806 
-1795 
-1795 
-1779 
-1758 
-1789 
-1817 
-1809 
-1834 
-1863 
-1837 
-1839 
-1791 
-1759 
-1766 
-1775 
-1752 
-1766 
-1744 
-1746 
-1781 
-1727 
-1693 
-1795 
-1872 
-1836 
-1821 
-1863 
-1866 
-1831 
-1819 
-1810 
-1867 
-1849 
-1882 
-1859 
-1858 
-1835 
-1845 
-1871 
-1803 
-1787 
-1846 
-1881 
-1863 
-1811 
-1619 
-1363 
-1267 
-1281 
-1351 
-1578 
-1769 
-1957 
-2108 
-2118 
-2064 
-1953 
-1914 
-1850 
-1790 
-1819 
-1806 
-1820 
-1825 
-1857 
-1804 
-1767 
-1797 
-1823 
-1842 
-1806 
-1797 
-1776 
-1763 
-1803 
-1804 
-1770 
-1788 
-1814 
-1787 
-1751 
-1719 
-1713 
-1711 
-1774 
-1756 
-1708 
-1707 
-1706 
-1672 
-1642 
-1638 
-1630 
-1651 
-1631 
-1593 
-1571 
-1577 
-1594 
-1589 
-1608 
-1584 
-1587 
-1633 
-1628 
-1650 
-1658 
-1711 
-1715 
-1704 
-1762 
-1782 
-1760 
-1794 
-1813 
-1845 
-1822 
-1871 
-1894 
-1876 
-1875 
-1864 
-1913 
-1902 
-1883 
-1905 
-1936 
-1952 
-1971 
-1938 
-1916 
-1937 
-1925 
-1910 
-1912 
-1931 
-1944 
-1914 
-1887 
-1930 
-1952 
-1934 
-1905 
-1925 
-1954 
-1913 
-1876 
-1907 
-1905 
-1927 
-1959 
-1969 
-1977 
-2000 
-1989 
-1959 
-1935 
-1974 
-1984 
-1974 
-1952 
-1948 
-1952 
-1951 
-1976 
-1987 
-1975 
-1991 
-1982 
-2005 
-1997 
-1950 
-1955 
-2016 
-2011 
-2012 
-2009 
-1969 
-1939 
-1958 
-1936 
-1957 
-2010 
-1979 
-2011 
-2028 
-2051 
-2039 
-2008 
-2023 
-2040 
-2051 
-2024 
-2037 
-2015 
-2035 
-2065 
-2123 
-2116 
-2090 
-2087 
-2117 
-2124 
-2098 
-2103 
-2084 
-2022 
-1903 
-1740 
-1565 
-1450 
-1501 
-1727 
-1984 
-2150 
-2387 
-2418 
-2260 
-2166 
-2220 
-2211 
-2122 
-2113 
-2129 
-2081 
-2079 
-2095 
-2124 
-2081 
-2057 
-2091 
-2066 
-2057 
-2061 
-2045 
-2078 
-2113 
-2092 
-2082 
-2039 
-2095 
-2105 
-2021 
-2047 
-2033 
-2023 
-2057 
-2064 
-2037 
-2043 
-2042 
-2059 
-2047 
-2025 
-1971 
-1928 
-1950 
-2005 
-1971 
-1976 
-2017 
-2019 
-1973 
-1999 
-2038 
-2078 
-2057 
-2038 
-2073 
-2119 
-2130 
-2145 
-2158 
-2186 
-2247 
-2321 
-2339 
-2374 
-2355 
-2324 
-2340 
-2319 
-2325 
-2445 
-2460 
-2516 
-2555 
-2543 
-2536 
-2526 
-2531 
-2558 
-2571 
-2562 
-2565 
-2579 
-2567 
-2549 
-2591 
-2589 
-2597 
-2588 
-2606 
-2607 
-2591 
-2583 
-2592 
-2592 
-2568 
-2614 
-2650 
-2619 
-2599 
-2616 
-2644 
-2619 
-2677 
-2679 
-2687 
-2684 
-2674 
-2679 
-2696 
-2722 
-2696 
-2646 
-2667 
-2733 
-2761 
-2705 
-2686 
-2754 
-2762 
-2758 
-2747 
-2729 
-2707 
-2715 
-2727 
-2760 
-2742 
-2761 
-2779 
-2788 
-2806 
-2811 
-2828 
-2838 
-2886 
-2916 
-2893 
-2902 
-2883 
-2884 
-2950 
-2956 
-2927 
-2934 
-2946 
-2950 
-2996 
-3003 
-2966 
-2981 
-3017 
-3023 
-3000 
-2862 
-2685 
-2579 
-2466 
-2415 
-2504 
-2734 
-3009 
-3230 
-3344 
-3361 
-3278 
-3166 
-3099 
-3072 
-3081 
-3075 
-3036 
-3017 
-3097 
-3110 
-3087 
-3044 
-3025 
-3000 
-3029 
-3039 
-3052 
-3028 
-3002 
-3010 
-3056 
-3032 
-2990 
-2960 
-2970 
-2960 
-2935 
-2971 
-2962 
-2957 
-2967 
-2946 
-2948 
-2944 
-2904 
-2824 
-2814 
-2819 
-2824 
-2824 
-2805 
-2795 
-2793 
-2788 
-2738 
-2740 
-2761 
-2750 
-2781 
-2772 
-2780 
-2775 
-2848 
-2860 
-2845 
-2879 
-2894 
-2912 
-2911 
-2883 
-2930 
-2959 
-2981 
-2939 
-2916 
-2954 
-2907 
-2961 
-3001 
-2949 
-2947 
-2977 
-2915 
-2868 
-2892 
-2943 
-2950 
-2911 
-2899 
-2875 
-2872 
-2829 
-2826 
-2848 
-2852 
-2824 
-2851 
-2831 
-2783 
-2779 
-2790 
-2772 
-2786 
-2770 
-2762 
-2805 
-2821 
-2788 
-2747 
-2807 
-2763 
-2668 
-2679 
-2742 
-2752 
-2716 
-2710 
-2727 
-2725 
-2662 
-2662 
-2666 
-2665 
-2678 
-2648 
-2601 
-2589 
-2613 
-2589 
-2591 
-2594 
-2596 
-2577 
-2534 
-2570 
-2601 
-2565 
-2534 
-2526 
-2567 
-2563 
-2543 
-2549 
-2544 
-2603 
-2583 
-2548 
-2542 
-2514 
-2519 
-2529 
-2523 
-2521 
-2443 
-2447 
-2465 
-2359 
-2188 
-2070 
-1919 
-1789 
-1808 
-2047 
-2301 
-2480 
-2699 
-2704 
-2618 
-2530 
-2437 
-2388 
-2421 
-2405 
-2311 
-2283 
-2320 
-2321 
-2300 
-2290 
-2245 
-2266 
-2234 
-2185 
-2177 
-2208 
-2192 
-2182 
-2134 
-2145 
-2157 
-2166 
-2168 
-2111 
-2084 
-2110 
-2111 
-2106 
-2086 
-2058 
-2001 
-1967 
-2008 
-1992 
-1980 
-1919 
-1855 
-1874 
-1855 
-1858 
-1904 
-1870 
-1821 
-1782 
-1786 
-1847 
-1875 
-1887 
-1856 
-1907 
-1935 
-1880 
-1915 
-1975 
-2005 
-1978 
-1978 
-2020 
-2063 
-2044 
-2032 
-2093 
-2100 
-2081 
-2092 
-2092 
-2082 
-2087 
-2071 
-2077 
-2066 
-2058 
-2038 
-2035 
-2040 
-2065 
-2062 
-2054 
-2065 
-2054 
-2001 
-2041 
-2027 
-2020 
-1982 
-1931 
-1969 
-2041 
-2039 
-2028 
-2024 
-1998 
-1963 
-1970 
-1982 
-1982 
-1924 
-1914 
-2003 
-2022 
-2063 
-2015 
-2011 
-2042 
-1946 
-1923 
-1943 
-1949 
-1967 
-2001 
-2010 
-1979 
-1905 
-1920 
-1923 
-1909 
-1921 
-1916 
-1921 
-1899 
-1885 
-1957 
-1945 
-1893 
-1928 
-1961 
-1943 
-1942 
-1976 
-1981 
-1958 
-1942 
-1980 
-1934 
-1894 
-1933 
-1957 
-1969 
-1934 
-1947 
-1968 
-1944 
-1953 
-1951 
-1975 
-1887 
-1792 
-1605 
-1420 
