59331 
59311 
59326 
59350 
59326 
59302 
59313 
59324 
59317 
59296 
59286 
59314 
59306 
59325 
59347 
59337 
59300 
59306 
59296 
59297 
59339 
59293 
59279 
59294 
59302 
59333 
59384 
59367 
59359 
59423 
59448 
59411 
59417 
59438 
59387 
59348 
59328 
59335 
59341 
59337 
59353 
59326 
59349 
59385 
59363 
59355 
59345 
59349 
59341 
59303 
59270 
59270 
59289 
59291 
59329 
59335 
59322 
59333 
59345 
59350 
59358 
59309 
59295 
59298 
59276 
59256 
59194 
59183 
59189 
59229 
59230 
59240 
59273 
59285 
59282 
59286 
59256 
59218 
59228 
59289 
59324 
59322 
59304 
59254 
59244 
59238 
59186 
59158 
59118 
59149 
59181 
59202 
59200 
59161 
59135 
59136 
59145 
59223 
59277 
59245 
59220 
59165 
59059 
59008 
59013 
59013 
59023 
59083 
59170 
59221 
59214 
59158 
59104 
59099 
59122 
59132 
59146 
59103 
59080 
59073 
59097 
59113 
59108 
59134 
59147 
59144 
59151 
59155 
59138 
59145 
59173 
59148 
59108 
59146 
59118 
59065 
59045 
59045 
59025 
59067 
59107 
59151 
59189 
59185 
59168 
59195 
59201 
59175 
59134 
59146 
59140 
59128 
59118 
59127 
59123 
59134 
59159 
59140 
59129 
59127 
59111 
59087 
59062 
59075 
59080 
59057 
59036 
59049 
59067 
59085 
59041 
58967 
58953 
59029 
59100 
59047 
58979 
58958 
58944 
58926 
58934 
58941 
59012 
59068 
59053 
59083 
59112 
59101 
59050 
59015 
59017 
59010 
59011 
59036 
58991 
58969 
58972 
59016 
59055 
59090 
59081 
59087 
59070 
59052 
59039 
59043 
59040 
59000 
58961 
58933 
58866 
58834 
58901 
58916 
58881 
58862 
58906 
58919 
58899 
58943 
58926 
58887 
58890 
58933 
58921 
58858 
58771 
58710 
58703 
58797 
58828 
58850 
58820 
58812 
58802 
58794 
58813 
58815 
58779 
58771 
58807 
58748 
58712 
58688 
58682 
58699 
58738 
58764 
58744 
58671 
58661 
58669 
58634 
58603 
58611 
58628 
58623 
58643 
58670 
58659 
58632 
58625 
58663 
58644 
58644 
58620 
58605 
58630 
58643 
58655 
58668 
58679 
58655 
58642 
58674 
58718 
58698 
58642 
58647 
58675 
58665 
58662 
58621 
58565 
58577 
58627 
58610 
58564 
58575 
58568 
58613 
58614 
58624 
58647 
58653 
58669 
58685 
58654 
58636 
58644 
58679 
58705 
58714 
58699 
58657 
58671 
58692 
58716 
58688 
58683 
58702 
58709 
58699 
58713 
58702 
58666 
58647 
58684 
58686 
58685 
58647 
58627 
58674 
58678 
58685 
58685 
58682 
58718 
58729 
58747 
58734 
58703 
58711 
58694 
58686 
58720 
58759 
58799 
58793 
58761 
58770 
58787 
58787 
58807 
58799 
58832 
58869 
58848 
58849 
58837 
58822 
58803 
58822 
58810 
58805 
58839 
58836 
58808 
58800 
58819 
58859 
58891 
58857 
58804 
58782 
58782 
58766 
58735 
58741 
58729 
58752 
58758 
58761 
58741 
58707 
58661 
58659 
58694 
58716 
58714 
58708 
58707 
58688 
58646 
58650 
58652 
58654 
58676 
58711 
58709 
58730 
58746 
58717 
58710 
58700 
58742 
58722 
58691 
58678 
58717 
58729 
58731 
58709 
58669 
58620 
58621 
58646 
58679 
58653 
58608 
58609 
58665 
58677 
58645 
58644 
58633 
58640 
58655 
58661 
58664 
58671 
58750 
58760 
58693 
58628 
58618 
58636 
58648 
58645 
58629 
58579 
58579 
58590 
58619 
58630 
58631 
58627 
58605 
58559 
58501 
58444 
58443 
58476 
58476 
58465 
58457 
58506 
58469 
58385 
58355 
58359 
58355 
58382 
58375 
58312 
58256 
58250 
58273 
58256 
58233 
58260 
58285 
58304 
58311 
58273 
58214 
58196 
58214 
58206 
58160 
58129 
58147 
58140 
58168 
58225 
58217 
58197 
58164 
58105 
58097 
58104 
58105 
58125 
58130 
58186 
58145 
58072 
58090 
58064 
58044 
58117 
58159 
58116 
58091 
58081 
58119 
58136 
58093 
58064 
58047 
58030 
58067 
58129 
58119 
58163 
58196 
58225 
58235 
58213 
58143 
58144 
58194 
58207 
58234 
58243 
58220 
58204 
58229 
58281 
58318 
58287 
58238 
58199 
58231 
58237 
58246 
58256 
58283 
58253 
58273 
58305 
58351 
58380 
58357 
58381 
58406 
58396 
58372 
58356 
58374 
58424 
58448 
58453 
58490 
58512 
58431 
58346 
58344 
58345 
58369 
58410 
58429 
58450 
58476 
58514 
58485 
58500 
58550 
58523 
58521 
58498 
58473 
58436 
58426 
58440 
58466 
58455 
58485 
58555 
58614 
58578 
58539 
58557 
58630 
58622 
58586 
58589 
58544 
58558 
58589 
58585 
58629 
58685 
58669 
58677 
58726 
58726 
58683 
58589 
58565 
58573 
58611 
58635 
58672 
58688 
58673 
58678 
58692 
58711 
58709 
58699 
58690 
58676 
58661 
58601 
58588 
58643 
58628 
58577 
58543 
58560 
58547 
58567 
58608 
58689 
58674 
58658 
58694 
58679 
58657 
58640 
58604 
58597 
58657 
58662 
58600 
58621 
58648 
58668 
58668 
58647 
58657 
58695 
58693 
58643 
58576 
58582 
58630 
58631 
58635 
58653 
58694 
58711 
58684 
58606 
58586 
58620 
58638 
58636 
58658 
58668 
58659 
58634 
58606 
58596 
58593 
58639 
58686 
58704 
58694 
58717 
58720 
58706 
58694 
58713 
58709 
58651 
58611 
58578 
58547 
58508 
58505 
58574 
58599 
58602 
58561 
58546 
58527 
58491 
58471 
58461 
58469 
58445 
58413 
58367 
58332 
58286 
58282 
58283 
58251 
58188 
58196 
58205 
58210 
58177 
58092 
58028 
58018 
58007 
58010 
57986 
57919 
57903 
57932 
57918 
57937 
57943 
57914 
57875 
57856 
57837 
57800 
57807 
57788 
57786 
57803 
57825 
57859 
57882 
57851 
57806 
57783 
57786 
57790 
57747 
57765 
57772 
57785 
57771 
57761 
57730 
57716 
57747 
57751 
57755 
57781 
57876 
57896 
57885 
57831 
57787 
57769 
57824 
57867 
57891 
57932 
57916 
57939 
57948 
57922 
57877 
57858 
57853 
57881 
57926 
57914 
57910 
57934 
57933 
57870 
57887 
57933 
57980 
58009 
57968 
57952 
57990 
58037 
58046 
58052 
58037 
58053 
58102 
58109 
58113 
58099 
58107 
58149 
58210 
58249 
58286 
58302 
58330 
58316 
58304 
58281 
58274 
58310 
58355 
58402 
58427 
58416 
58387 
58399 
58437 
58455 
58442 
58439 
58494 
58540 
58533 
58530 
58544 
58538 
58545 
58565 
58584 
58601 
58595 
58578 
58570 
58598 
58632 
58637 
58600 
58591 
58613 
58656 
58699 
58691 
58687 
58687 
58709 
58704 
58704 
58672 
58643 
58627 
58613 
58628 
58636 
58661 
58701 
58712 
58705 
58687 
58741 
58794 
58806 
58758 
58720 
58672 
58635 
58631 
58650 
58655 
58702 
58737 
58764 
58771 
58780 
58723 
58692 
58704 
58740 
58737 
58691 
58678 
58677 
58617 
58625 
58679 
58700 
58695 
58725 
58805 
58795 
58797 
58855 
58812 
58750 
58774 
58765 
58746 
58723 
58687 
58683 
58711 
58701 
58713 
58710 
58688 
58660 
58657 
58672 
58682 
58704 
58719 
58741 
58778 
58754 
58702 
58710 
58692 
58689 
58672 
58687 
58711 
58694 
58630 
58648 
58674 
58695 
58713 
58718 
58731 
58724 
58731 
58751 
58812 
58815 
58793 
58750 
58739 
58756 
58788 
58767 
58750 
58702 
58654 
58661 
58642 
58627 
58621 
58643 
58684 
58677 
58642 
58599 
58560 
58581 
58571 
58549 
58499 
58459 
58431 
58392 
58350 
58333 
58308 
58276 
58312 
58339 
58333 
58329 
58306 
58283 
58255 
58234 
58256 
58257 
58238 
58181 
58124 
58157 
58198 
58177 
58169 
58165 
58156 
58125 
58157 
58156 
58151 
58117 
58112 
58120 
58115 
58106 
58125 
58114 
58127 
58188 
58195 
58202 
58201 
58163 
58144 
58153 
58154 
58158 
58141 
58142 
58139 
58116 
58118 
58124 
58133 
58195 
58167 
58132 
58182 
58227 
58228 
58209 
58221 
58236 
58259 
58287 
58282 
58249 
58229 
58218 
58243 
58254 
58263 
58288 
58262 
58220 
58224 
58270 
58282 
58315 
58325 
58292 
58295 
58275 
58277 
58257 
58232 
58239 
58249 
58245 
58218 
58213 
58267 
58275 
58224 
58233 
58265 
58297 
58298 
58267 
58271 
58326 
58306 
58236 
58253 
58331 
58375 
58381 
58390 
58337 
58304 
58311 
58395 
58446 
58474 
58484 
58466 
58469 
58483 
58454 
58432 
58422 
58420 
58399 
58420 
58390 
58369 
58368 
58397 
58400 
58376 
58397 
58455 
58474 
58471 
58502 
58553 
58558 
58525 
58538 
58566 
58547 
58547 
58509 
58486 
58500 
58504 
58515 
58535 
58526 
58536 
58576 
58637 
58649 
58685 
58720 
58693 
58692 
58650 
58630 
58625 
58600 
58579 
58542 
58471 
58450 
58475 
58455 
58428 
58456 
58495 
58452 
58396 
58437 
58547 
58547 
58548 
58601 
58620 
58621 
58600 
58561 
58468 
58426 
58415 
58468 
58504 
58476 
58466 
58456 
58513 
58541 
58528 
58481 
58463 
58479 
58463 
58461 
58480 
58460 
58451 
58465 
58446 
58410 
58395 
58433 
58456 
58455 
58490 
58494 
58476 
58445 
58442 
58470 
58464 
58490 
58513 
58539 
58538 
58541 
58525 
58522 
58485 
58427 
58433 
58446 
58485 
58517 
58488 
58482 
58514 
58561 
58581 
58582 
58574 
58551 
58567 
58556 
58520 
58519 
58482 
58465 
58491 
58473 
58423 
58368 
58332 
58310 
58279 
58238 
58165 
58104 
58076 
58088 
58101 
58103 
58096 
58059 
57992 
57943 
57917 
57961 
57977 
57968 
57970 
57938 
57942 
57899 
57863 
57839 
57797 
57758 
57747 
57751 
57739 
57733 
57766 
57740 
57726 
57721 
57710 
57692 
57653 
57655 
57641 
57663 
57701 
57723 
57718 
57723 
57711 
57690 
57709 
57695 
57670 
57633 
57658 
57688 
57731 
57735 
57722 
57782 
57825 
57820 
57755 
57708 
57709 
57730 
57764 
57805 
57817 
57840 
57847 
57786 
57813 
57853 
57900 
57972 
57960 
57916 
57934 
57995 
57987 
57995 
58040 
58063 
58065 
58029 
58016 
58092 
58125 
58116 
58164 
58182 
58184 
58216 
58191 
58140 
58136 
58165 
58140 
58160 
58270 
58358 
58327 
58279 
58261 
58280 
58316 
58379 
58372 
58318 
58265 
58257 
58303 
58314 
58301 
58306 
58353 
58359 
58368 
58385 
58419 
58444 
58474 
58516 
58545 
58565 
58566 
58547 
58591 
58608 
58575 
58549 
58563 
58564 
58617 
58658 
58629 
58598 
58555 
58585 
58608 
58592 
58622 
58663 
58679 
58662 
58684 
58718 
58747 
58751 
58732 
58738 
58720 
58721 
58682 
58627 
58596 
58628 
58640 
58672 
58698 
58728 
58759 
58767 
58760 
58770 
58743 
58727 
58716 
58721 
58800 
58819 
58800 
58795 
58796 
58817 
58829 
58826 
58782 
58744 
58738 
58755 
58760 
58771 
58774 
58759 
58740 
58707 
58701 
58739 
58766 
58736 
58695 
58698 
58728 
58718 
58739 
58730 
58701 
58698 
58705 
58736 
58741 
58768 
58769 
58743 
58725 
58715 
58742 
58753 
58762 
58768 
58790 
58778 
58741 
58715 
58722 
58726 
58735 
58711 
58645 
58644 
58635 
58605 
58618 
58568 
58559 
58582 
58627 
58611 
58605 
58617 
58585 
58609 
58652 
58658 
58663 
58676 
58672 
58623 
58598 
58639 
58606 
58575 
58615 
58621 
58625 
58636 
58615 
58616 
58637 
58682 
58698 
58721 
58695 
58622 
58596 
58592 
58618 
58625 
58608 
58566 
58548 
58567 
58575 
58567 
58571 
58524 
58468 
58462 
58475 
58434 
58400 
58415 
58411 
58377 
58354 
58332 
58364 
58319 
58315 
58315 
58312 
58319 
58284 
58272 
58267 
58289 
58305 
58293 
58313 
58324 
58290 
58236 
58212 
58222 
58241 
58258 
58265 
58309 
58305 
58289 
58267 
58267 
58271 
58276 
58284 
58294 
58297 
58295 
58243 
58244 
58256 
58257 
58292 
58319 
58278 
58272 
58258 
58189 
58147 
58238 
58312 
58365 
58370 
58351 
58330 
58299 
58283 
58326 
58344 
58315 
58317 
58335 
58334 
58339 
58354 
58412 
58418 
58474 
58512 
58500 
58456 
58444 
58429 
58396 
58373 
58384 
58432 
58470 
58505 
58489 
58461 
58446 
58455 
58469 
58424 
58375 
58407 
58424 
58440 
58491 
58501 
58459 
58419 
58420 
58449 
58458 
58462 
58484 
58489 
58488 
58502 
58484 
58505 
58538 
58512 
58497 
58487 
58462 
58434 
58457 
58489 
58503 
58520 
58538 
58527 
58536 
58549 
58517 
58494 
58544 
58551 
58535 
58551 
58502 
58437 
58468 
58509 
58498 
58486 
58478 
58471 
58518 
58508 
58518 
58529 
58515 
58544 
58553 
58560 
58540 
58563 
58582 
58590 
58600 
58533 
58499 
58490 
58489 
58491 
58475 
58417 
58423 
58409 
58442 
58472 
58471 
58455 
58437 
58429 
58406 
58387 
58385 
58419 
58451 
58443 
58385 
58384 
58367 
58376 
58421 
58372 
58315 
58309 
58331 
58360 
58395 
58371 
58359 
58378 
58382 
58346 
58316 
58318 
58281 
58242 
58274 
58355 
58357 
58340 
58311 
58277 
58257 
58286 
58328 
58331 
58347 
58421 
58436 
58403 
58344 
58325 
58352 
58365 
58355 
58378 
58373 
58338 
58339 
58354 
58342 
58342 
58335 
58305 
58290 
58307 
58267 
58215 
58216 
58187 
58173 
58205 
58229 
58262 
58306 
58319 
58320 
58310 
58277 
58211 
58177 
58153 
58167 
58224 
58236 
58235 
58204 
58169 
58167 
58192 
58247 
58248 
58253 
58236 
58209 
58211 
58187 
58131 
58104 
58129 
58121 
58143 
58185 
58207 
58174 
58146 
58134 
58145 
58150 
58151 
58119 
58074 
58053 
58056 
58070 
58155 
58194 
58176 
58147 
58116 
58111 
58109 
58131 
58134 
58153 
58129 
58092 
58076 
58061 
58021 
58024 
58097 
58139 
58208 
58237 
58213 
58186 
58142 
58153 
58134 
58153 
58205 
58221 
58214 
58237 
58249 
58196 
58153 
58088 
58063 
58081 
58106 
58142 
58124 
58106 
58140 
58193 
58212 
58205 
58170 
58146 
58159 
58212 
58281 
58297 
58281 
58250 
58217 
58237 
58268 
58279 
58232 
58223 
58238 
58292 
58333 
58368 
58355 
58324 
58253 
58231 
58230 
58221 
58224 
58254 
58266 
58277 
58255 
58235 
58246 
58289 
58316 
58335 
58387 
58394 
58411 
58421 
58375 
58330 
58301 
58306 
58336 
58355 
58363 
58370 
58350 
58303 
58292 
58283 
58284 
58264 
58292 
58286 
58358 
58436 
58396 
58343 
58369 
58355 
58344 
58376 
58362 
58375 
58426 
58420 
58405 
58397 
58415 
58414 
58430 
58475 
58483 
58433 
58421 
58419 
58404 
58430 
58461 
58439 
58420 
58416 
58407 
58399 
58390 
58393 
58423 
58437 
58455 
58458 
58414 
58397 
58388 
58372 
58386 
58407 
58421 
58420 
58423 
58385 
58345 
58331 
58337 
58397 
58414 
58408 
58437 
58421 
58336 
58350 
58377 
58328 
58239 
58234 
58285 
58299 
58267 
58216 
58220 
58266 
58254 
58298 
58351 
58370 
58372 
58356 
58357 
58371 
58361 
58300 
58263 
58271 
58283 
58233 
58226 
58240 
58255 
58285 
58298 
58259 
58202 
58174 
58206 
58235 
58253 
58222 
58171 
58148 
58145 
58173 
58194 
58173 
58119 
58062 
58048 
58057 
58045 
58015 
57964 
57944 
57960 
57985 
57994 
57981 
57973 
57914 
57887 
57897 
57895 
57894 
57846 
57816 
57804 
57814 
57871 
57911 
57921 
57871 
57809 
57807 
57841 
57860 
57860 
57839 
57838 
57816 
57846 
57829 
57829 
57794 
57778 
57774 
57802 
57853 
57845 
57812 
57759 
57710 
57707 
57705 
57741 
57784 
57788 
57854 
57891 
57852 
57818 
57816 
57823 
57808 
57790 
57800 
57810 
57785 
57762 
57780 
57769 
57790 
57813 
57820 
57809 
57806 
57762 
57788 
57833 
57878 
57900 
57890 
57890 
57914 
57936 
57989 
57975 
57985 
58029 
58052 
58004 
57966 
57897 
57936 
57978 
57984 
57986 
57959 
57976 
57993 
58014 
58030 
58014 
57992 
58023 
58031 
58067 
58160 
58232 
58229 
58189 
58135 
58133 
58165 
58201 
58212 
58251 
58254 
58213 
58188 
58192 
58237 
58241 
58179 
58144 
58163 
58191 
58240 
58256 
58254 
58264 
58265 
58229 
58224 
58195 
58172 
58193 
58241 
58256 
58225 
58244 
58305 
58302 
58295 
58319 
58333 
58370 
58350 
58334 
58347 
58342 
58328 
58347 
58380 
58388 
58404 
58414 
58450 
58445 
58428 
58427 
58446 
58450 
58470 
58468 
58443 
58412 
58424 
58447 
58419 
58419 
58419 
58421 
58451 
58460 
58483 
58500 
58533 
58514 
58505 
58480 
58484 
58494 
58438 
58466 
58540 
58532 
58528 
58517 
58485 
58450 
58454 
58471 
58499 
58453 
58419 
58437 
58425 
58435 
58428 
58397 
58385 
58440 
58493 
58511 
58473 
58462 
58467 
58477 
58450 
58431 
58411 
58436 
58492 
58555 
58566 
58543 
58526 
58524 
58563 
58593 
58560 
58536 
58509 
58559 
58609 
58596 
58550 
58512 
58507 
58520 
58494 
58470 
58488 
58500 
58498 
58484 
58445 
58428 
58421 
58401 
58384 
58334 
58345 
58335 
58301 
58312 
58276 
58190 
58151 
58186 
58172 
58168 
58145 
58064 
58027 
58009 
57984 
58000 
58054 
58041 
58022 
58023 
58019 
58018 
57999 
58016 
58036 
58007 
57980 
58036 
58036 
58018 
57993 
57974 
57947 
57882 
57840 
57844 
57874 
57888 
57877 
57902 
57919 
57912 
57882 
57924 
57932 
57928 
57913 
57874 
57826 
57847 
57848 
57841 
57867 
57904 
57947 
57936 
57911 
57906 
57868 
57849 
57861 
57860 
57836 
57801 
57805 
57790 
57811 
57871 
57904 
57914 
57917 
57959 
57969 
57977 
57989 
57955 
57904 
57910 
57925 
57971 
58019 
57993 
58003 
58040 
58037 
58020 
57979 
57910 
57872 
57867 
57854 
57893 
58000 
58020 
57972 
57965 
58026 
58051 
58044 
58028 
57962 
57935 
57940 
57961 
58001 
58002 
58018 
58071 
58081 
58080 
58058 
58020 
58011 
58057 
58083 
58052 
58057 
58056 
58019 
58003 
58003 
57990 
57983 
58062 
58082 
58072 
58047 
58012 
57998 
58021 
58016 
58004 
58045 
58076 
58029 
58002 
58015 
58000 
58040 
58100 
58117 
58136 
58130 
58161 
58174 
58147 
58137 
58112 
58087 
58079 
58085 
58088 
58086 
58051 
58026 
58047 
58048 
58026 
58057 
58056 
58060 
58047 
58012 
58010 
58019 
58051 
58025 
57995 
57975 
57965 
57998 
58032 
58072 
58068 
58055 
58043 
58053 
58087 
58093 
58053 
58025 
58023 
58015 
58006 
57979 
57971 
57952 
57944 
57966 
57970 
57978 
57973 
58026 
58025 
58017 
58001 
57987 
57992 
57989 
57992 
57958 
57956 
57963 
57994 
57989 
57938 
57922 
57924 
57944 
57919 
57885 
57907 
57920 
57915 
57910 
57900 
57917 
57954 
57942 
57912 
57926 
57913 
57934 
57960 
57872 
57806 
57809 
57800 
57760 
57754 
57785 
57736 
57671 
57647 
57639 
57559 
57512 
57468 
57436 
57407 
57388 
57401 
57440 
57438 
57401 
57372 
57398 
57377 
57299 
57245 
57236 
57219 
57240 
57264 
57226 
57179 
57162 
57189 
57183 
57160 
57155 
57173 
57194 
57154 
57124 
57100 
57067 
57040 
57029 
57048 
57096 
57164 
57165 
57168 
57159 
57147 
57153 
57178 
57200 
57209 
57233 
57234 
57252 
57254 
57235 
57228 
57211 
57184 
57216 
57220 
57296 
57371 
57354 
57359 
57391 
57366 
57368 
57435 
57481 
57483 
57532 
57507 
57465 
57448 
57456 
57481 
57472 
57519 
57585 
57589 
57574 
57555 
57570 
57570 
57565 
57526 
57550 
57642 
57705 
57695 
57714 
57710 
57664 
57633 
57617 
57638 
57739 
57785 
57778 
57809 
57807 
57810 
57820 
57853 
57891 
57904 
57942 
57990 
57999 
57958 
57955 
57931 
57937 
57945 
57964 
57933 
57940 
57981 
57948 
57946 
57981 
57947 
57990 
58026 
58019 
58029 
58025 
58041 
58068 
58069 
58012 
58041 
58126 
58185 
58222 
58188 
58151 
58124 
58110 
58076 
58074 
58112 
58105 
58088 
58105 
58119 
58139 
58137 
58205 
58262 
58277 
58275 
58283 
58254 
58260 
58264 
58283 
58310 
58300 
58294 
58326 
58327 
58314 
58332 
58359 
58350 
58332 
58300 
58265 
58275 
58323 
58357 
58343 
58378 
58388 
58363 
58380 
58415 
58415 
58397 
58376 
58365 
58343 
58335 
58333 
58310 
58277 
58298 
58267 
58236 
58275 
58302 
58288 
58319 
58358 
58350 
58359 
58354 
58309 
58286 
58296 
58267 
58268 
58263 
58280 
58288 
58304 
58335 
58370 
58406 
58387 
58396 
58387 
58395 
58354 
58350 
58372 
58372 
58358 
58280 
58311 
58338 
58388 
58419 
58393 
58332 
58313 
58316 
58342 
58341 
58337 
58340 
58284 
58279 
58217 
58127 
58066 
58031 
57982 
57925 
57865 
57813 
57713 
57670 
57649 
57632 
57590 
57503 
57404 
57340 
57298 
57240 
57201 
57149 
57082 
57015 
56979 
56948 
56884 
56838 
56859 
56831 
56716 
56622 
56599 
56601 
56583 
56564 
56532 
56512 
56465 
56405 
56382 
56355 
56313 
56318 
56320 
56274 
56271 
56288 
56310 
56307 
56298 
56278 
56248 
56266 
56279 
56274 
56254 
56212 
56195 
56198 
56244 
56272 
56296 
56328 
56373 
56399 
56401 
56414 
56444 
56477 
56515 
56534 
56565 
56537 
56535 
56555 
56585 
56582 
56603 
56608 
56654 
56686 
56678 
56721 
56789 
56814 
56827 
56904 
57021 
57107 
57109 
57132 
57169 
57141 
57158 
57235 
57273 
57348 
57370 
57363 
57375 
57351 
57341 
57365 
57385 
57427 
57472 
57489 
57528 
57541 
57583 
57684 
57768 
57778 
57816 
57841 
57842 
57843 
57883 
57906 
57962 
58014 
58066 
58150 
58160 
58159 
58184 
58246 
58247 
58217 
58282 
58358 
58373 
58394 
58416 
58395 
58406 
58437 
58471 
58517 
58551 
58590 
58689 
58742 
58734 
58761 
58790 
58754 
58748 
58721 
58724 
58752 
58752 
58799 
58793 
58798 
58835 
58891 
58870 
58829 
58861 
58924 
58947 
58948 
58940 
58946 
58966 
58966 
58972 
58996 
59073 
59146 
59107 
59063 
59099 
59082 
59063 
59053 
59051 
59031 
59054 
59071 
59084 
59118 
59100 
59073 
59044 
59059 
59086 
59081 
59102 
59124 
59067 
59074 
59085 
59092 
59121 
59195 
59217 
59252 
59207 
59143 
59153 
59212 
59194 
59119 
59075 
59081 
59118 
59163 
59217 
59188 
59172 
59197 
59196 
59211 
59214 
59188 
59185 
59193 
59179 
59137 
59175 
59178 
59168 
59177 
59163 
59153 
59147 
59055 
58998 
58987 
58970 
58911 
58823 
58722 
58628 
58585 
58533 
58452 
58316 
58217 
58121 
58047 
57954 
57863 
57797 
57744 
57629 
57528 
57440 
57338 
57261 
57241 
57197 
57137 
57089 
57010 
56943 
56902 
56861 
56770 
56698 
56675 
56652 
56590 
56537 
56492 
56483 
56493 
56473 
56396 
56320 
56267 
56313 
56346 
56333 
56307 
56307 
56317 
56321 
56331 
56369 
56331 
56309 
56317 
56311 
56372 
56423 
56412 
56384 
56383 
56406 
56447 
56502 
56538 
56540 
56537 
56557 
56597 
56642 
56686 
56666 
56665 
56657 
56642 
56679 
56668 
56664 
56747 
56851 
56886 
56898 
56927 
56946 
56965 
56966 
57016 
57055 
57056 
57056 
56990 
56958 
57061 
57159 
57184 
57157 
57153 
57155 
57225 
57291 
57247 
57274 
57329 
57384 
57452 
57488 
57528 
57552 
57570 
57564 
57556 
57587 
57617 
57652 
57745 
57819 
57886 
57921 
57933 
57934 
57955 
58006 
58036 
58071 
58065 
58063 
58063 
58137 
58180 
58182 
58177 
58207 
58280 
58308 
58265 
58253 
58284 
58310 
58355 
58407 
58440 
58450 
58464 
58525 
58577 
58581 
58588 
58636 
58697 
58758 
58764 
58760 
58733 
58700 
58689 
58721 
58735 
58703 
58741 
58787 
58818 
58856 
58887 
58910 
58927 
58916 
58925 
58972 
58973 
58936 
58957 
58956 
58985 
59010 
59033 
59018 
58971 
58915 
58923 
59009 
59064 
59089 
59143 
59152 
59150 
59140 
59132 
59125 
59136 
59136 
59168 
59225 
59263 
59269 
59291 
59320 
59328 
59311 
59304 
59292 
59329 
59348 
59354 
59390 
59386 
59402 
59404 
59304 
59252 
59262 
59220 
59118 
59002 
58928 
58869 
58777 
58715 
58643 
58504 
58368 
58294 
58171 
58015 
57913 
57803 
57719 
57645 
57582 
57547 
57518 
57449 
57369 
57309 
57272 
57192 
57100 
57034 
56969 
56922 
56909 
56912 
56870 
56790 
56755 
56782 
56813 
56816 
56774 
56779 
56801 
56798 
56788 
56793 
56808 
56836 
56910 
56940 
56984 
57033 
57026 
57044 
57084 
57096 
57100 
57186 
57296 
57383 
57426 
57428 
57416 
57431 
57479 
57535 
57594 
57594 
57636 
57712 
57746 
57751 
57774 
57814 
57889 
57949 
58011 
58028 
58021 
58028 
58066 
58142 
58233 
58270 
58284 
58286 
58306 
58306 
58311 
58381 
58424 
58432 
58465 
58504 
58508 
58513 
58528 
58522 
58579 
58666 
58744 
58740 
58761 
58740 
58695 
58763 
58843 
58902 
58938 
58929 
58956 
59027 
59104 
59104 
59112 
59107 
59128 
59134 
59131 
59152 
59203 
59242 
59236 
59299 
59335 
59365 
59370 
59378 
59440 
59505 
59513 
59479 
59493 
59542 
59591 
59633 
59598 
59601 
59660 
59705 
59709 
59713 
59712 
59745 
59794 
59839 
59849 
59832 
59803 
59808 
59866 
59910 
59975 
60004 
60020 
60052 
60080 
60111 
60137 
60156 
60135 
60135 
60191 
60229 
60211 
60190 
60212 
60204 
60148 
60160 
60199 
60217 
60217 
60194 
60230 
60276 
60278 
60285 
60297 
60291 
60323 
60347 
60354 
60389 
60416 
60391 
60390 
60394 
60369 
60347 
60315 
60306 
60276 
60259 
60248 
60278 
60343 
60341 
60349 
60368 
60406 
60423 
60450 
60418 
60371 
60398 
60416 
60412 
60412 
60373 
60383 
60408 
60411 
60407 
60380 
60358 
60413 
60445 
60458 
60474 
60441 
60411 
60397 
60379 
60388 
60409 
60401 
60423 
60375 
60304 
60216 
60140 
60123 
60066 
59967 
59873 
59788 
59665 
59567 
59444 
59298 
59076 
58872 
58704 
58564 
58433 
58284 
58173 
58052 
57964 
57860 
57712 
57550 
57406 
57304 
57213 
57197 
57146 
57104 
57064 
56984 
56957 
56923 
56834 
56783 
56768 
56806 
56810 
56817 
56854 
56819 
56796 
56773 
56772 
56835 
56855 
56815 
56815 
56834 
56865 
56917 
56985 
57039 
57088 
57126 
57165 
57213 
57292 
57316 
57358 
57471 
57584 
57666 
57767 
57833 
57862 
57941 
57985 
58004 
58075 
58172 
58298 
58394 
58486 
58543 
58638 
58679 
58691 
58711 
58746 
58765 
58798 
58834 
58899 
58982 
59031 
59067 
59094 
59101 
59091 
59102 
59110 
59143 
59205 
59324 
59380 
59392 
59374 
59388 
59394 
59408 
59456 
59462 
59473 
59507 
59555 
59553 
59530 
59554 
59592 
59641 
59699 
59742 
59805 
59821 
59800 
59801 
59818 
59848 
59858 
59864 
59887 
59954 
60051 
60104 
60135 
60170 
60201 
60236 
60266 
60277 
60316 
60304 
60269 
60293 
60362 
60421 
60428 
60451 
60513 
60520 
60526 
60543 
60555 
60523 
60475 
60464 
60472 
60506 
60533 
60573 
60629 
60690 
60697 
60699 
60710 
60694 
60691 
60750 
60773 
60798 
60774 
60777 
60800 
60807 
60852 
60835 
60859 
60867 
60826 
60794 
60771 
60768 
60794 
60826 
60832 
60861 
60861 
60817 
60789 
60803 
60859 
60861 
60874 
60899 
60897 
60865 
60848 
60881 
60872 
60856 
60820 
60826 
60845 
60893 
60935 
60949 
60957 
60968 
60938 
60902 
60923 
60928 
60921 
60897 
60891 
60896 
60907 
60893 
60859 
60871 
60904 
60941 
60981 
60954 
60872 
60848 
60865 
60895 
60873 
60840 
60829 
60872 
60889 
60863 
60855 
60875 
60873 
60841 
60814 
60809 
60803 
60816 
60811 
60800 
60808 
60831 
60801 
60783 
60771 
60732 
60681 
60716 
60752 
60737 
60746 
60747 
60740 
60727 
60696 
60698 
60647 
60550 
60491 
60438 
60281 
60106 
59949 
59789 
59619 
59484 
59320 
59151 
58968 
58804 
58603 
58416 
58291 
58194 
58089 
57958 
57804 
57657 
57579 
57509 
57372 
57240 
57145 
57067 
56969 
56895 
56855 
56824 
56777 
56760 
56765 
56793 
56836 
56846 
56837 
56829 
56808 
56835 
56840 
56835 
56838 
56836 
56886 
56893 
56901 
57016 
57143 
57210 
57238 
57257 
57302 
57339 
57339 
57365 
57463 
57587 
57622 
57661 
57727 
57779 
57828 
57900 
57961 
58069 
58188 
58331 
58401 
58469 
58575 
58655 
58694 
58736 
58825 
58867 
58889 
59004 
59079 
59114 
59123 
59127 
59165 
59217 
59240 
59269 
59307 
59366 
59397 
59381 
59399 
59402 
59432 
59493 
59524 
59569 
59612 
59576 
59583 
59649 
59690 
59717 
59728 
59749 
59763 
59835 
59861 
59886 
59914 
59929 
59917 
59948 
60014 
60060 
60122 
60101 
60106 
60127 
60128 
60198 
60261 
60326 
60345 
60359 
60371 
60391 
60447 
60512 
60560 
60595 
60600 
60593 
60629 
60618 
60587 
60580 
60620 
60689 
60747 
60769 
60771 
60819 
60881 
60905 
60900 
60925 
60936 
60953 
60980 
61012 
61035 
61090 
61120 
61099 
61117 
61115 
61112 
61123 
61160 
61178 
61217 
61260 
61232 
61218 
61243 
61210 
61178 
61155 
61158 
61199 
61237 
61238 
61237 
61290 
61293 
61273 
61261 
61253 
61298 
61339 
61277 
61211 
61207 
61239 
61248 
61271 
61289 
61302 
61331 
61310 
61235 
61197 
61170 
61181 
61212 
61194 
61193 
61193 
61215 
61155 
61110 
61084 
61079 
61113 
61127 
61121 
61105 
61068 
61051 
61046 
61025 
61020 
61023 
61006 
61009 
61023 
61016 
61003 
61048 
61100 
61083 
61072 
61078 
61029 
60979 
60994 
61054 
61043 
61038 
61033 
61013 
61040 
61057 
61063 
61051 
61042 
61023 
60980 
60971 
60982 
60951 
60886 
60796 
60758 
60673 
60508 
60351 
60179 
59991 
59834 
59697 
59568 
59438 
59323 
59186 
58994 
58836 
58701 
58537 
58415 
58343 
58261 
58131 
57996 
57860 
57765 
57701 
57670 
57633 
57519 
57441 
57386 
57331 
57302 
57317 
57296 
57222 
57207 
57250 
57256 
57262 
57247 
57284 
57356 
57370 
57402 
57461 
57564 
57612 
57646 
57714 
57748 
57721 
57733 
57821 
57919 
58008 
58125 
58183 
58230 
58294 
58346 
58417 
58528 
58639 
58720 
58784 
58899 
58977 
59012 
59081 
59157 
59236 
59322 
59368 
59392 
59471 
59512 
59513 
59577 
59634 
59647 
59625 
59641 
59715 
59803 
59840 
59795 
59773 
59818 
59842 
59865 
59954 
59981 
60022 
60089 
60132 
60117 
60083 
60043 
60050 
60103 
60161 
60189 
60187 
60162 
60153 
60156 
60154 
60169 
60208 
60278 
60355 
60393 
60399 
60403 
60467 
60510 
60523 
60515 
60516 
60563 
60606 
60652 
60708 
60738 
60758 
60761 
60831 
60878 
60915 
60921 
60941 
61023 
61111 
61134 
61097 
61087 
61096 
61116 
61159 
61169 
61169 
61148 
61173 
61226 
61227 
61259 
61276 
61295 
61339 
61308 
61333 
61430 
61434 
61432 
61464 
61450 
61429 
61432 
61446 
61422 
61421 
61428 
61491 
61540 
61581 
61594 
61594 
61585 
61549 
61482 
61442 
61415 
61394 
61432 
61474 
61464 
61439 
61444 
61464 
61475 
61510 
61556 
61547 
61538 
61486 
61447 
61452 
61469 
61409 
61356 
61359 
61400 
61373 
61342 
61319 
61279 
61321 
61326 
61273 
61240 
61268 
61257 
61187 
61216 
61209 
61196 
61207 
61176 
61183 
61186 
61190 
61195 
61180 
61165 
61174 
61168 
61137 
61134 
61139 
61153 
61121 
61104 
61079 
61059 
61086 
61098 
61096 
61073 
61038 
61002 
60972 
60962 
60937 
60943 
60972 
60950 
60968 
60958 
60957 
60932 
60864 
60787 
60676 
60529 
60340 
60164 
60020 
59860 
59694 
59545 
59376 
59189 
59028 
58875 
58685 
58485 
58312 
58171 
58076 
58025 
57904 
57779 
57654 
57510 
57369 
57266 
57198 
57130 
57085 
57030 
56976 
56911 
56893 
56872 
56830 
56817 
56841 
56862 
56853 
56825 
56849 
56895 
56964 
57016 
57057 
57097 
57137 
57183 
57232 
57277 
57349 
57417 
57465 
57555 
57605 
57666 
57768 
57824 
57854 
57909 
58020 
58117 
58167 
58272 
58458 
58575 
58652 
58754 
58821 
58879 
58961 
59043 
59126 
59175 
59189 
59222 
59275 
59298 
59383 
59393 
59374 
59379 
59390 
59425 
59541 
59593 
59606 
59646 
59655 
59676 
59735 
59794 
59805 
59790 
59789 
59883 
59944 
59943 
59935 
59946 
59978 
59976 
60015 
60075 
60126 
60121 
60103 
60109 
60113 
60135 
60165 
60165 
60183 
60253 
60324 
60361 
60415 
60451 
60472 
60512 
60532 
60551 
60582 
60586 
60618 
60652 
60647 
60609 
60640 
60752 
60784 
60804 
60856 
60858 
60876 
60928 
60959 
60996 
61035 
61037 
61051 
61042 
61002 
61022 
61075 
61133 
61211 
61244 
61264 
61290 
61303 
61294 
61273 
61250 
61294 
61350 
61358 
61363 
61420 
61430 
61428 
61446 
61407 
61357 
61367 
61387 
61425 
61437 
61433 
61433 
61426 
61405 
61436 
61398 
61368 
61384 
61344 
61326 
61347 
61319 
61321 
61338 
61364 
61425 
61443 
61399 
61387 
61367 
61368 
61396 
61366 
61355 
61344 
61354 
61340 
61282 
61211 
61228 
61209 
61209 
61232 
61244 
61247 
61236 
61232 
61235 
61188 
61165 
61156 
61172 
61138 
61097 
61124 
61119 
61097 
61102 
61122 
61124 
61156 
61154 
61140 
61127 
61072 
60980 
60939 
60966 
60989 
60977 
60978 
60936 
60943 
60949 
60912 
60893 
60817 
60770 
60701 
60607 
60452 
60381 
60294 
60165 
60068 
59976 
59873 
59747 
59557 
59389 
59237 
59102 
58932 
58777 
58588 
58426 
58258 
58137 
58032 
57891 
57795 
57691 
57592 
57509 
57355 
57222 
57147 
57079 
57027 
56997 
56973 
56957 
56961 
56980 
56960 
56921 
56901 
56910 
56927 
56914 
56913 
56927 
56943 
57017 
57049 
57086 
57135 
57172 
57203 
57256 
57339 
57464 
57536 
57588 
57637 
57689 
57768 
57830 
57935 
58044 
58131 
58183 
58220 
58272 
58301 
58384 
58536 
58628 
58695 
58712 
58763 
58865 
58948 
58999 
59063 
59090 
59116 
59130 
59128 
59165 
59164 
59171 
59202 
59239 
59286 
59329 
59314 
59319 
59347 
59391 
59450 
59491 
59474 
59500 
59535 
59554 
59541 
59579 
59616 
59620 
59612 
59594 
59595 
59630 
59594 
59540 
59563 
59620 
59687 
59754 
59764 
59743 
59740 
59787 
59829 
59833 
59877 
59927 
59956 
60004 
60017 
60016 
60027 
60059 
60152 
60200 
60242 
60249 
60292 
60325 
60346 
60385 
60415 
60514 
60596 
60617 
60619 
60652 
60694 
60766 
60786 
60778 
60765 
60814 
60887 
60944 
60963 
60976 
60979 
60988 
61003 
61062 
61100 
61081 
61148 
61185 
61191 
61189 
61214 
61256 
61274 
61266 
61282 
61310 
61289 
61261 
61310 
61355 
61346 
61419 
61420 
61345 
61313 
61301 
61339 
61338 
61358 
61420 
61420 
61376 
61333 
61366 
61365 
61342 
61334 
61328 
61324 
61366 
61387 
61385 
61413 
61439 
61468 
61435 
61417 
61455 
61519 
61544 
61515 
61495 
61527 
61593 
61622 
61654 
61680 
61704 
61708 
61702 
61680 
61690 
61682 
61731 
61807 
61860 
61881 
61889 
61893 
61880 
61859 
61911 
61896 
61841 
61746 
61655 
61550 
61446 
61388 
61304 
61160 
60979 
60793 
60614 
60439 
60284 
60095 
59924 
59765 
59615 
59452 
59288 
59121 
59002 
58869 
58719 
58625 
58505 
58404 
58296 
58200 
58111 
58044 
57977 
57927 
57909 
57855 
57794 
57760 
57728 
57684 
57709 
57750 
57772 
57752 
57732 
57754 
57762 
57759 
57779 
57817 
57897 
57972 
58003 
58075 
58102 
58180 
58301 
58377 
58472 
58542 
58617 
58678 
58739 
58799 
58891 
58939 
59018 
59134 
59199 
59241 
59286 
59357 
59401 
59423 
59447 
59468 
59494 
59526 
59633 
59729 
59795 
59814 
59829 
59850 
59854 
59875 
59881 
59873 
59882 
59873 
59889 
59933 
59963 
59989 
60008 
60012 
60033 
60043 
60025 
60053 
60113 
60160 
60153 
60198 
60240 
60243 
60229 
60235 
60317 
60346 
60362 
60382 
60434 
60443 
60400 
60422 
60406 
60446 
60565 
60599 
60621 
60664 
60660 
60662 
60691 
60703 
60745 
60829 
60878 
60916 
60919 
60951 
60951 
60949 
61034 
61085 
61067 
61109 
61189 
61214 
61259 
61313 
61340 
61345 
61380 
61392 
61382 
61385 
61389 
61465 
61518 
61601 
61609 
61549 
61559 
61585 
61611 
61617 
61624 
61658 
61626 
61591 
61595 
61595 
61579 
61579 
61634 
61649 
61669 
61729 
61739 
61734 
61744 
61708 
61726 
61761 
61756 
61759 
61763 
61717 
61670 
61675 
61707 
61704 
61649 
61606 
61571 
61603 
61655 
61640 
61614 
61595 
61624 
61604 
61615 
61611 
61610 
61560 
61549 
61553 
61532 
61503 
61463 
61502 
61548 
61556 
61549 
61493 
61492 
61509 
61519 
61572 
61600 
61621 
61609 
61528 
61512 
61525 
61503 
61531 
61525 
61503 
61459 
61432 
61413 
61375 
61342 
61308 
61256 
61156 
61057 
60964 
60838 
60727 
60604 
60442 
60296 
60196 
60053 
59857 
59699 
59484 
59266 
59079 
58923 
58728 
58606 
58446 
58281 
58111 
57940 
57790 
57668 
57527 
57364 
57267 
57190 
57093 
57001 
56889 
56809 
56724 
56638 
56625 
56588 
56513 
56477 
56448 
56461 
56470 
56443 
56453 
56438 
56399 
56425 
56469 
56489 
56515 
56574 
56609 
56649 
56671 
56711 
56853 
56963 
57014 
57099 
57204 
57324 
57426 
57531 
57610 
57655 
57725 
57759 
57834 
57889 
57971 
58131 
58262 
58362 
58444 
58527 
58630 
58725 
58733 
58759 
58772 
58812 
58888 
58973 
59045 
59044 
59084 
59092 
59115 
59158 
59204 
59216 
59225 
59270 
59266 
59235 
59261 
59311 
59369 
59404 
59476 
59508 
59552 
59589 
59629 
59684 
59717 
59740 
59737 
59763 
59818 
59884 
59989 
60066 
60093 
60112 
60081 
60094 
60162 
60204 
60236 
60239 
60311 
60365 
60383 
60375 
60415 
60476 
60561 
60618 
60667 
60742 
60764 
60786 
60805 
60836 
60852 
60873 
60895 
60958 
61023 
61106 
61182 
61193 
61165 
61159 
61186 
61207 
61248 
61294 
61329 
61349 
61388 
61435 
61462 
61483 
61422 
61382 
61388 
61406 
61424 
61450 
61413 
61380 
61399 
61428 
61428 
61430 
61440 
61428 
61427 
61418 
61442 
61448 
61468 
61504 
61446 
61441 
61473 
61524 
61539 
61570 
61596 
61573 
61564 
61550 
61587 
61608 
61601 
61615 
61629 
61662 
61710 
61742 
61730 
61717 
61714 
61749 
61774 
61793 
61767 
61743 
61765 
61723 
61642 
61584 
61529 
61430 
61291 
61165 
60982 
60750 
60553 
60390 
60221 
60055 
59911 
59773 
59611 
59415 
59252 
59076 
58931 
58839 
58719 
58581 
58400 
58230 
58087 
58034 
57969 
57911 
57874 
57860 
57860 
57861 
57845 
57793 
57727 
57679 
57652 
57588 
57583 
57606 
57686 
57751 
57766 
57764 
57786 
57824 
57859 
57892 
57965 
58013 
58040 
58069 
58081 
58101 
58147 
58233 
58308 
58374 
58414 
58448 
58416 
58403 
58467 
58580 
58702 
58847 
58957 
59072 
59202 
59288 
59365 
59448 
59501 
59530 
59576 
59656 
59751 
59816 
59862 
59885 
59923 
60004 
60063 
60120 
60164 
60135 
60117 
60115 
60105 
60127 
60135 
60104 
60133 
60206 
60251 
60237 
60216 
60255 
60346 
60410 
60474 
60559 
60583 
60564 
60579 
60625 
60635 
60624 
60684 
60742 
60752 
60706 
60663 
60669 
60704 
60746 
60738 
60735 
60761 
60736 
60691 
60658 
60650 
60669 
60659 
60673 
60682 
60707 
60708 
60730 
60754 
60750 
60708 
60663 
60674 
60692 
60689 
60694 
60739 
60716 
60642 
60581 
60594 
60644 
60648 
60680 
60695 
60698 
60649 
60610 
60600 
60595 
60610 
60613 
60610 
60613 
60617 
60649 
60623 
60611 
60591 
60569 
60558 
60514 
60506 
60460 
60458 
60441 
60449 
60459 
60390 
60299 
60253 
60301 
60337 
60332 
60322 
60261 
60210 
60187 
60206 
60197 
60132 
60099 
60084 
60085 
60083 
60025 
60014 
60007 
60028 
60097 
60080 
60066 
59998 
59950 
59992 
60007 
60009 
59974 
59941 
59952 
60014 
60056 
60027 
59973 
59961 
59952 
59966 
59989 
59975 
60009 
60039 
60022 
59952 
59880 
59843 
59824 
59752 
59687 
59603 
59521 
59351 
59133 
58940 
58745 
58610 
58488 
58333 
58190 
58055 
57938 
57813 
57686 
57546 
57428 
57337 
57251 
57184 
57132 
57103 
57110 
57036 
56955 
56852 
56838 
56818 
56816 
56842 
56804 
56737 
56730 
56773 
56814 
56837 
56859 
56893 
56931 
56951 
57010 
57049 
57080 
57124 
57163 
57211 
57255 
57242 
57268 
57368 
57440 
57487 
57586 
57701 
57762 
57810 
57890 
57979 
58024 
58055 
58129 
58209 
58268 
58339 
58446 
58552 
58621 
58659 
58695 
58766 
58808 
58869 
58946 
58998 
59040 
59118 
59153 
59124 
59179 
59232 
59308 
59371 
59393 
59382 
59394 
59449 
59473 
59513 
59570 
59593 
59652 
59643 
59664 
59684 
59706 
59712 
59667 
59638 
59621 
59623 
59652 
59637 
59644 
59634 
59613 
59594 
59595 
59630 
59667 
59745 
59749 
59757 
59770 
59760 
59752 
59759 
59784 
59787 
59788 
59785 
59764 
59780 
59800 
59809 
59836 
59842 
59834 
59839 
59893 
59895 
59891 
59869 
59881 
59951 
60033 
60014 
60020 
60077 
60104 
60109 
60103 
60113 
60158 
60119 
60086 
60055 
60079 
60182 
60201 
60138 
60072 
60072 
60093 
60085 
60049 
60046 
60090 
60152 
60173 
60232 
60250 
60194 
60178 
60130 
60085 
60092 
60124 
60152 
60203 
60227 
60250 
60230 
60212 
60222 
60232 
60249 
60255 
60215 
60198 
60234 
60287 
60255 
60260 
60226 
60155 
60142 
60145 
60168 
60190 
60187 
60200 
60246 
60238 
60172 
60107 
60081 
60034 
59986 
59965 
59941 
59949 
59954 
59921 
59910 
59924 
59890 
59883 
59896 
59855 
59839 
59839 
59871 
59899 
59867 
59846 
59796 
59761 
59754 
59711 
59659 
59612 
59617 
59633 
59573 
59534 
59472 
59387 
59263 
59092 
58926 
58772 
58701 
58565 
58356 
58196 
58057 
57906 
57750 
57588 
57422 
57240 
57084 
56927 
56827 
56746 
56654 
56589 
56544 
56473 
56367 
56265 
56182 
56103 
56074 
56045 
56002 
55956 
55928 
55905 
55880 
55925 
55981 
55975 
55970 
55984 
56013 
56006 
56038 
56083 
56109 
56140 
56145 
56221 
56269 
56282 
56326 
56400 
56488 
56566 
56642 
56725 
56796 
56887 
56938 
56998 
57056 
57108 
57156 
57219 
57255 
57329 
57527 
57624 
57706 
57767 
57809 
57840 
57859 
57943 
58025 
58048 
58070 
58123 
58201 
58297 
58344 
58341 
58400 
58456 
58453 
58447 
58476 
58494 
58520 
58532 
58568 
58600 
58572 
58564 
58596 
58648 
58657 
58645 
58650 
58645 
58650 
58657 
58628 
58659 
58634 
58635 
58670 
58639 
58597 
58570 
58522 
58481 
58466 
58436 
58420 
58458 
58427 
58405 
58406 
58409 
58454 
58510 
58499 
58561 
58601 
58644 
58746 
58842 
58902 
58962 
59103 
59225 
59319 
59479 
59632 
59748 
59873 
59971 
60097 
60255 
60336 
60447 
60604 
60734 
60813 
60971 
61147 
61256 
61354 
61464 
61571 
61699 
61821 
61918 
62056 
62137 
62194 
62234 
62309 
62350 
62437 
62517 
62593 
62644 
62707 
62787 
62856 
62944 
63039 
63096 
63085 
63118 
63178 
63229 
63246 
63283 
63331 
63322 
63336 
63335 
63286 
63226 
63228 
63243 
63247 
63250 
63277 
63276 
63204 
63166 
63151 
63196 
63207 
63126 
63088 
63054 
63026 
62979 
62931 
62871 
62864 
62872 
62833 
62794 
62736 
62660 
62632 
62601 
62519 
62449 
62378 
62266 
62162 
62107 
62071 
62030 
61973 
61917 
61802 
61718 
61674 
61579 
61496 
61471 
61411 
61347 
61264 
61122 
60977 
60841 
60741 
60658 
60539 
60378 
60239 
60085 
59929 
59716 
59490 
59254 
59078 
58887 
58693 
58499 
58261 
58028 
57825 
57615 
57401 
57259 
57134 
56952 
56793 
56630 
56449 
56304 
56200 
56074 
55936 
55827 
55749 
55642 
55584 
55534 
55449 
55424 
55395 
55308 
55251 
55173 
55173 
55152 
55108 
55097 
55117 
55125 
55103 
55092 
55048 
55045 
55057 
55089 
55098 
55052 
55068 
55111 
55145 
55177 
55174 
55210 
55269 
55330 
55394 
55430 
55461 
55502 
55482 
55505 
55530 
55537 
55572 
55601 
55640 
55709 
55775 
55786 
55846 
55917 
55972 
55969 
55980 
55969 
55996 
56053 
56121 
56130 
56125 
56180 
56207 
56179 
56149 
56147 
56143 
56175 
56247 
56261 
56277 
56282 
56280 
56295 
56295 
56324 
56373 
56391 
56418 
56504 
56499 
56401 
56359 
56339 
56380 
56457 
56535 
56618 
56684 
56640 
56693 
56737 
56719 
56687 
56707 
56712 
56768 
56789 
56811 
56865 
56878 
56922 
56997 
56991 
56972 
56974 
56986 
56995 
57070 
57112 
57105 
57141 
57208 
57240 
57226 
57240 
57231 
57243 
57261 
57233 
57237 
57278 
57299 
57347 
57376 
57370 
57361 
57394 
57415 
57399 
57431 
57485 
57559 
57570 
57525 
57532 
57498 
57496 
57543 
57604 
57659 
57657 
57636 
57624 
57643 
57637 
57653 
57714 
57771 
57842 
57895 
57938 
58005 
58031 
58032 
58040 
58079 
58097 
58144 
58174 
58170 
58185 
58173 
58182 
58254 
58330 
58358 
58360 
58363 
58350 
58351 
58400 
58430 
58455 
58467 
58506 
58549 
58611 
58615 
58590 
58624 
58644 
58584 
58560 
58601 
58621 
58618 
58621 
58600 
58590 
58578 
58552 
58622 
58692 
58679 
58628 
58575 
58518 
58537 
58541 
58483 
58480 
58475 
58460 
58480 
58487 
58493 
58525 
58537 
58531 
58522 
58487 
58500 
58549 
58567 
58549 
58545 
58529 
58476 
58440 
58388 
58300 
58250 
58220 
58169 
58109 
58014 
57909 
57843 
57740 
57642 
57599 
57519 
57417 
57265 
57133 
56995 
56894 
56753 
56592 
56458 
56277 
56159 
56025 
55929 
55831 
55724 
55637 
55582 
55511 
55436 
55353 
55296 
55255 
55198 
55146 
55095 
55059 
54956 
54951 
54949 
54955 
54976 
54982 
54949 
54961 
54995 
55024 
55064 
55075 
55078 
55097 
55099 
55071 
55067 
55086 
55131 
55218 
55321 
55379 
55377 
55353 
55346 
55365 
55411 
55466 
55577 
55696 
55732 
55712 
55714 
55740 
55812 
55847 
55913 
55981 
55980 
56021 
55999 
55998 
56027 
56089 
56137 
56142 
56163 
56192 
56203 
56204 
56234 
56226 
56177 
56191 
56206 
56236 
56248 
56262 
56304 
56346 
56375 
56419 
56413 
56358 
56323 
56316 
56303 
56276 
56323 
56401 
56420 
56407 
56403 
56375 
56392 
56410 
56422 
56433 
56515 
56573 
56557 
56559 
56611 
56673 
56733 
56732 
56770 
56812 
56868 
56891 
56872 
56848 
56873 
56949 
56992 
56986 
57017 
57056 
57059 
57093 
57116 
57092 
57076 
57058 
57065 
57083 
57163 
57228 
57290 
57334 
57377 
57409 
57404 
57439 
57453 
57469 
57464 
57474 
57533 
57580 
57611 
57661 
57666 
57702 
57734 
57762 
57817 
57835 
57848 
57859 
57848 
57833 
57826 
57787 
57769 
57751 
57729 
57684 
57653 
57659 
57718 
57726 
57736 
57733 
57704 
57671 
57661 
57645 
57620 
57648 
57725 
57731 
57706 
57738 
57784 
57810 
57796 
57738 
57724 
57685 
57635 
57652 
57693 
57699 
57712 
57777 
57834 
57897 
57878 
57835 
57830 
57858 
57875 
57870 
57865 
57835 
57759 
57727 
57738 
57808 
57817 
57814 
57828 
57864 
57877 
57872 
57913 
57987 
58012 
57941 
57905 
57884 
57856 
57866 
57841 
57756 
57691 
57577 
57471 
57377 
57277 
57215 
57178 
57100 
56979 
56873 
56766 
56689 
56575 
56457 
56402 
56318 
56183 
56090 
56032 
55966 
55870 
55728 
55696 
55668 
55592 
55525 
55531 
55518 
55457 
55397 
55348 
55334 
55294 
55265 
55252 
55262 
55283 
55272 
55308 
55358 
55362 
55365 
55401 
55437 
55456 
55455 
55488 
55502 
55559 
55653 
55689 
55714 
55713 
55742 
55764 
55820 
55838 
55880 
55928 
55982 
56026 
56087 
56125 
56174 
56185 
56239 
56328 
56360 
56429 
56491 
56546 
56596 
56663 
56807 
56884 
56872 
56862 
56871 
56935 
56977 
56980 
56935 
56938 
56979 
57008 
57027 
57031 
57036 
57067 
57040 
57040 
57064 
57031 
57005 
57024 
57019 
57054 
57112 
57088 
57092 
57080 
57122 
57138 
57147 
57154 
57164 
57183 
57197 
57169 
57200 
57199 
57199 
57199 
57191 
57211 
57241 
57236 
57229 
57227 
57286 
57354 
57344 
57347 
57332 
57294 
57301 
57335 
57363 
57331 
57340 
57383 
57415 
57398 
57410 
57418 
57384 
57370 
57391 
57413 
57457 
57434 
57424 
57444 
57429 
57412 
57410 
57433 
57431 
57461 
57476 
57485 
57497 
57486 
57537 
57555 
57529 
57543 
57574 
57587 
57555 
57519 
57537 
57607 
57636 
57564 
57530 
57550 
57591 
57647 
57655 
57654 
57662 
57633 
57616 
57603 
57615 
57629 
57650 
57666 
57655 
57660 
57617 
57579 
57580 
57557 
57611 
57646 
57597 
57597 
57607 
57581 
57560 
57552 
57558 
57570 
57570 
57599 
57597 
57558 
57524 
57524 
57567 
57617 
57599 
57557 
57541 
57550 
57533 
57468 
57448 
57482 
57472 
57498 
57497 
57446 
57431 
57454 
57492 
57514 
57483 
57419 
57362 
57355 
57307 
57227 
57188 
57189 
57159 
57084 
56981 
56855 
56690 
56513 
56404 
56262 
56104 
56016 
55942 
55847 
55699 
55619 
55527 
55352 
55202 
55085 
54963 
54874 
54802 
54696 
54610 
54540 
54449 
54420 
54371 
54275 
54194 
54149 
54057 
53956 
53917 
53903 
53848 
53831 
53862 
53921 
53909 
53852 
53819 
53796 
53754 
53758 
53795 
53806 
53841 
53854 
53904 
53914 
53929 
53983 
54033 
54062 
54104 
54164 
54185 
54224 
54316 
54390 
54427 
54482 
54540 
54541 
54573 
54631 
54688 
54690 
54751 
54822 
54880 
54940 
55029 
55138 
55165 
55167 
55187 
55229 
55226 
55217 
55221 
55225 
55237 
55256 
55254 
55286 
55334 
55400 
55428 
55443 
55434 
55457 
55472 
55456 
55460 
55459 
55442 
55398 
55361 
55331 
55307 
55341 
55424 
55477 
55489 
55503 
55511 
55518 
55525 
55529 
55545 
55552 
55544 
55514 
55502 
55488 
55526 
55505 
55555 
55594 
55662 
55730 
55735 
55749 
55753 
55781 
55827 
55869 
55852 
55823 
55808 
55849 
55937 
55993 
55991 
55999 
56009 
55992 
55981 
56025 
56067 
56081 
56144 
56166 
56129 
56137 
56098 
56097 
56179 
56214 
56282 
56283 
56306 
56341 
56369 
56405 
56489 
56527 
56572 
56625 
56620 
56635 
56672 
56679 
56643 
56650 
56681 
56742 
56774 
56758 
56774 
56804 
56844 
56817 
56751 
56736 
56741 
56770 
56800 
56826 
56858 
56874 
56956 
57021 
56985 
56953 
56986 
56951 
56880 
56826 
56807 
56839 
56887 
56941 
56955 
56933 
56893 
56923 
56933 
56880 
56840 
56866 
56925 
56954 
56935 
56889 
56918 
56962 
56993 
57023 
57051 
57057 
57075 
57022 
56951 
56935 
56903 
56852 
56790 
56758 
56702 
56627 
56546 
56502 
56480 
56440 
56332 
56217 
56049 
55940 
55852 
55767 
55640 
55518 
55412 
55292 
55229 
55129 
55015 
54936 
54828 
54703 
54663 
54593 
54499 
54433 
54414 
54389 
54358 
54292 
54260 
54205 
54203 
54172 
54153 
54206 
54223 
54216 
54212 
54206 
54161 
54165 
54172 
54200 
54221 
54224 
54229 
54251 
54264 
54302 
54362 
54399 
54470 
54545 
54581 
54594 
54655 
54721 
54787 
54855 
54905 
54948 
54994 
55050 
55086 
55124 
55221 
55315 
55324 
55341 
55404 
55440 
55468 
55503 
55590 
55661 
55672 
55766 
55807 
55799 
55806 
55865 
55878 
55953 
56044 
56030 
55995 
56011 
56006 
56000 
56021 
56093 
56126 
56128 
56125 
56096 
56112 
56149 
56151 
56149 
56148 
56195 
56208 
56224 
56231 
56246 
56256 
56290 
56323 
56338 
56358 
56382 
56388 
56484 
56491 
56456 
56461 
56516 
56557 
56542 
56530 
56583 
56594 
56575 
56636 
56682 
56746 
56810 
56832 
56825 
56855 
56889 
56910 
56936 
57001 
57074 
57116 
57143 
57151 
57140 
57139 
57143 
57181 
57174 
57148 
57185 
57227 
57198 
57158 
57175 
57245 
57299 
57330 
57313 
57254 
57217 
57223 
57257 
57311 
57391 
57397 
57383 
57363 
57369 
57312 
57323 
57349 
57360 
57328 
57365 
57416 
57410 
57341 
57268 
57249 
57266 
57278 
57312 
57291 
57208 
57165 
57185 
57177 
57209 
57270 
57307 
57368 
57357 
57342 
57332 
57319 
57296 
57237 
57193 
57187 
57160 
57078 
56981 
56920 
56840 
56826 
56795 
56661 
56481 
56359 
56240 
56129 
56056 
55955 
55829 
55707 
55620 
55526 
55400 
55313 
55228 
55079 
54988 
54964 
54919 
54790 
54683 
54589 
54502 
54461 
54369 
54263 
54223 
54187 
54136 
54087 
54032 
53975 
53918 
53894 
53908 
53892 
53875 
53879 
53892 
53866 
53912 
53980 
53981 
53977 
53950 
53978 
54036 
54046 
54048 
54106 
54165 
54195 
54212 
54213 
54246 
54299 
54326 
54407 
54509 
54577 
54643 
54677 
54689 
54721 
54809 
54916 
54991 
55042 
55064 
55106 
55151 
55151 
55177 
55200 
55230 
55240 
55272 
55294 
55302 
55307 
55322 
55363 
55416 
55469 
55431 
55369 
55372 
55445 
55475 
55533 
55611 
55644 
55618 
55607 
55638 
55663 
55639 
55604 
55622 
55628 
55665 
55707 
55735 
55787 
55815 
55798 
55792 
55811 
55820 
55838 
55859 
55910 
55935 
55913 
55926 
55951 
55969 
55948 
55988 
56028 
56090 
56134 
56170 
56216 
56247 
56269 
56257 
56215 
56191 
56218 
56275 
56319 
56374 
56412 
56481 
56516 
56536 
56558 
56653 
56668 
56690 
56680 
56649 
56678 
56729 
56771 
56834 
56794 
56783 
56781 
56771 
56779 
56831 
56835 
56801 
56761 
56770 
56776 
56709 
56719 
56743 
56740 
56736 
56734 
56737 
56714 
56720 
56753 
56770 
56785 
56830 
56816 
56835 
56880 
56915 
56937 
56935 
56930 
56911 
56865 
56865 
56874 
56874 
56887 
56881 
56899 
56911 
56904 
56868 
56849 
56740 
56618 
56562 
56454 
56343 
56233 
56115 
56009 
55879 
55776 
55695 
55577 
55452 
55330 
55170 
55044 
54921 
54824 
54734 
54620 
54481 
54364 
54286 
54221 
54171 
54086 
54015 
53991 
53974 
53927 
53888 
53824 
53798 
53772 
53735 
53730 
53727 
53700 
53737 
53735 
53739 
53761 
53785 
53838 
53884 
53890 
53927 
53973 
54015 
54019 
54011 
54034 
54052 
54090 
54155 
54209 
54313 
54415 
54481 
54537 
54580 
54627 
54676 
54690 
54718 
54831 
54944 
55043 
55120 
55212 
55267 
55325 
55351 
55384 
55441 
55477 
55494 
55499 
55545 
55624 
55690 
55687 
55656 
55660 
55743 
55797 
55838 
55877 
55898 
55929 
55950 
55916 
55912 
55961 
56037 
56071 
56011 
55976 
55943 
55968 
56029 
56139 
56189 
56222 
56235 
56210 
56181 
56161 
56207 
56278 
56372 
56425 
56433 
56400 
56408 
56446 
56482 
56502 
56510 
56524 
56557 
56620 
56648 
56674 
56746 
56814 
56813 
56817 
56784 
56789 
56837 
56842 
56854 
56822 
56794 
56873 
56884 
56880 
56881 
56877 
56907 
56943 
56999 
57036 
57072 
57091 
57043 
57039 
57081 
57049 
57064 
57063 
57117 
57174 
57183 
57164 
57147 
57124 
57089 
57085 
57153 
57141 
57051 
57018 
57040 
57067 
57087 
57045 
57010 
56999 
56993 
56973 
56944 
56926 
56894 
56810 
56751 
56723 
56684 
56612 
56514 
56468 
56368 
56223 
56089 
55939 
55783 
55646 
55515 
55400 
55297 
55111 
54934 
54793 
54646 
54517 
54395 
54282 
54202 
54117 
54047 
53933 
53769 
53609 
53511 
53461 
53421 
53399 
53338 
53251 
53182 
53121 
53052 
52991 
52962 
52949 
52948 
52885 
52854 
52829 
52833 
52867 
52858 
52898 
52943 
52996 
53045 
53093 
53120 
53145 
53178 
53182 
53171 
53229 
53333 
53352 
53391 
53452 
53551 
53657 
53717 
53803 
53906 
53944 
53988 
54042 
54101 
54185 
54287 
54368 
54496 
54572 
54595 
54625 
54616 
54656 
54760 
54864 
54888 
54892 
54902 
54933 
54937 
54949 
55022 
55087 
55134 
55167 
55160 
55185 
55181 
55196 
55223 
55292 
55336 
55320 
55278 
55269 
55291 
55360 
55395 
55436 
55440 
55458 
55499 
55588 
55667 
55680 
55703 
55770 
55797 
55816 
55881 
55880 
55888 
55894 
55919 
56002 
56038 
56029 
56084 
56168 
56197 
56248 
56298 
56336 
56324 
56284 
56281 
56308 
56350 
56346 
56382 
56437 
56485 
56527 
56528 
56505 
56554 
56660 
56714 
56664 
56685 
56728 
56754 
56742 
56739 
56752 
56760 
56740 
56769 
56798 
56795 
56781 
56783 
56806 
56856 
56859 
56857 
56879 
56944 
56953 
56903 
56917 
56927 
56901 
56890 
56931 
57024 
57083 
57105 
57075 
56997 
56943 
56954 
56941 
56921 
56874 
56807 
56745 
56689 
56601 
56530 
56435 
56349 
56267 
56096 
55961 
55841 
55701 
55573 
55414 
55267 
55159 
55096 
54989 
54852 
54746 
54620 
54515 
54434 
54369 
54252 
54143 
54102 
54075 
54028 
53929 
53867 
53861 
53856 
53922 
53932 
53883 
53883 
53910 
53929 
53949 
53953 
53930 
53892 
53878 
53930 
53968 
53994 
53984 
54015 
54106 
54201 
54276 
54381 
54412 
54438 
54482 
54538 
54606 
54665 
54729 
54771 
54828 
54852 
54930 
55021 
55110 
55154 
55188 
55237 
55280 
55287 
55298 
55379 
55500 
55598 
55652 
55696 
55726 
55778 
55811 
55807 
55801 
55780 
55747 
55725 
55724 
55721 
55723 
55708 
55737 
55767 
55803 
55802 
55767 
55748 
55693 
55673 
55664 
55651 
55646 
55685 
55720 
55733 
55785 
55788 
55758 
55703 
55702 
55666 
55658 
55715 
55752 
55769 
55771 
55787 
55753 
55745 
55731 
55731 
55729 
55778 
55807 
55791 
55791 
55803 
55813 
55778 
55729 
55677 
55654 
55664 
55705 
55732 
55737 
55679 
55665 
55704 
55684 
55684 
55694 
55727 
55699 
55660 
55667 
55671 
55699 
55712 
55735 
55712 
55687 
55649 
55662 
55705 
55745 
55740 
55727 
55685 
55628 
55601 
55590 
55597 
55640 
55679 
55677 
55679 
55675 
55631 
55586 
55559 
55559 
55579 
55576 
55596 
55580 
55566 
55562 
55532 
55528 
55540 
55512 
55465 
55461 
55453 
55435 
55403 
55397 
55372 
55305 
55227 
55184 
55133 
55051 
54960 
54844 
54744 
54638 
54536 
54427 
54279 
54144 
53968 
53824 
53695 
53524 
53366 
53243 
53092 
52980 
52898 
52784 
52673 
52521 
52414 
52361 
52256 
52172 
52126 
52125 
52055 
52004 
51976 
51957 
51920 
51868 
51831 
51772 
51747 
51721 
51714 
51715 
51743 
51772 
51856 
51866 
51834 
51824 
51882 
51940 
51988 
52017 
52042 
52102 
52140 
52219 
52322 
52401 
52429 
52514 
52701 
52826 
52873 
52946 
53051 
53102 
53143 
53224 
53363 
53455 
53551 
53638 
53706 
53757 
53794 
53855 
53877 
53882 
53925 
54000 
54046 
54095 
54174 
54202 
54202 
54279 
54349 
54388 
54372 
54341 
54373 
54430 
54473 
54504 
54529 
54491 
54470 
54476 
54495 
54535 
54588 
54636 
54635 
54617 
54682 
54746 
54778 
54822 
54865 
54920 
54964 
54936 
54925 
54996 
55028 
55051 
55071 
55086 
55116 
55144 
55204 
55259 
55316 
55356 
55380 
55405 
55478 
55545 
55591 
55637 
55696 
55729 
55728 
55795 
55785 
55784 
55847 
55886 
55908 
55947 
55980 
56018 
56053 
56114 
56135 
56142 
56184 
56157 
56140 
56126 
56109 
56129 
56151 
56159 
56160 
56164 
56236 
56322 
56319 
56270 
56271 
56319 
56288 
56257 
56264 
56258 
56260 
56247 
56235 
56233 
56258 
56236 
56203 
56207 
56234 
56210 
56201 
56212 
56213 
56212 
56215 
56162 
56157 
56152 
56126 
56100 
56082 
56075 
56017 
55929 
55824 
55730 
55668 
55596 
55516 
55342 
55168 
55028 
54852 
54686 
54580 
54413 
54245 
54130 
54006 
53790 
53589 
53440 
53284 
53127 
52993 
52864 
52713 
52571 
52547 
52498 
52451 
52407 
52306 
52227 
52170 
52156 
52087 
52007 
51985 
51923 
51885 
51852 
51844 
51870 
51891 
51868 
51891 
51947 
51932 
51955 
52009 
52052 
52129 
52226 
52262 
52340 
52371 
52391 
52425 
52476 
52503 
52583 
52693 
52763 
52819 
52880 
52975 
53059 
53082 
53073 
53163 
53246 
53381 
53498 
53543 
53568 
53581 
53617 
53681 
53781 
53802 
53825 
53867 
53879 
53886 
53955 
54013 
54043 
54074 
54094 
54095 
54097 
54109 
54099 
54094 
54093 
54138 
54175 
54270 
54299 
54283 
54260 
54293 
54345 
54320 
54315 
54324 
54339 
54375 
54362 
54349 
54424 
54435 
54476 
54531 
54539 
54580 
54665 
54726 
54781 
54806 
54791 
54811 
54853 
54897 
54909 
54900 
54937 
54986 
55061 
55118 
55170 
55240 
55282 
55271 
55254 
55252 
55265 
55288 
55316 
55414 
55419 
55407 
55430 
55482 
55512 
55546 
55544 
55541 
55578 
55611 
55636 
55700 
55702 
55732 
55759 
55844 
55891 
55924 
55946 
55969 
56008 
55968 
55910 
55913 
55957 
56018 
56074 
56068 
56093 
56134 
56190 
56212 
56243 
56255 
56190 
56117 
56097 
56095 
56105 
56120 
56093 
56087 
56092 
56103 
56104 
56066 
56031 
56037 
56082 
56094 
56071 
56053 
56033 
56064 
56068 
56039 
56024 
56017 
55995 
56010 
56005 
55989 
56020 
55996 
56022 
56071 
56064 
56078 
56107 
56063 
56039 
55929 
55848 
55820 
55761 
55653 
55575 
55432 
55210 
55033 
54913 
54718 
54546 
54404 
54254 
54076 
53897 
53784 
53716 
53640 
53481 
53327 
53199 
53062 
52980 
52844 
52668 
52515 
52362 
52294 
52273 
52172 
52058 
52050 
52067 
52087 
52082 
52068 
52029 
52016 
51987 
51966 
51971 
51936 
51939 
51940 
51949 
51949 
51985 
52014 
52075 
52135 
52203 
52246 
52259 
52273 
52331 
52448 
52522 
52584 
52657 
52758 
52843 
52898 
52982 
53119 
53238 
53320 
53399 
53523 
53592 
53650 
53659 
53698 
53756 
53846 
53903 
53968 
53996 
54017 
54072 
54090 
54120 
54178 
54255 
54314 
54369 
54430 
54451 
54426 
54378 
54331 
54310 
54335 
54406 
54488 
54494 
54502 
54498 
54483 
54508 
54509 
54471 
54456 
54468 
54480 
54516 
54567 
54599 
54618 
54608 
54543 
54552 
54639 
54747 
54772 
54749 
54762 
54798 
54858 
54912 
54938 
54941 
54986 
55060 
55077 
55042 
55039 
55050 
55034 
55028 
55048 
55097 
55187 
55156 
55114 
55149 
55265 
55317 
55323 
55364 
55436 
55492 
55512 
55513 
55566 
55603 
55640 
55650 
55660 
55677 
55676 
55645 
55582 
55564 
55598 
55569 
55545 
55540 
55599 
55650 
55701 
55760 
55724 
55697 
55717 
55732 
55779 
55798 
55777 
55763 
55780 
55804 
55803 
55775 
55802 
55807 
55794 
55791 
55819 
55828 
55791 
55730 
55664 
55639 
55670 
55671 
55654 
55662 
55662 
55642 
55608 
55605 
55610 
55630 
55651 
55633 
55586 
55537 
55483 
55472 
55493 
55522 
55525 
55551 
55530 
55532 
55518 
55456 
55440 
55411 
55442 
55452 
55432 
55407 
55392 
55366 
55348 
55294 
55254 
55214 
55238 
55239 
55228 
55163 
55110 
54999 
54853 
54715 
54569 
54491 
54410 
54259 
54130 
53973 
53811 
53607 
53450 
53291 
53089 
52937 
52787 
52635 
52496 
52396 
52288 
52163 
52060 
51964 
51867 
51739 
51635 
51574 
51534 
51521 
51448 
51392 
51373 
51375 
51346 
51317 
51336 
51321 
51307 
51353 
51366 
51356 
51308 
51324 
51399 
51424 
51449 
51521 
51584 
51654 
51690 
51723 
51784 
51841 
51880 
51961 
52065 
52083 
52069 
52185 
52329 
52428 
52446 
52486 
52529 
52636 
52731 
52821 
52900 
52986 
53064 
53103 
53160 
53199 
53277 
53391 
53473 
53487 
53477 
53471 
53486 
53557 
53613 
53652 
53707 
53727 
53784 
53800 
53795 
53808 
53825 
53856 
53849 
53810 
53803 
53811 
53864 
53919 
53935 
53954 
53958 
53971 
54038 
54082 
54109 
54113 
54161 
54219 
54244 
54237 
54243 
54227 
54224 
54255 
54268 
54291 
54376 
54440 
54471 
54503 
54510 
54521 
54525 
54525 
54574 
54640 
54686 
54702 
54741 
54761 
54742 
54682 
54731 
54820 
54858 
54864 
54861 
54890 
54960 
55002 
55037 
55041 
55064 
55151 
55182 
55162 
55116 
55128 
55160 
55202 
55273 
55343 
55306 
55262 
55266 
55279 
55324 
55339 
55357 
55411 
55436 
55445 
55408 
55373 
55311 
55316 
55359 
55360 
55357 
55433 
55452 
55451 
55449 
55379 
55381 
55448 
55484 
55489 
55457 
55447 
55457 
55463 
55459 
55431 
55415 
55365 
55302 
55315 
55336 
55349 
55367 
55323 
55272 
55219 
55182 
55145 
55083 
55102 
55128 
55131 
55125 
55103 
55070 
55070 
55045 
54982 
54969 
54961 
54967 
55005 
54975 
54933 
54917 
54896 
54942 
54971 
54929 
54881 
54853 
54776 
54650 
54556 
54468 
54376 
54286 
54168 
54015 
53879 
53737 
53548 
53353 
53151 
52982 
52806 
52641 
52476 
52332 
52250 
52128 
52029 
51875 
51724 
51581 
51503 
51410 
51297 
51127 
50982 
50922 
50888 
50803 
50727 
50709 
50719 
50684 
50629 
50585 
50594 
50599 
50606 
50578 
50578 
50660 
50646 
50632 
50674 
50723 
50762 
50787 
50848 
50887 
50956 
51016 
51061 
51142 
51210 
51241 
51309 
51427 
51537 
51605 
51679 
51802 
51899 
51949 
52010 
52079 
52139 
52171 
52277 
52358 
52417 
52531 
52583 
52614 
52643 
52694 
52770 
52766 
52772 
52777 
52793 
52832 
52890 
52924 
52941 
52963 
52996 
53006 
53042 
53081 
53116 
53073 
53099 
53122 
53150 
53161 
53174 
53208 
53216 
53219 
53245 
53306 
53379 
53415 
53399 
53366 
53366 
53427 
53436 
53426 
53496 
53533 
53617 
53689 
53722 
53765 
53795 
53812 
53800 
53811 
53861 
53960 
54078 
54211 
54300 
54291 
54304 
54397 
54438 
54468 
54483 
54524 
54559 
54557 
54621 
54740 
54823 
54893 
54960 
54961 
54943 
55016 
55044 
55010 
55021 
55051 
55080 
55088 
55112 
55165 
55190 
55239 
55277 
55276 
55283 
55303 
55336 
55329 
55307 
55370 
55380 
55353 
55300 
55259 
55323 
55339 
55328 
55299 
55296 
55324 
55355 
55364 
55346 
55342 
55373 
55386 
55301 
55233 
55177 
55143 
55160 
55182 
55146 
55138 
55112 
55050 
55007 
54977 
55000 
55008 
55007 
54997 
54968 
54941 
54918 
54874 
54880 
54898 
54858 
54843 
54789 
54735 
54703 
54689 
54696 
54685 
54715 
54687 
54626 
54582 
54552 
54542 
54506 
54449 
54404 
54369 
54351 
54291 
54295 
54378 
54390 
54305 
54244 
54207 
54146 
54080 
54061 
54090 
54006 
53851 
53674 
53521 
53384 
53258 
53118 
52959 
52779 
52636 
52466 
52284 
52117 
51950 
51824 
51670 
51540 
51392 
51250 
51122 
51016 
50883 
50711 
50603 
50520 
50451 
50429 
50367 
50265 
50150 
50078 
50044 
50018 
50019 
50026 
50027 
49993 
49925 
49889 
49946 
50016 
50047 
50070 
50081 
50129 
50128 
50109 
50187 
50222 
50221 
50282 
50338 
50410 
50468 
50525 
50562 
50567 
50625 
50729 
50816 
50899 
50957 
51049 
51148 
51254 
51368 
51485 
51582 
51667 
51751 
51798 
51832 
51927 
51999 
52038 
52063 
52119 
52186 
52256 
52314 
52382 
52421 
52484 
52548 
52599 
52635 
52667 
52693 
52726 
52732 
52775 
52829 
52861 
52874 
52874 
52886 
52897 
52915 
52960 
52997 
53013 
53024 
53043 
53048 
53097 
53156 
53166 
53221 
53281 
53361 
53437 
53476 
53513 
53547 
53586 
53633 
53718 
53746 
53776 
53823 
53863 
53874 
53930 
54070 
54220 
54254 
54249 
54264 
54341 
54424 
54466 
54474 
54529 
54613 
54642 
54687 
54716 
54772 
54833 
54891 
54930 
54989 
55027 
55045 
55110 
55194 
55236 
55285 
55334 
55354 
55360 
55376 
55413 
55446 
55498 
55515 
55536 
55578 
55590 
55614 
55695 
55690 
55651 
55648 
55699 
55701 
55710 
55767 
55801 
55803 
55784 
55768 
55763 
55759 
55773 
55790 
55808 
55824 
55811 
55830 
55826 
55825 
55830 
55833 
55841 
55864 
55890 
55896 
55897 
55864 
55866 
55864 
55826 
55838 
55834 
55820 
55855 
55840 
55814 
55834 
55818 
55805 
55765 
55765 
55799 
55801 
55784 
55758 
55763 
55752 
55731 
55686 
55685 
55700 
55674 
55647 
55638 
55638 
55614 
55576 
55508 
55499 
55504 
55464 
55436 
55403 
55397 
55362 
55289 
55173 
55070 
54965 
54830 
54728 
54566 
54381 
54260 
54150 
53981 
53807 
53613 
53430 
53261 
53120 
52976 
52841 
52693 
52554 
52494 
52440 
52372 
52255 
52109 
52021 
51914 
51781 
51664 
51559 
51484 
51431 
51424 
51433 
51405 
51326 
51275 
51229 
51246 
51269 
51308 
51333 
51331 
51326 
51363 
51378 
51397 
51429 
51470 
51547 
51583 
51602 
51610 
51627 
51700 
51796 
51902 
51962 
51979 
52030 
52097 
52164 
52222 
52282 
52351 
52362 
52397 
52408 
52408 
52454 
52540 
52638 
52681 
52724 
52752 
52754 
52789 
52785 
52791 
52796 
52760 
52766 
52770 
52758 
52765 
52767 
52774 
52788 
52850 
52896 
52935 
52959 
52950 
52966 
52953 
52929 
52905 
52944 
52997 
53008 
53045 
53049 
53040 
53038 
53032 
53059 
53087 
53056 
53087 
53093 
53108 
53125 
53129 
53113 
53064 
53060 
53085 
53140 
53235 
53246 
53240 
53228 
53250 
53271 
53296 
53271 
53259 
53255 
53325 
53415 
53504 
53519 
53519 
53570 
53630 
53686 
53728 
53712 
53701 
53747 
53764 
53766 
53795 
53813 
53828 
53904 
53980 
54038 
54083 
54081 
54057 
54052 
54079 
54109 
54121 
54179 
54219 
54215 
54255 
54273 
54305 
54369 
54381 
54412 
54418 
54421 
54434 
54419 
54386 
54378 
54392 
54388 
54355 
54348 
54345 
54373 
54451 
54479 
54504 
54554 
54591 
54608 
54611 
54623 
54607 
54561 
54594 
54574 
54561 
54563 
54526 
54465 
54422 
54439 
54507 
54583 
54610 
54651 
54644 
54648 
54682 
54644 
54578 
54581 
54607 
54651 
54713 
54665 
54601 
54613 
54690 
54745 
54761 
54710 
54689 
54683 
54672 
54660 
54593 
54511 
54406 
54267 
54177 
54136 
54046 
53892 
53749 
53623 
53499 
53379 
53245 
53122 
52958 
52791 
52621 
52431 
52283 
52157 
52029 
51923 
51763 
51607 
51492 
51394 
51314 
51209 
51098 
51025 
50949 
50903 
50868 
50864 
50823 
50791 
50719 
50687 
50706 
50705 
50709 
50676 
50661 
50678 
50754 
50811 
50855 
50872 
50857 
50928 
50979 
51046 
51095 
51105 
51134 
51158 
51197 
51255 
51345 
51434 
51500 
51583 
51681 
51706 
51783 
51904 
51990 
52083 
52165 
52230 
52326 
52393 
52451 
52570 
52618 
52605 
52614 
52625 
52668 
52693 
52723 
52751 
52762 
52816 
52881 
52940 
53000 
53040 
52983 
53003 
52969 
52953 
52980 
53017 
52982 
53011 
53039 
53015 
52942 
52968 
53071 
53145 
53165 
53109 
53087 
53101 
53075 
53105 
53150 
53162 
53212 
53268 
53292 
53354 
53375 
53405 
53449 
53452 
53468 
53536 
53625 
53647 
53721 
53769 
53717 
53740 
53744 
53784 
53831 
53887 
53918 
53937 
53978 
54076 
54119 
54098 
54125 
54182 
54240 
54251 
54275 
54303 
54279 
54334 
54433 
54479 
54505 
54540 
54581 
54618 
54588 
54590 
54619 
54672 
54705 
54693 
54685 
54661 
54649 
54628 
54687 
54753 
54809 
54876 
54917 
54938 
54984 
55001 
54980 
54978 
55005 
54994 
54962 
55005 
55028 
55004 
54977 
54982 
54985 
54958 
54994 
55041 
55057 
55081 
55046 
55051 
55061 
55048 
55065 
55075 
55080 
55101 
55123 
55147 
55150 
55136 
55137 
55154 
55130 
55111 
55114 
55091 
55071 
55099 
55103 
55072 
55096 
55143 
55129 
55110 
55105 
55096 
55103 
55083 
55087 
55069 
55024 
55051 
55055 
55060 
55084 
55071 
55040 
54942 
54811 
54784 
54718 
54596 
54515 
54448 
54243 
54035 
53874 
53673 
53497 
53411 
53282 
53094 
52892 
52696 
52485 
52272 
52112 
51968 
51808 
51681 
51530 
51320 
51141 
50939 
50774 
50662 
50591 
50515 
50398 
50323 
50235 
50201 
50233 
50190 
50111 
50040 
50051 
50042 
49998 
49995 
49996 
49976 
49977 
50007 
50053 
50089 
50113 
50096 
50092 
50177 
50305 
50359 
50387 
50480 
50522 
50587 
50655 
50685 
50739 
50787 
50828 
50969 
51084 
51108 
51159 
51254 
51364 
51498 
51619 
51730 
51761 
51806 
51880 
51945 
51984 
52037 
52114 
52136 
52163 
52215 
52235 
52292 
52389 
52437 
52481 
52513 
52525 
52566 
52607 
52629 
52647 
52689 
52766 
52792 
52806 
52822 
52824 
52827 
52839 
52866 
52932 
52951 
52979 
53043 
53069 
53047 
53117 
53201 
53288 
53359 
53409 
53467 
53524 
53594 
53634 
53663 
53721 
53806 
53852 
53883 
53918 
53961 
54083 
54192 
54219 
54260 
54288 
54320 
54352 
54431 
54501 
54505 
54492 
54597 
54676 
54718 
54734 
54704 
54675 
54791 
54882 
54889 
54940 
55028 
55098 
55158 
55182 
55209 
55228 
55223 
55236 
55289 
55359 
55368 
55343 
55394 
55426 
55453 
55481 
55534 
55573 
55517 
55532 
55509 
55519 
55588 
55621 
55604 
55603 
55613 
55616 
55611 
55622 
55639 
55639 
55629 
55623 
55670 
55668 
55624 
55619 
55676 
55754 
55796 
55787 
55731 
55685 
55658 
55685 
55718 
55732 
55766 
55780 
55756 
55721 
55682 
55688 
55671 
55630 
55660 
55702 
55782 
55821 
55794 
55711 
55649 
55674 
55729 
55726 
55689 
55711 
55744 
55743 
55724 
55702 
55675 
55653 
55666 
55685 
55682 
55619 
55633 
55674 
55656 
55625 
55644 
55627 
55577 
55509 
55456 
55387 
55297 
55168 
55000 
54794 
54653 
54492 
54290 
54095 
53895 
53701 
53482 
53274 
53034 
52823 
52646 
52490 
52308 
52146 
51995 
51823 
51658 
51522 
51401 
51290 
51164 
51068 
50990 
50858 
50756 
50675 
50595 
50521 
50450 
50413 
50406 
50364 
50357 
50361 
50343 
50357 
50393 
50403 
50412 
50465 
50484 
50479 
50469 
50532 
50644 
50735 
50779 
50876 
50932 
50984 
51054 
51086 
51160 
51313 
51473 
51546 
51606 
51721 
51830 
51878 
51922 
51993 
52073 
52154 
52255 
52333 
52402 
52518 
52670 
52753 
52846 
52878 
52858 
52832 
52827 
52896 
52965 
52991 
53038 
53091 
53143 
53154 
53216 
53268 
53299 
53323 
53361 
53391 
53420 
53432 
53481 
53563 
53596 
53623 
53643 
53657 
53671 
53712 
53783 
53832 
53834 
53804 
53781 
53829 
53909 
54030 
54042 
54041 
54075 
54090 
54111 
54155 
54221 
54275 
54391 
54492 
54519 
54517 
54533 
54623 
54651 
54646 
54686 
54734 
54777 
54801 
54829 
54892 
54902 
54935 
54951 
54976 
55071 
55161 
55178 
55214 
55282 
55308 
55338 
55391 
55457 
55470 
55496 
55520 
55556 
55602 
55652 
55661 
55654 
55637 
55650 
55656 
55686 
55761 
55775 
55826 
55864 
55864 
55889 
55914 
55960 
55958 
55945 
55971 
55973 
55963 
55953 
55935 
55920 
55930 
55966 
56005 
56008 
55991 
56000 
56019 
56035 
56005 
55990 
55995 
55959 
55900 
55906 
55945 
55950 
55906 
55861 
55855 
55820 
55837 
55851 
55874 
55865 
55809 
55771 
55808 
55857 
55821 
55752 
55730 
55730 
55708 
55685 
55673 
55683 
55690 
55686 
55694 
55654 
55606 
55629 
55612 
55565 
55542 
55592 
55611 
55621 
55630 
55633 
55585 
55592 
55632 
55592 
55547 
55548 
55554 
55558 
55585 
55602 
55582 
55536 
55505 
55448 
55393 
55357 
55325 
55207 
55099 
55011 
54885 
54686 
54517 
54337 
54070 
53807 
53573 
53371 
53226 
53020 
52823 
52638 
52472 
52265 
52038 
51815 
51650 
51482 
51349 
51209 
51079 
50939 
50850 
50754 
50650 
50560 
50478 
50415 
50387 
50353 
50328 
50271 
50238 
50258 
50266 
50291 
50256 
50203 
50209 
50220 
50249 
50289 
50341 
50403 
50465 
50495 
50531 
50597 
50701 
50807 
50880 
50967 
51059 
51162 
51285 
51349 
51384 
51451 
51573 
51732 
51905 
52039 
52151 
52234 
52270 
52341 
52498 
52604 
52662 
52714 
52804 
52852 
52985 
53073 
53098 
53115 
53166 
53234 
53284 
53334 
53372 
53380 
53432 
53459 
53479 
53497 
53524 
53574 
53625 
53636 
53614 
53642 
53690 
53715 
53687 
53718 
53805 
53828 
53880 
53898 
53865 
53876 
53970 
54060 
54114 
54161 
54174 
54186 
54243 
54320 
54404 
54419 
54401 
54421 
54472 
54562 
54636 
54692 
54716 
54748 
54815 
54921 
54943 
54977 
55027 
55044 
55084 
55129 
55181 
55186 
55199 
55209 
55266 
55349 
55403 
55432 
55497 
55495 
55490 
55516 
55543 
55652 
55733 
55769 
55817 
55849 
55870 
55873 
55897 
55934 
55988 
56021 
56053 
56053 
56006 
56011 
56077 
56116 
56144 
56147 
56142 
56147 
56156 
56154 
56154 
56118 
56079 
56064 
56055 
56050 
56080 
56123 
56101 
56071 
56050 
56064 
56075 
56066 
56069 
56049 
56052 
56100 
56110 
56112 
56125 
56166 
56213 
56209 
56184 
56163 
56134 
56152 
56202 
56232 
56209 
56180 
56192 
56176 
56138 
56180 
56271 
56283 
56234 
56164 
56133 
56139 
56109 
56127 
56120 
56088 
56076 
56044 
56033 
56046 
56043 
56066 
56113 
56139 
56113 
56094 
56088 
56098 
56117 
56076 
56066 
56080 
56033 
56033 
56016 
56029 
55987 
55995 
56046 
56040 
56026 
55998 
55975 
55976 
56018 
56062 
56098 
56084 
56060 
56039 
56007 
56007 
56023 
56039 
56034 
56003 
55944 
55846 
55714 
55611 
55480 
55289 
55098 
54901 
54621 
54379 
54175 
53981 
53775 
53595 
53410 
53163 
52951 
52790 
52596 
52372 
52092 
51863 
51692 
51494 
51304 
51162 
51045 
50904 
50750 
50645 
50550 
50458 
50401 
50304 
50223 
50156 
50076 
50033 
50023 
50003 
49995 
49991 
50026 
50071 
50043 
50039 
50055 
50081 
50094 
50122 
50158 
50200 
50297 
50399 
50458 
50543 
50709 
50794 
50885 
50950 
51048 
51137 
51197 
51304 
51459 
51608 
51749 
51868 
51954 
52005 
52112 
52227 
52310 
52439 
52544 
52581 
52675 
52777 
52830 
52860 
52938 
53051 
53200 
53219 
53225 
53237 
53273 
53335 
53383 
53445 
53489 
53476 
53528 
53616 
53639 
53676 
53790 
53830 
53844 
53849 
53848 
53841 
53854 
53918 
53990 
54006 
54061 
54139 
54191 
54264 
54330 
54396 
54417 
54444 
54469 
54524 
54585 
54670 
54707 
54725 
54799 
54867 
54924 
54987 
55046 
55071 
55087 
55106 
55172 
55256 
55357 
55456 
55502 
55501 
55504 
55545 
55611 
55634 
55681 
55727 
55795 
55850 
55924 
55988 
56014 
56033 
56129 
56172 
56160 
56107 
56122 
56171 
56222 
56337 
56404 
56453 
56509 
56502 
56489 
56479 
56497 
56550 
56595 
56662 
56760 
56794 
56767 
56724 
56685 
56698 
56779 
56823 
56821 
56800 
56783 
56787 
56779 
56810 
56808 
56875 
56889 
56842 
56790 
56759 
56742 
56776 
56827 
56788 
56738 
56733 
56767 
56769 
56760 
56800 
56828 
56782 
56814 
56817 
56804 
56792 
56767 
56737 
56717 
56748 
56769 
56757 
56729 
56727 
56711 
56708 
56669 
56639 
56652 
56644 
56637 
56664 
56714 
56729 
56697 
56698 
56644 
56625 
56616 
56557 
56546 
56612 
56621 
56561 
56536 
56544 
56584 
56606 
56614 
56586 
56598 
56627 
56649 
56636 
56575 
56507 
56474 
56453 
56433 
56372 
56335 
56324 
56326 
56307 
56277 
56243 
56220 
56229 
56225 
56190 
56181 
56192 
56212 
56213 
56160 
56107 
56094 
56056 
56049 
56077 
56042 
55970 
55903 
55893 
55849 
55785 
55729 
55673 
55546 
55360 
55211 
55047 
54840 
54659 
54457 
54268 
54047 
53831 
53576 
53331 
53093 
52902 
52683 
52436 
52228 
52034 
51854 
51652 
51474 
51314 
51157 
51005 
50832 
50731 
50689 
50608 
50534 
50421 
50309 
50230 
50165 
50092 
50072 
50046 
49974 
49967 
49971 
49980 
49980 
50018 
50102 
50162 
50162 
50104 
50089 
50116 
50159 
50201 
50249 
50291 
50364 
50465 
50512 
50545 
50636 
50752 
50885 
50958 
50992 
51132 
51288 
51381 
51465 
51555 
51634 
51724 
51865 
51978 
52114 
52209 
52243 
52314 
52428 
52518 
52566 
52606 
52688 
52750 
52786 
52846 
52917 
52958 
52974 
52952 
52958 
53004 
53086 
53155 
53151 
53137 
53211 
53213 
53203 
53246 
53287 
53364 
53420 
53457 
53475 
53513 
53519 
53519 
53607 
53702 
53785 
53839 
53887 
53901 
53950 
54000 
54068 
54123 
54199 
54238 
54318 
54436 
54472 
54461 
54422 
54460 
54613 
54774 
54809 
54837 
54892 
54905 
54968 
55031 
55084 
55120 
55171 
55279 
55336 
55384 
55434 
55467 
55515 
55575 
55627 
55616 
55636 
55701 
55712 
55741 
55789 
55897 
56021 
56083 
56144 
56173 
56174 
56160 
56181 
56242 
56303 
56298 
56336 
56389 
56387 
56404 
56420 
56440 
56491 
56555 
56587 
56573 
56560 
56601 
56620 
56586 
56574 
56580 
56633 
56730 
56797 
56744 
56740 
56723 
56657 
56673 
56702 
56667 
56646 
56599 
56638 
56707 
56689 
56697 
56695 
56648 
56610 
56580 
56539 
56521 
56507 
56512 
56533 
56524 
56504 
56485 
56479 
56476 
56453 
56419 
56441 
56484 
56488 
56440 
56442 
56463 
56444 
56469 
56473 
56426 
56368 
56371 
56457 
56503 
56513 
56504 
56499 
56490 
56436 
56453 
56477 
56520 
56568 
56604 
56645 
56656 
56648 
56566 
56530 
56513 
56490 
56530 
56611 
56666 
56681 
56673 
56657 
56695 
56778 
56830 
56827 
56844 
56928 
56987 
57025 
57077 
57143 
57173 
57215 
57246 
57234 
57270 
57267 
57244 
57270 
57304 
57304 
57365 
57419 
57482 
57530 
57516 
57495 
57440 
57388 
57348 
57287 
57190 
57015 
56885 
56862 
56733 
56484 
56255 
56022 
55793 
55632 
55485 
55284 
55071 
54857 
54683 
54483 
54275 
54096 
53911 
53777 
53652 
53509 
53345 
53180 
53108 
53044 
52967 
52887 
52786 
52728 
52673 
52662 
52682 
52711 
52695 
52673 
52684 
52673 
52633 
52610 
52634 
52612 
52531 
52516 
52525 
52547 
52578 
52586 
52560 
52524 
52514 
52523 
52517 
52484 
52462 
52506 
52512 
52505 
52549 
52564 
52570 
52608 
52610 
52621 
52687 
52731 
52762 
52800 
52860 
52864 
52817 
52808 
52824 
52817 
52758 
52671 
52652 
52703 
52667 
52622 
52575 
52504 
52452 
52446 
52421 
52329 
52249 
52212 
52189 
52188 
52221 
52192 
52179 
52244 
52366 
52476 
52561 
52681 
52767 
52839 
52946 
53062 
53190 
53409 
53570 
53753 
53929 
54124 
54302 
54520 
54729 
54917 
55119 
55284 
55458 
55657 
55885 
56060 
56163 
56346 
56549 
56734 
56883 
56976 
57120 
57246 
57378 
57483 
57559 
57597 
57622 
57669 
57778 
57840 
57805 
57796 
57836 
57840 
57781 
57720 
57666 
57642 
57604 
57551 
57490 
57378 
57216 
57120 
57018 
56910 
56779 
56695 
56691 
56662 
56604 
56500 
56458 
56452 
56440 
56403 
56366 
56290 
56258 
56231 
56238 
56243 
56229 
56201 
56160 
56114 
56105 
56089 
56057 
56048 
56024 
55964 
55925 
55910 
55936 
55944 
55967 
55998 
55947 
55902 
55862 
55856 
55838 
55844 
55847 
55729 
55626 
55578 
55578 
55613 
55675 
55711 
55663 
55602 
55600 
55601 
55530 
55424 
55398 
55354 
55285 
55221 
55161 
55091 
55012 
54968 
54925 
54886 
54852 
54784 
54699 
54666 
54654 
54546 
54490 
54508 
54487 
54470 
54504 
54538 
54515 
54510 
54515 
54459 
54423 
54398 
54339 
54278 
54249 
54177 
54099 
54021 
53939 
53867 
53798 
53737 
53657 
53553 
53551 
53550 
53530 
53539 
53448 
53379 
53329 
53261 
53243 
53202 
53169 
53149 
53152 
53110 
53061 
53053 
53059 
53037 
52979 
52929 
52876 
52808 
52714 
52582 
52451 
52299 
52071 
51867 
51686 
51514 
51315 
51102 
50883 
50638 
50397 
50174 
49921 
49602 
49372 
49182 
49008 
48824 
48615 
48416 
48196 
47980 
47811 
47691 
47557 
47416 
47271 
47133 
46980 
46877 
46766 
46673 
46590 
46483 
46391 
46312 
46222 
46185 
46146 
46115 
46050 
46002 
46020 
46015 
45991 
45953 
45894 
45860 
45838 
45866 
45906 
46003 
46074 
46121 
46170 
46162 
46209 
46248 
46297 
46362 
46434 
46540 
46627 
46645 
46672 
46804 
46924 
46998 
47074 
47132 
47154 
47259 
47341 
47410 
47479 
47522 
47616 
47695 
47785 
47879 
47913 
47960 
48049 
48121 
48172 
48217 
48243 
48309 
48418 
48494 
48510 
48542 
48628 
48683 
48687 
48713 
48775 
48846 
48929 
49030 
49126 
49254 
49378 
49502 
49581 
49607 
49655 
49739 
49830 
49919 
49982 
50085 
50151 
50233 
50303 
50408 
50543 
50647 
50735 
50801 
50895 
51046 
51155 
51173 
51220 
51267 
51353 
51479 
51642 
51680 
51731 
51868 
51974 
52047 
52202 
52367 
52463 
52492 
52527 
52598 
52725 
52831 
52877 
52939 
53019 
53079 
53159 
53223 
53255 
53286 
53373 
53438 
53520 
53575 
53683 
53770 
53779 
53801 
53831 
53857 
53878 
53933 
53969 
53977 
54014 
54039 
54079 
54184 
54234 
54197 
54209 
54307 
54417 
54481 
54486 
54468 
54479 
54524 
54568 
54604 
54603 
54616 
54631 
54618 
54641 
54693 
54705 
54719 
54738 
54807 
54875 
54910 
54937 
54946 
54948 
54936 
54977 
55030 
55057 
55067 
55040 
55031 
55040 
55057 
55110 
55180 
55197 
55234 
55244 
55219 
55187 
55140 
55170 
55250 
55287 
55293 
55310 
55305 
55325 
55366 
55391 
55416 
55414 
55467 
55495 
55531 
55518 
55530 
55516 
55484 
55500 
55505 
55451 
55461 
55535 
55572 
55556 
55561 
55571 
55534 
55537 
55562 
55567 
55607 
55603 
55581 
55547 
55521 
55510 
55535 
55585 
55598 
55589 
55629 
55664 
55631 
55591 
55572 
55561 
55549 
55549 
55578 
55584 
55598 
55612 
55596 
55559 
55505 
55471 
55431 
55351 
55178 
54967 
54798 
54659 
54486 
54318 
54136 
53986 
53830 
53690 
53518 
53361 
53194 
53061 
52918 
52791 
52702 
52599 
52478 
52335 
52223 
52130 
52037 
51914 
51835 
51767 
51676 
51628 
51553 
51461 
51408 
51397 
51369 
51357 
51323 
51279 
51301 
51338 
51329 
51339 
51352 
51335 
51290 
51283 
51300 
51281 
51259 
51334 
51378 
51411 
51460 
51510 
51543 
51549 
51684 
51800 
51827 
51854 
51869 
51890 
51898 
51880 
51905 
51936 
51990 
52043 
52129 
52206 
52248 
52252 
52246 
52265 
52301 
52364 
52434 
52440 
52408 
52358 
52379 
52437 
52498 
52534 
52594 
52649 
52670 
52700 
52749 
52786 
52778 
52821 
52857 
52851 
52836 
52808 
52868 
52971 
53002 
53008 
53093 
53101 
53099 
53142 
53203 
53286 
53296 
53319 
53325 
53392 
53450 
53469 
53468 
53508 
53523 
53575 
53595 
53580 
53637 
53717 
53740 
53780 
53865 
53974 
54057 
54138 
54170 
54200 
54227 
54262 
54290 
54298 
54335 
54401 
54439 
54494 
54517 
54499 
54525 
54528 
54537 
54534 
54534 
54533 
54520 
54510 
54557 
54565 
54562 
54628 
54678 
54754 
54765 
54736 
54737 
54794 
54809 
54836 
54848 
54824 
54838 
54885 
54953 
54986 
54969 
54910 
54884 
54887 
54965 
54961 
54900 
54911 
54981 
55034 
55007 
55039 
55097 
55131 
55125 
55110 
55103 
55085 
55124 
55165 
55160 
55156 
55179 
55176 
55186 
55180 
55116 
55093 
55110 
55170 
55169 
55139 
55142 
55125 
55080 
55100 
55127 
55107 
55097 
55088 
55043 
55020 
55001 
55053 
55154 
55162 
55126 
55121 
55128 
55108 
55102 
55085 
55079 
55045 
55031 
55077 
55045 
54961 
54916 
54872 
54813 
54873 
54923 
54925 
54847 
54800 
54793 
54810 
54790 
54788 
54729 
54655 
54634 
54602 
54584 
54555 
54593 
54567 
54478 
54428 
54390 
54317 
54264 
54248 
54210 
54147 
54106 
54071 
54088 
54019 
53897 
53848 
53778 
53694 
53629 
53571 
53547 
53508 
53421 
53324 
53266 
53187 
53133 
53071 
52992 
52878 
52796 
52699 
52572 
52466 
52367 
52272 
52203 
52136 
52057 
51964 
51944 
51911 
51864 
51771 
51675 
51611 
51563 
51468 
51399 
51307 
51250 
51245 
51213 
51212 
51225 
51208 
51208 
51144 
51054 
51040 
51053 
51056 
51040 
51039 
51063 
51101 
51167 
51153 
51130 
51059 
51071 
51168 
51200 
51197 
51178 
51231 
51249 
51319 
51349 
51370 
51373 
51441 
51559 
51663 
51701 
51687 
51659 
51688 
51714 
51756 
51787 
51819 
51868 
51959 
52012 
52038 
52057 
52108 
52167 
52255 
52288 
52308 
52352 
52383 
52354 
52376 
52434 
52577 
52692 
52753 
52813 
52866 
52874 
52871 
52897 
52930 
52960 
53025 
53035 
53047 
53126 
53130 
53192 
53217 
53240 
53280 
53308 
53314 
53345 
53375 
53431 
53466 
53503 
53563 
53595 
53617 
53639 
53756 
53856 
53892 
53878 
53832 
53837 
53911 
54007 
54007 
54037 
54077 
54121 
54227 
54265 
54252 
54296 
54308 
54248 
54215 
54253 
54301 
54307 
54327 
54334 
54375 
54397 
54356 
54325 
54371 
54414 
54437 
54471 
54477 
54477 
54465 
54497 
54561 
54570 
54570 
54528 
54492 
54489 
54479 
54466 
54468 
54447 
54420 
54421 
54421 
54412 
54432 
54453 
54446 
54415 
54409 
54395 
54363 
54320 
54230 
54191 
54238 
54239 
54231 
54202 
54236 
54238 
54210 
54190 
54161 
54130 
54142 
54139 
54105 
54100 
54075 
54060 
54067 
54039 
53997 
53949 
53886 
53900 
53878 
53870 
53871 
53852 
53864 
53926 
53927 
53900 
53905 
53896 
53902 
53915 
53908 
53936 
53945 
53902 
53833 
53842 
53901 
53952 
53939 
53944 
53950 
53920 
53954 
53958 
53979 
53980 
53928 
53891 
53884 
53901 
53957 
53986 
53999 
54009 
54063 
54047 
54045 
54061 
54133 
54231 
54217 
54177 
54161 
54174 
54134 
54085 
54087 
54096 
54180 
54194 
54168 
54202 
54273 
54264 
54241 
54231 
54156 
54115 
54127 
54168 
54186 
54126 
54079 
54012 
53984 
53940 
53862 
53836 
53876 
53881 
53811 
53763 
53712 
53636 
53608 
53622 
53590 
53537 
53480 
53407 
53331 
53249 
53129 
53080 
53050 
53014 
52997 
52948 
52923 
52830 
52759 
52750 
52729 
52690 
52640 
52621 
52609 
52587 
52539 
52536 
52523 
52495 
52416 
52312 
52287 
52309 
52310 
52290 
52293 
52280 
52227 
52219 
52229 
52220 
52217 
52213 
52197 
52164 
52171 
52211 
52205 
52214 
52233 
52269 
52327 
52342 
52344 
52394 
52420 
52474 
52477 
52447 
52516 
52535 
52533 
52541 
52529 
52560 
52578 
52610 
52695 
52745 
52736 
52735 
52756 
52795 
52824 
52855 
52881 
52904 
52883 
52874 
52904 
52961 
53016 
53068 
53093 
53104 
53096 
53110 
53131 
53153 
53199 
53224 
53291 
53364 
53368 
53386 
53413 
53412 
53410 
53402 
53459 
53512 
53559 
53625 
53660 
53698 
53726 
53769 
53818 
53833 
53842 
53825 
53822 
53852 
53887 
53875 
53895 
53958 
54010 
54034 
54077 
54126 
54206 
54255 
54232 
54218 
54242 
54259 
54291 
54341 
54366 
54393 
54440 
54489 
54525 
54518 
54554 
54553 
54543 
54563 
54605 
54622 
54657 
54726 
54728 
54774 
54821 
54815 
54841 
54891 
54921 
55013 
55062 
55093 
55135 
55170 
55211 
55253 
55273 
55238 
55230 
55255 
55308 
55360 
55429 
55499 
55511 
55539 
55601 
55637 
55605 
55559 
55550 
55512 
55468 
55494 
55530 
55615 
55650 
55634 
55665 
55693 
55712 
55754 
55801 
55846 
55844 
55861 
55890 
55876 
55873 
55891 
55945 
55997 
56008 
55987 
55950 
55976 
56005 
56055 
56030 
55987 
56026 
56061 
56067 
56091 
56113 
56130 
56177 
56228 
56297 
56312 
56295 
56320 
56351 
56336 
56329 
56342 
56337 
56359 
56384 
56389 
56376 
56338 
56320 
56352 
56347 
56317 
56313 
56334 
56297 
56289 
56287 
56259 
56232 
56231 
56228 
56266 
56334 
56314 
56250 
56243 
56268 
56238 
56165 
56140 
56130 
56121 
56122 
56135 
56160 
56136 
56107 
56153 
56167 
56109 
56036 
56041 
56044 
56019 
56009 
55965 
55944 
55960 
55959 
55943 
55909 
55887 
55878 
55853 
55818 
55757 
55730 
55678 
55645 
55706 
55723 
55655 
55640 
55643 
55654 
55577 
55568 
55622 
55616 
55576 
55571 
55553 
55479 
55456 
55426 
55416 
55406 
55377 
55391 
55394 
55368 
55354 
55296 
55233 
55197 
55188 
55130 
55095 
55045 
55022 
55026 
55009 
54949 
54963 
54964 
54924 
54894 
54811 
54774 
54770 
54724 
54679 
54642 
54624 
54610 
54584 
54582 
54555 
54539 
54529 
54496 
54510 
54481 
54448 
54442 
54418 
54371 
54365 
54383 
54345 
54362 
54346 
54322 
54304 
54295 
54267 
54241 
54250 
54276 
54289 
54228 
54222 
54205 
54179 
54139 
54108 
54097 
54071 
54088 
54079 
54066 
54065 
54040 
54035 
54077 
54111 
54110 
54065 
54097 
54095 
54061 
54023 
53993 
54017 
54024 
54022 
54012 
54040 
54044 
54033 
54060 
54010 
53961 
53954 
53932 
53953 
54027 
54034 
53993 
54037 
54094 
54125 
54054 
54026 
54037 
54031 
53987 
54004 
54026 
54017 
54051 
54079 
54080 
54031 
54015 
53989 
54005 
54006 
54037 
54065 
54025 
54012 
53999 
54001 
54044 
54022 
53951 
53913 
53923 
53942 
53939 
53934 
53933 
53946 
53980 
54030 
54064 
54124 
54104 
54080 
54085 
54101 
54119 
54111 
54068 
54023 
54020 
54037 
54058 
54079 
54088 
54043 
54006 
53970 
53938 
53930 
53948 
53969 
53983 
54007 
54070 
54060 
53975 
53901 
53890 
53933 
54019 
54010 
53972 
53960 
53957 
53900 
53863 
53899 
53928 
53927 
53970 
54019 
53976 
53949 
53904 
53881 
53896 
53928 
53961 
53940 
53920 
53911 
53898 
53909 
53904 
53918 
53950 
53918 
53863 
53890 
53898 
53952 
53942 
53904 
53853 
53851 
53884 
53882 
53863 
53878 
53947 
54014 
54037 
54001 
54030 
54036 
54020 
54039 
54030 
54041 
54056 
54029 
54011 
54003 
54043 
54033 
53980 
53967 
54002 
54029 
54025 
54009 
54007 
54042 
54080 
54045 
53979 
53994 
53994 
53949 
53957 
53984 
53988 
54010 
54030 
54017 
54057 
54073 
54091 
54073 
54068 
54074 
54025 
54007 
54009 
54006 
53986 
53981 
54025 
54068 
54110 
54126 
54089 
54041 
54015 
54003 
54005 
53988 
53979 
54017 
54080 
54117 
54137 
54154 
54162 
54193 
54197 
54153 
54109 
54082 
54056 
54059 
54101 
54122 
54095 
54079 
54085 
54072 
54037 
54118 
54210 
54210 
54178 
54147 
54126 
54125 
54081 
54072 
54098 
54096 
54086 
54067 
54052 
54047 
54048 
54079 
54102 
54075 
54113 
54121 
54114 
54105 
54079 
54114 
54076 
54009 
54001 
53988 
54032 
54154 
54221 
54222 
54250 
54238 
54186 
54109 
54107 
54126 
54122 
54131 
54090 
54086 
54102 
54074 
54054 
54116 
54169 
54151 
54129 
54130 
54117 
54115 
54100 
54073 
53984 
53967 
53981 
53976 
54009 
54011 
54053 
54112 
54105 
54118 
54131 
54127 
54122 
54094 
54083 
54089 
54092 
54149 
54142 
54119 
54111 
54077 
54058 
54012 
54005 
54012 
54031 
54038 
54046 
54033 
54011 
54001 
54001 
54031 
54075 
54066 
54047 
54037 
54022 
54032 
54028 
54046 
54057 
54054 
54097 
54124 
54133 
54143 
54185 
54234 
54261 
54273 
54255 
54221 
54193 
54230 
54221 
54218 
54239 
54263 
54238 
54263 
54273 
54256 
54206 
54201 
54213 
54216 
54266 
54260 
54253 
54187 
54125 
54158 
54212 
54232 
54210 
54240 
54209 
54228 
54259 
54255 
54233 
54179 
54135 
54133 
54133 
54114 
54097 
54054 
54035 
54010 
54037 
54062 
54057 
54068 
54090 
54077 
54069 
54056 
54038 
54019 
54005 
53986 
53959 
53934 
53968 
53995 
53959 
53960 
53976 
53935 
53909 
53909 
53880 
53892 
53897 
53899 
53890 
53905 
53917 
53882 
53868 
53901 
53901 
53879 
53878 
53876 
53892 
53889 
53920 
53896 
53876 
53833 
53856 
53933 
53970 
53966 
53983 
53977 
54007 
53985 
53984 
54000 
53989 
53955 
53944 
53975 
53972 
53973 
54016 
54006 
53948 
53906 
53905 
53935 
53965 
53988 
54034 
54076 
54080 
54097 
54087 
54018 
53968 
53919 
53906 
53900 
53912 
53960 
53978 
53988 
54007 
54012 
53996 
53966 
53972 
53934 
53938 
53965 
53935 
53986 
53995 
53945 
53898 
53844 
53863 
53928 
54060 
54115 
54049 
53982 
53974 
53955 
53965 
54007 
54037 
54085 
54131 
54118 
54059 
54045 
54050 
54034 
54012 
54011 
54021 
54034 
54021 
53984 
53910 
53875 
53916 
53941 
53959 
54006 
54110 
54179 
54143 
54126 
54157 
54159 
54153 
54150 
54118 
54095 
54061 
54026 
54004 
54041 
54060 
54053 
54042 
54061 
54065 
54064 
54099 
54114 
54052 
54011 
54065 
54044 
54023 
53999 
54008 
54029 
54021 
54044 
54025 
54037 
54087 
54076 
54044 
54075 
54059 
53972 
53978 
54015 
54029 
54040 
53968 
53932 
53965 
53972 
53993 
54046 
54056 
54025 
54020 
54071 
54085 
54049 
54070 
54090 
54089 
54074 
54083 
54055 
54025 
54019 
54018 
53995 
53992 
53970 
53931 
53942 
53931 
53883 
53884 
53883 
53901 
53908 
53901 
53885 
53860 
53822 
53803 
53839 
53867 
53866 
53858 
53863 
53881 
53918 
53892 
53864 
53880 
53886 
53887 
53868 
53871 
53855 
53794 
53748 
53745 
53732 
53773 
53786 
53765 
53793 
53770 
53790 
53810 
53818 
53835 
53863 
53903 
53893 
53861 
53861 
53849 
53860 
53905 
53905 
53874 
53845 
53822 
53837 
53857 
53842 
53849 
53876 
53897 
53924 
53906 
53846 
53847 
53873 
53919 
53907 
53894 
53902 
53875 
53877 
53885 
53884 
53884 
53839 
53849 
53906 
53920 
53920 
53858 
53793 
53814 
53830 
53807 
53769 
53723 
53716 
53789 
53831 
53824 
53782 
53792 
53819 
53778 
53754 
53751 
53749 
53747 
53722 
53690 
53692 
53708 
53710 
53748 
53712 
53741 
53806 
53862 
53838 
53820 
53795 
53791 
53827 
53810 
53781 
53779 
53815 
53876 
53866 
53826 
53815 
53800 
53828 
53817 
53807 
53835 
53862 
53889 
53910 
53965 
53968 
53953 
53934 
53903 
53871 
53833 
53839 
53876 
53887 
53876 
53898 
53913 
53901 
53927 
53928 
53872 
53839 
53855 
53858 
53806 
53805 
53799 
53775 
53780 
53777 
53790 
53765 
53715 
53669 
53649 
53721 
53768 
53738 
53746 
53792 
53755 
53751 
53838 
53839 
53778 
53719 
53716 
53706 
53736 
53764 
53779 
53820 
53814 
53757 
53745 
53736 
53732 
53732 
53716 
53701 
53701 
53704 
53739 
53771 
53785 
53777 
53737 
53707 
53645 
53656 
53667 
53640 
53669 
53712 
53746 
53765 
53747 
53715 
53722 
53729 
53688 
53622 
53659 
53688 
53681 
53679 
53682 
53645 
53621 
53649 
53676 
53645 
53688 
53810 
53848 
53822 
53792 
53786 
53759 
53734 
53685 
53610 
53589 
53606 
53574 
53526 
53536 
53577 
53525 
53518 
53533 
53565 
53573 
53600 
53616 
53628 
53644 
53613 
53611 
53615 
53583 
53561 
53595 
53651 
53659 
53581 
53564 
53598 
53616 
53632 
53659 
53646 
53604 
53604 
53622 
53587 
53564 
53570 
53559 
53579 
53590 
53600 
53640 
53611 
53594 
53541 
53538 
53552 
53520 
53531 
53525 
53503 
53538 
53569 
53524 
53500 
53554 
53584 
53611 
53607 
53600 
53588 
53595 
53584 
53601 
53595 
53573 
53574 
53616 
53645 
53642 
53642 
53629 
53647 
53635 
53625 
53611 
53579 
53560 
53597 
53626 
53556 
53586 
53656 
53675 
53705 
53765 
53784 
53717 
53668 
53692 
53662 
53643 
53638 
53635 
53620 
53605 
53608 
53612 
53671 
53735 
53771 
53779 
53766 
53756 
53746 
53788 
53743 
53688 
53601 
53579 
53630 
53644 
53612 
53605 
53657 
53666 
53669 
53674 
53688 
53676 
53672 
53681 
53713 
53738 
53744 
53732 
53734 
53703 
53659 
53687 
53659 
53588 
53620 
53673 
53669 
53683 
53710 
53656 
53612 
53603 
53656 
53669 
53673 
53689 
53690 
53640 
53673 
53703 
53678 
53645 
53604 
53660 
53702 
53776 
53796 
53728 
53662 
53610 
53594 
53582 
53601 
53608 
53570 
53545 
53545 
53543 
53587 
53619 
53607 
53606 
53593 
53587 
53665 
53725 
53759 
53722 
53680 
53664 
53664 
53669 
53660 
53641 
53621 
53599 
53582 
53567 
53587 
53579 
53592 
53576 
53540 
53561 
53582 
53645 
53642 
53627 
53617 
53623 
53670 
53702 
53653 
53642 
53589 
53574 
53564 
53574 
53603 
53593 
53583 
53628 
53618 
53588 
53627 
53683 
53692 
53678 
53656 
53613 
53612 
53585 
53590 
53613 
53578 
53575 
53575 
53547 
53531 
53553 
53602 
53616 
53644 
53629 
53622 
53627 
53696 
53718 
53731 
53724 
53649 
53609 
53593 
53545 
53520 
53533 
53552 
53546 
53574 
53550 
53533 
53535 
53540 
53566 
53553 
53604 
53638 
53642 
53672 
53689 
53680 
53683 
53607 
53548 
53585 
53634 
53647 
53641 
53609 
53585 
53607 
53611 
53609 
53612 
53624 
53640 
53670 
53741 
53778 
53779 
53755 
53757 
53729 
53691 
53695 
53748 
53810 
53864 
53847 
53811 
53799 
53763 
53761 
53786 
53829 
53853 
53845 
53790 
53722 
53732 
53754 
53724 
53695 
53690 
53718 
53701 
53664 
53654 
53632 
53647 
53694 
53737 
53750 
53711 
53707 
53718 
53713 
53717 
53683 
53640 
53623 
53658 
53683 
53738 
53786 
53789 
53800 
53789 
53727 
53725 
53739 
53776 
53814 
53785 
53738 
53739 
53743 
53739 
53763 
53721 
53704 
53734 
53727 
53725 
53714 
53710 
53688 
53721 
53757 
53704 
53689 
53659 
53603 
53633 
53661 
53645 
53684 
53654 
53635 
53645 
53674 
53659 
53627 
53609 
53571 
53543 
53602 
53670 
53722 
53745 
53729 
53696 
53680 
53682 
53616 
53614 
53623 
53632 
53663 
53677 
53670 
53684 
53712 
53743 
53743 
53699 
53685 
53734 
53755 
53770 
53746 
53752 
53744 
53724 
53745 
53785 
53736 
53735 
53717 
53704 
53713 
53744 
53732 
53740 
53766 
53798 
53819 
53803 
53825 
53823 
53807 
53802 
53789 
53765 
53733 
53712 
53732 
53753 
53765 
53785 
53770 
53728 
53704 
53667 
53676 
53658 
53644 
53648 
53669 
53676 
53682 
53691 
53685 
53688 
53705 
53705 
53694 
53726 
53733 
53717 
53706 
53765 
53794 
53807 
53810 
53795 
53773 
53717 
53697 
53658 
53664 
53682 
53700 
53692 
53655 
53603 
53591 
53662 
53729 
53776 
53748 
53656 
53604 
53664 
53677 
53636 
53632 
53621 
53615 
53607 
53591 
53581 
53551 
53554 
53610 
53603 
53552 
53553 
53549 
53554 
53516 
53507 
53521 
53549 
53620 
53655 
53581 
53535 
53523 
53560 
53594 
53673 
53700 
53689 
53661 
53643 
53601 
53541 
53512 
53522 
53576 
53631 
53624 
53619 
53579 
53541 
53561 
53608 
53613 
53599 
53552 
53575 
53635 
53615 
53611 
53628 
53603 
53591 
53558 
53550 
53530 
53503 
53545 
53587 
53610 
53589 
53586 
53589 
53565 
53539 
53562 
53586 
53592 
53601 
53569 
53561 
53536 
53566 
53614 
53570 
53510 
53516 
53532 
53527 
53547 
53557 
53555 
53590 
53617 
53611 
53641 
53683 
53721 
53687 
53655 
53665 
53664 
53646 
53677 
53667 
53600 
53583 
53576 
53557 
53549 
53603 
53675 
53708 
53695 
53662 
53638 
53678 
53689 
53658 
53631 
53658 
53700 
53697 
53625 
53612 
53592 
53588 
53557 
53558 
53615 
53659 
53704 
53752 
53740 
53723 
53741 
53723 
53693 
53685 
53675 
53715 
53708 
53681 
53662 
53685 
53716 
53700 
53627 
53634 
53632 
53603 
53620 
53649 
53702 
53686 
53626 
53597 
53532 
53553 
53622 
53695 
53692 
53669 
53707 
53726 
53710 
53718 
53722 
53752 
53774 
53782 
53737 
53733 
53739 
53707 
53696 
53636 
53608 
53573 
53577 
53595 
53591 
53569 
53605 
53639 
53635 
53634 
53614 
53530 
53477 
53442 
53414 
53394 
53406 
53389 
53408 
53440 
53445 
53430 
53404 
53379 
53384 
53379 
53425 
53442 
53432 
53421 
53410 
53411 
53402 
53374 
53316 
53319 
53356 
53336 
53358 
53367 
53342 
53345 
53341 
53358 
53360 
53343 
53371 
53390 
53377 
53397 
53400 
53400 
53339 
53328 
53345 
53356 
53367 
53359 
53357 
53390 
53419 
53438 
53437 
53394 
53414 
53408 
53404 
53424 
53428 
53445 
53465 
53488 
53525 
53536 
53517 
53565 
53580 
53552 
53515 
53519 
53565 
53592 
53609 
53604 
53583 
53592 
53646 
53613 
53609 
53637 
53633 
53630 
53640 
53632 
53606 
53622 
53676 
53694 
53669 
53643 
53597 
53504 
53495 
53571 
53666 
53652 
53626 
53618 
53632 
53637 
53674 
53708 
53739 
53770 
53829 
53879 
53915 
53872 
53814 
53774 
53727 
53704 
53752 
53759 
53769 
53782 
53809 
53816 
53825 
53821 
53807 
53836 
53852 
53878 
53890 
53910 
53912 
53908 
53897 
53904 
53902 
53881 
53854 
53869 
53863 
53848 
53848 
53836 
53862 
53910 
53942 
53979 
53991 
53943 
53928 
53958 
53953 
53945 
53970 
53930 
53948 
53955 
54003 
54055 
54000 
53928 
53951 
53984 
54016 
54061 
54077 
54047 
53966 
53902 
53917 
53932 
53928 
53995 
54030 
54013 
54059 
54054 
54031 
54038 
54024 
53990 
54049 
54075 
54084 
54130 
54134 
54137 
54139 
54154 
54126 
54125 
54111 
54111 
54120 
54071 
54057 
54076 
54048 
54038 
54069 
54043 
54047 
54070 
54138 
54182 
54170 
54167 
54145 
54158 
54126 
54083 
54070 
54061 
54098 
54104 
54095 
54113 
54158 
54160 
54140 
54161 
54170 
54167 
54169 
54228 
54268 
54251 
54266 
54306 
54304 
54293 
54272 
54311 
54299 
54271 
54241 
54233 
54256 
54267 
54274 
54281 
54257 
54232 
54230 
54196 
54162 
54111 
54055 
54043 
54087 
54044 
53962 
53887 
53853 
53814 
53783 
53789 
53778 
53678 
53613 
53593 
53559 
53555 
53510 
53434 
53399 
53362 
53321 
53255 
53182 
53174 
53158 
53151 
53124 
53102 
53049 
53028 
53030 
52948 
52948 
52947 
52889 
52842 
52836 
52813 
52812 
52780 
52741 
52720 
52722 
52711 
52659 
52628 
52640 
52638 
52627 
52611 
52610 
52646 
52722 
52711 
52726 
52699 
52665 
52690 
52685 
52709 
52768 
52811 
52821 
52854 
52877 
52863 
52822 
52823 
52868 
52903 
52933 
52992 
52996 
53015 
53030 
53043 
53049 
53058 
53100 
53196 
53202 
53184 
53159 
53122 
53150 
53216 
53239 
53259 
53309 
53343 
53370 
53403 
53446 
53444 
53478 
53488 
53507 
53561 
53574 
53602 
53607 
53620 
53681 
53705 
53713 
53741 
53716 
53768 
53855 
53933 
53960 
54010 
54089 
54119 
54075 
54058 
54020 
54006 
54045 
54096 
54089 
54072 
54099 
54119 
54159 
54184 
54220 
54246 
54239 
54230 
54237 
54305 
54355 
54341 
54386 
54370 
54372 
54417 
54451 
54490 
54527 
54529 
54545 
54570 
54594 
54682 
54753 
54770 
54767 
54783 
54754 
54676 
54671 
54684 
54726 
54783 
54787 
54838 
54879 
54893 
54881 
54895 
54895 
54907 
54893 
54913 
54933 
54987 
54982 
54943 
55014 
55093 
55080 
55035 
55007 
54993 
55010 
55051 
55081 
55050 
55028 
55046 
55038 
55043 
55056 
55092 
55097 
55085 
55086 
55090 
55098 
55087 
55108 
55169 
55219 
55262 
55242 
55209 
55224 
55245 
55271 
55249 
55217 
55239 
55279 
55318 
55336 
55365 
55358 
55367 
55332 
55296 
55294 
55322 
55344 
55359 
55373 
55342 
55299 
55253 
55276 
55290 
55308 
55321 
55314 
55329 
55324 
55316 
55330 
55363 
55360 
55348 
55379 
55411 
55416 
55407 
55403 
55394 
55361 
55374 
55340 
55291 
55273 
55279 
55293 
55299 
55311 
55319 
55314 
55331 
55357 
55304 
55261 
55277 
55261 
55253 
55314 
55320 
55262 
55186 
55171 
55234 
55252 
55226 
55188 
55108 
55080 
55071 
55048 
55014 
55005 
54991 
54952 
54904 
54868 
54835 
54773 
54692 
54615 
54573 
54499 
54420 
54374 
54304 
54247 
54224 
54161 
54094 
54018 
53957 
53911 
53907 
53862 
53761 
53726 
53729 
53706 
53645 
53546 
53476 
53394 
53339 
53338 
53338 
53309 
53313 
53328 
53356 
53366 
53340 
53319 
53285 
53309 
53353 
53357 
53354 
53334 
53286 
53274 
53263 
53297 
53306 
53249 
53235 
53213 
53212 
53272 
53294 
53268 
53284 
53310 
53342 
53316 
53333 
53373 
53408 
53414 
53396 
53401 
53421 
53471 
53483 
53508 
53517 
53532 
53567 
53599 
53642 
53718 
53783 
53833 
53840 
53856 
53904 
53913 
53944 
53991 
54001 
53991 
53963 
53985 
53986 
54043 
54122 
54183 
54251 
54231 
54243 
54242 
54206 
54246 
54277 
54239 
54267 
54293 
54333 
54394 
54361 
54317 
54330 
54387 
54432 
54430 
54483 
54552 
54601 
54621 
54656 
54695 
54722 
54728 
54748 
54746 
54778 
54825 
54881 
54912 
54879 
54872 
54909 
54940 
54968 
54993 
55016 
55065 
55094 
55049 
55002 
55010 
55018 
55032 
55019 
55005 
55001 
55049 
55116 
55115 
55154 
55224 
55235 
55191 
55213 
55275 
55276 
55270 
55259 
55271 
55278 
55290 
55264 
55273 
55306 
55281 
55272 
55304 
55322 
55360 
55382 
55379 
55412 
55442 
55474 
55459 
55452 
55446 
55445 
55431 
55428 
55451 
55480 
55486 
55550 
55605 
55583 
55556 
55573 
55560 
55529 
55540 
55562 
55576 
55570 
55558 
55528 
55541 
55564 
55575 
55561 
55579 
55541 
55457 
55410 
55451 
55510 
55546 
55533 
55526 
55498 
55486 
55513 
55538 
55537 
55532 
55505 
55512 
55579 
55580 
55534 
55536 
55560 
55571 
55536 
55483 
55475 
55525 
55554 
55537 
55542 
55538 
55545 
55527 
55511 
55491 
55474 
55459 
55446 
55448 
55498 
55502 
55490 
55498 
55499 
55474 
55430 
55409 
55377 
55367 
55377 
55337 
55322 
55288 
55205 
55139 
55009 
54918 
54869 
54770 
54683 
54609 
54552 
54451 
54412 
54359 
54233 
54117 
54028 
53993 
53919 
53831 
53757 
53692 
53580 
53480 
53398 
53310 
53189 
53132 
53135 
53070 
53003 
52934 
52843 
52740 
52626 
52610 
52622 
52605 
52584 
52520 
52486 
52445 
52355 
52319 
52307 
52270 
52267 
52244 
52227 
52244 
52257 
52234 
52232 
52268 
52344 
52377 
52348 
52336 
52309 
52321 
52350 
52337 
52334 
52300 
52303 
52360 
52395 
52396 
52442 
52430 
52434 
52524 
52584 
52633 
52689 
52685 
52646 
52682 
52711 
52718 
52720 
52781 
52818 
52813 
52812 
52794 
52804 
52879 
52927 
52943 
52986 
53043 
53086 
53160 
53242 
53334 
53360 
53374 
53373 
53366 
53379 
53390 
53404 
53446 
53483 
53525 
53545 
53572 
53637 
53681 
53742 
53887 
54031 
54116 
54130 
54181 
54217 
54201 
54281 
54424 
54505 
54504 
54524 
54537 
54548 
54588 
54610 
54669 
54730 
54749 
54788 
54849 
54939 
54969 
54982 
55007 
55087 
55111 
55173 
55204 
55169 
55233 
55289 
55334 
55370 
55383 
55407 
55439 
55519 
55546 
55570 
55646 
55734 
55820 
55860 
55851 
55874 
55922 
55964 
55999 
55994 
56021 
56056 
56102 
56097 
56070 
56078 
56114 
56169 
56233 
56224 
56234 
56304 
56373 
56426 
56428 
56450 
56468 
56439 
56464 
56475 
56500 
56589 
56574 
56525 
56533 
56585 
56618 
56613 
56629 
56585 
56527 
56482 
56474 
56493 
56501 
56527 
56516 
56534 
56555 
56599 
56590 
56595 
56643 
56672 
56676 
56680 
56703 
56715 
56716 
56733 
56771 
56787 
56777 
56791 
56775 
56762 
56796 
56836 
56847 
56813 
56872 
56909 
56915 
56870 
56828 
56772 
56772 
56766 
56743 
56735 
56736 
56768 
56749 
56740 
56755 
56744 
56711 
56688 
56659 
56616 
56577 
56551 
56469 
56422 
56312 
56209 
56121 
55939 
55815 
55712 
55561 
55405 
55241 
55085 
54979 
54877 
54777 
54710 
54651 
54562 
54428 
54265 
54148 
54026 
53888 
53809 
53747 
53638 
53494 
53414 
53401 
53353 
53264 
53206 
53187 
53140 
53092 
53062 
53044 
52983 
52890 
52806 
52801 
52752 
52721 
52796 
52840 
52841 
52833 
52845 
52879 
52914 
52928 
52907 
52934 
52963 
53009 
53034 
53040 
53082 
53152 
53160 
53147 
53162 
53191 
53234 
53284 
53336 
53370 
53365 
53380 
53405 
53443 
53488 
53541 
53616 
53652 
53676 
53741 
53779 
53847 
53952 
54003 
54050 
54125 
54228 
54300 
54357 
54407 
54449 
54572 
54685 
54639 
54633 
54674 
54728 
54795 
54847 
54878 
54954 
55052 
55153 
55202 
55255 
55254 
55252 
55259 
55277 
55359 
55398 
55408 
55439 
55512 
55592 
55593 
55581 
55635 
55720 
55754 
55806 
55852 
55889 
55980 
56000 
56013 
56026 
56027 
56084 
56184 
56251 
56313 
56355 
56394 
56463 
56523 
56559 
56580 
56638 
56671 
56690 
56721 
56723 
56751 
56777 
56835 
56922 
56941 
56946 
56940 
56944 
56964 
56972 
57005 
57053 
57079 
57086 
57122 
57165 
57187 
57191 
57217 
57268 
57347 
57365 
57387 
57363 
57365 
57401 
57446 
57441 
57452 
57482 
57481 
57478 
57465 
57488 
57545 
57591 
57617 
57627 
57639 
57617 
57573 
57618 
57693 
57724 
57700 
57646 
57596 
57621 
57612 
57535 
57567 
57603 
57588 
57573 
57624 
57652 
57668 
57684 
57705 
57731 
57724 
57675 
57630 
57622 
57616 
57627 
57619 
57622 
57655 
57693 
57711 
57688 
57660 
57687 
57691 
57659 
57590 
57529 
57543 
57532 
57556 
57545 
57536 
57548 
57563 
57598 
57568 
57528 
57462 
57452 
57462 
57483 
57490 
57508 
57566 
57591 
57607 
57585 
57565 
57543 
57536 
57495 
57467 
57451 
57460 
57482 
57503 
57530 
57493 
57482 
57441 
57393 
57356 
57353 
57354 
57325 
57312 
57250 
57179 
57071 
56955 
56854 
56740 
56580 
56402 
56300 
56224 
56107 
56007 
55841 
55718 
55641 
55547 
55449 
55358 
55247 
55093 
54959 
54823 
54675 
54577 
54518 
54475 
54396 
54270 
54161 
54028 
53893 
53832 
53832 
53856 
53852 
53801 
53755 
53760 
53745 
53686 
53655 
53622 
53557 
53495 
53475 
53493 
53540 
53588 
53592 
53650 
53702 
53738 
53739 
53812 
53834 
53852 
53944 
53988 
54011 
54051 
54108 
54193 
54254 
54326 
54417 
54459 
54454 
54457 
54499 
54565 
54593 
54595 
54610 
54669 
54697 
54733 
54787 
54832 
54899 
54922 
54967 
55045 
55111 
55194 
55275 
55339 
55411 
55449 
55488 
55533 
55603 
55621 
55665 
55710 
55754 
55796 
55780 
55779 
55820 
55853 
55916 
55968 
56031 
56074 
56124 
56129 
56160 
56187 
56240 
56275 
56279 
56312 
56353 
56388 
56413 
56415 
56431 
56473 
56448 
56456 
56484 
56461 
56479 
56496 
56516 
56583 
56652 
56662 
56720 
56755 
56774 
56837 
56904 
56912 
56912 
56973 
57027 
57068 
57113 
57119 
57139 
57133 
57145 
57193 
57244 
57299 
57313 
57345 
57359 
57362 
57395 
57405 
57399 
57422 
57463 
57468 
57475 
57443 
57447 
57495 
57537 
57588 
57615 
57638 
57627 
57600 
57561 
57582 
57597 
57592 
57655 
57796 
57793 
57762 
57803 
57873 
57901 
57881 
57831 
57813 
57783 
57790 
57782 
57728 
57710 
57758 
57753 
57698 
57727 
57736 
57738 
57767 
57772 
57767 
57781 
57758 
57749 
57738 
57728 
57733 
57740 
57752 
57711 
57707 
57733 
57746 
57712 
57677 
57707 
57743 
57741 
57717 
57737 
57707 
57639 
57619 
57592 
57556 
57536 
57532 
57538 
57592 
57635 
57613 
57594 
57570 
57563 
57545 
57523 
57505 
57479 
57394 
57259 
57146 
57037 
56852 
56694 
56567 
56405 
56240 
56155 
56041 
55911 
55779 
55631 
55484 
55311 
55198 
55093 
54991 
54905 
54834 
54737 
54594 
54506 
54458 
54388 
54296 
54197 
54076 
53981 
53958 
53934 
53855 
53821 
53849 
53848 
53835 
53846 
53860 
53911 
53953 
53930 
53917 
53921 
53942 
53968 
54016 
54132 
54212 
54271 
54306 
54332 
54373 
54443 
54465 
54496 
54598 
54712 
54775 
54829 
54874 
54933 
55021 
55122 
55209 
55313 
55381 
55405 
55440 
55508 
55605 
55653 
55670 
55739 
55782 
55828 
55840 
55873 
55956 
56059 
56137 
56180 
56185 
56206 
56250 
56332 
56418 
56431 
56466 
56526 
56537 
56546 
56571 
56591 
56656 
56713 
56734 
56698 
56702 
56727 
56762 
56847 
56835 
56800 
56827 
56881 
56981 
57008 
57002 
57048 
57100 
57133 
57174 
57189 
57183 
57208 
57240 
57260 
57289 
57321 
57346 
57301 
57269 
57301 
57380 
57456 
57497 
57519 
57544 
57607 
57616 
57584 
57562 
57597 
57607 
57624 
57650 
57768 
57892 
57966 
58025 
58029 
58015 
57996 
57991 
58029 
58080 
58044 
58034 
58110 
58170 
58202 
58187 
58146 
58134 
58110 
58089 
58116 
58162 
58173 
58203 
58239 
58217 
58205 
58250 
58352 
58398 
58418 
58424 
58473 
58497 
58512 
58461 
58439 
58509 
58521 
58498 
58481 
58478 
58479 
58528 
58559 
58586 
58640 
58666 
58617 
58617 
58651 
58680 
58703 
58726 
58747 
58722 
58684 
58674 
58656 
58621 
58614 
58572 
58539 
58529 
58560 
58585 
58553 
58505 
58525 
58525 
58512 
58541 
58551 
58532 
58470 
58366 
58252 
58188 
58093 
57936 
57706 
57503 
57367 
57243 
57101 
56977 
56824 
56614 
56397 
56236 
56072 
55907 
55703 
55497 
55361 
55281 
55182 
55056 
54926 
54804 
54746 
54706 
54612 
54570 
54496 
54439 
54399 
54361 
54338 
54318 
54269 
54194 
54157 
54134 
54144 
54174 
54228 
54224 
54246 
54239 
54257 
54328 
54395 
54418 
54469 
54560 
54612 
54640 
54712 
54794 
54882 
54985 
55077 
55115 
55198 
55293 
55335 
55367 
55430 
55454 
55543 
55641 
55753 
55834 
55923 
56060 
56156 
56175 
56205 
56238 
56332 
56430 
56483 
56515 
56555 
56635 
56700 
56740 
56788 
56844 
56853 
56849 
56874 
56890 
56945 
57011 
57054 
57063 
57096 
57106 
57138 
57195 
57252 
57281 
57286 
57292 
57339 
57341 
57343 
57364 
57398 
57454 
57506 
57527 
57515 
57539 
57576 
57592 
57586 
57634 
57659 
57681 
57762 
57791 
57811 
57878 
57920 
57956 
58007 
58016 
58023 
58038 
58104 
58144 
58199 
58256 
58299 
58327 
58344 
58370 
58392 
58398 
58395 
58435 
58452 
58445 
58488 
58525 
58565 
58593 
58606 
58605 
58590 
58605 
58635 
58686 
58687 
58702 
58718 
58701 
58712 
58699 
58692 
58739 
58774 
58798 
58783 
58833 
58860 
58846 
58809 
58754 
58818 
58897 
58885 
58919 
58960 
58944 
58927 
58906 
58876 
58852 
58917 
58959 
58967 
58946 
58932 
58961 
59010 
59007 
59018 
58988 
58945 
58937 
58974 
58976 
58951 
58967 
58990 
59056 
59040 
59004 
59028 
59033 
59064 
59057 
59008 
59022 
59060 
59072 
59060 
59010 
58976 
58969 
58933 
58890 
58883 
58852 
58814 
58714 
58540 
58447 
58346 
58160 
58018 
57865 
57693 
57534 
57373 
57118 
56876 
56716 
56566 
56398 
56231 
56010 
55841 
55744 
55671 
55583 
55503 
55389 
55250 
55179 
55108 
54980 
54893 
54805 
54723 
54650 
54612 
54555 
54565 
54587 
54596 
54618 
54637 
54623 
54639 
54684 
54644 
54621 
54627 
54660 
54714 
54713 
54700 
54722 
54793 
54885 
54965 
55027 
55076 
55082 
55124 
55206 
55311 
55416 
55488 
55547 
55602 
55634 
55702 
55798 
55839 
55889 
56011 
56113 
56191 
56254 
56349 
56487 
56586 
56647 
56667 
56727 
56802 
56825 
56835 
56888 
56903 
56889 
56934 
57008 
57059 
57121 
57148 
57152 
57190 
57212 
57270 
57362 
57405 
57402 
57412 
57446 
57493 
57528 
57563 
57550 
57572 
57632 
57694 
57733 
57773 
57809 
57874 
57929 
57944 
57998 
58034 
58060 
58082 
58114 
58156 
58184 
58210 
58270 
58330 
58329 
58338 
58401 
58488 
58497 
58471 
58450 
58475 
58504 
58553 
58598 
58596 
58632 
58680 
58731 
58769 
58805 
58832 
58884 
58904 
58908 
58951 
58981 
59001 
59039 
59112 
59185 
59166 
59146 
59117 
59130 
59174 
59209 
59193 
59208 
59264 
59293 
59305 
59363 
59368 
59320 
59320 
59353 
59341 
59374 
59413 
59427 
59404 
59417 
59405 
59386 
59393 
59387 
59383 
59373 
59374 
59360 
59347 
59339 
59332 
59368 
59406 
59410 
59361 
59344 
59324 
59319 
59307 
59356 
59354 
59281 
59213 
59207 
59196 
59195 
59203 
59217 
59213 
59178 
59109 
59087 
59107 
59150 
59185 
59268 
59258 
59231 
59224 
59182 
59189 
59224 
59249 
59187 
59125 
59126 
59102 
59107 
59080 
58986 
58893 
58801 
58658 
58451 
58330 
58194 
58035 
57916 
57765 
57558 
57370 
57208 
57051 
56907 
56811 
56661 
56497 
56406 
56283 
56139 
56025 
55886 
55743 
55647 
55559 
55449 
55390 
55310 
55185 
55152 
55116 
55055 
55017 
55001 
54970 
54930 
54910 
54902 
54943 
54925 
54971 
55017 
55068 
55131 
55112 
55112 
55134 
55165 
55215 
55261 
55296 
55320 
55424 
55541 
55618 
55683 
55781 
55909 
55972 
56030 
56107 
56219 
56309 
56391 
56519 
56601 
56682 
56749 
56799 
56831 
56899 
57004 
57136 
57199 
57265 
57308 
57345 
57392 
57427 
57477 
57526 
57594 
57669 
57723 
57780 
57801 
57801 
57871 
57907 
57918 
57926 
57952 
58016 
58095 
58106 
58077 
58105 
58156 
58202 
58236 
58285 
58289 
58301 
58323 
58363 
58438 
58485 
58516 
58558 
58587 
58644 
58700 
58729 
58759 
58806 
58851 
58889 
58923 
58919 
58934 
59002 
59059 
59091 
59135 
59178 
59196 
59206 
59196 
59246 
59309 
59336 
59408 
59483 
59532 
59551 
59622 
59661 
59713 
59759 
59788 
59831 
59852 
59848 
59840 
59893 
59959 
59994 
60034 
60115 
60096 
60070 
60087 
60124 
60167 
60150 
60137 
60120 
60153 
60220 
60275 
60308 
60284 
60265 
60263 
60269 
60325 
60369 
60407 
60404 
60437 
60472 
60395 
60346 
60344 
60324 
60331 
60339 
60351 
60328 
60340 
60314 
60300 
60331 
60382 
60378 
60320 
60321 
60370 
60395 
60434 
60460 
60404 
60378 
60425 
60491 
60472 
60441 
60407 
60403 
60442 
60441 
60466 
60476 
60433 
60412 
60413 
60408 
60435 
60437 
60415 
60394 
60363 
60356 
60313 
60315 
60357 
60410 
60434 
60460 
60438 
60407 
60416 
60456 
60468 
60454 
60444 
60383 
60296 
60275 
60298 
60298 
60298 
60267 
60237 
60226 
60228 
60217 
60190 
60185 
60175 
60165 
60157 
60121 
60080 
60069 
60086 
60049 
60024 
60026 
60056 
60106 
60127 
60089 
60065 
60075 
60095 
60060 
60027 
59976 
59959 
59867 
59780 
59690 
59568 
59409 
59251 
59092 
58918 
58753 
58571 
58367 
58155 
57940 
57741 
57575 
57437 
57327 
57106 
56869 
56671 
56481 
56319 
56169 
56059 
55983 
55890 
55827 
55727 
55635 
55548 
55469 
55396 
55334 
55294 
55271 
55263 
55241 
55236 
55233 
55233 
55227 
55217 
55216 
55223 
55220 
55284 
55404 
55467 
55480 
55498 
55558 
55664 
55764 
55825 
55891 
55940 
55941 
55974 
56026 
56102 
56150 
56187 
56228 
56290 
56454 
56666 
56761 
56796 
56858 
56977 
57089 
57219 
57322 
57395 
57437 
57490 
57593 
57636 
57681 
57792 
57853 
57827 
57832 
57883 
57930 
57974 
58041 
58111 
58200 
58275 
58292 
58296 
58320 
58355 
58429 
58460 
58448 
58418 
58452 
58490 
58511 
58508 
58491 
58531 
58628 
58699 
58776 
58820 
58830 
58843 
58864 
58877 
58940 
58993 
59010 
59001 
58977 
58978 
59055 
59094 
59100 
59128 
59172 
59203 
59263 
59311 
59353 
59371 
59409 
59488 
59535 
59544 
59508 
59489 
59505 
59540 
59611 
59688 
59702 
59726 
59809 
59870 
59917 
59943 
59946 
59923 
59914 
59958 
60029 
60036 
60032 
59961 
59941 
60016 
60095 
60115 
60099 
60134 
60180 
60198 
60167 
60130 
60172 
60204 
60238 
60270 
60277 
60260 
60228 
60187 
60195 
60243 
60295 
60239 
60170 
60137 
60147 
60159 
60195 
60216 
60181 
60169 
60205 
60248 
60254 
60269 
60300 
60338 
60362 
60342 
60277 
60214 
60203 
60227 
60211 
60188 
60194 
60196 
60217 
60269 
60243 
60195 
60191 
60218 
60227 
60231 
60214 
60191 
60167 
60174 
60192 
60210 
60212 
60184 
60176 
60205 
60207 
60198 
60134 
60094 
60075 
60055 
60058 
60057 
60052 
60002 
59976 
60002 
60021 
60006 
59949 
59893 
59913 
59985 
60006 
59968 
59962 
59986 
59981 
59987 
59978 
60000 
60008 
59979 
59980 
60022 
59994 
59972 
59931 
59888 
59912 
59916 
59928 
59944 
59950 
59915 
59928 
59984 
59961 
59905 
59858 
59832 
59810 
59788 
59789 
59755 
59720 
59724 
59683 
59610 
59629 
59658 
59599 
59548 
59476 
59343 
59116 
58913 
58718 
58566 
58396 
58195 
57978 
57762 
57597 
57395 
57175 
56970 
56809 
56651 
56494 
56318 
56184 
56061 
55954 
55835 
55706 
55618 
55534 
55447 
55399 
55309 
55199 
55132 
55107 
55081 
55072 
55021 
54974 
54992 
54993 
55043 
55072 
55071 
55036 
55042 
55114 
55166 
55219 
55276 
55310 
55368 
55437 
55498 
55571 
55641 
55707 
55768 
55769 
55842 
55936 
56012 
56092 
56158 
56205 
56271 
56317 
56383 
56506 
56639 
56767 
56870 
56995 
57072 
57177 
57290 
57352 
57397 
57432 
57459 
57507 
57538 
57581 
57608 
57642 
57704 
57710 
57720 
57762 
57820 
57873 
57907 
57916 
57913 
57917 
57946 
57980 
58037 
58059 
58009 
58003 
57998 
57988 
58018 
58040 
58080 
58153 
58246 
58309 
58355 
58407 
58443 
58438 
58499 
58495 
58533 
58626 
58700 
58746 
58785 
58828 
58885 
58950 
59020 
59093 
59120 
59168 
59197 
59244 
59349 
59415 
59452 
59520 
59537 
59573 
59567 
59551 
59592 
59666 
59682 
59700 
59693 
59668 
59695 
59763 
59857 
59889 
59903 
59904 
59881 
59868 
59904 
59919 
59969 
60000 
60051 
60108 
60103 
60086 
60070 
60090 
60116 
60146 
60165 
60163 
60194 
60222 
60242 
60257 
60230 
60193 
60242 
60265 
60275 
60225 
60204 
60191 
60174 
60168 
60190 
60195 
60192 
60198 
60221 
60268 
60287 
60289 
60259 
60195 
60204 
60215 
60244 
60230 
60187 
60210 
60214 
60198 
60224 
60240 
60261 
60311 
60330 
60333 
60303 
60295 
60291 
60232 
60190 
60192 
60182 
60128 
60110 
60126 
60175 
60173 
60168 
60127 
60105 
60109 
60080 
60055 
60026 
59984 
59963 
59986 
60047 
60038 
59983 
59995 
59976 
59945 
59944 
59927 
59909 
59920 
59898 
59872 
59850 
59834 
59858 
59904 
59964 
59977 
59966 
59958 
59914 
59905 
59906 
59865 
59877 
59893 
59867 
59813 
59787 
59767 
59765 
59747 
59681 
59640 
59599 
59513 
59405 
59270 
59088 
58937 
58770 
58616 
58451 
58266 
58062 
57904 
57802 
57631 
57436 
57216 
56985 
56798 
56611 
56471 
56351 
56176 
56022 
55899 
55834 
55745 
55633 
55554 
55482 
55452 
55379 
55335 
55297 
55231 
55205 
55156 
55093 
55095 
55157 
55199 
55212 
55173 
55168 
55152 
55195 
55256 
55285 
55316 
55386 
55472 
55546 
55597 
55621 
55670 
55775 
55914 
56015 
56107 
56192 
56271 
56353 
56486 
56594 
56719 
56833 
56901 
56987 
57116 
57248 
57353 
57476 
57571 
57633 
57714 
57785 
57876 
57906 
57969 
58062 
58133 
58249 
58319 
58399 
58482 
58496 
58532 
58629 
58749 
58799 
58821 
58866 
58949 
58999 
59070 
59149 
59194 
59221 
59268 
59279 
59257 
59316 
59384 
59453 
59511 
59577 
59620 
59662 
59715 
59752 
59724 
59749 
59794 
59799 
59836 
59905 
59939 
59976 
59999 
60036 
60137 
60178 
60169 
60183 
60251 
60306 
60369 
60464 
60539 
60615 
60644 
60704 
60729 
60751 
60782 
60839 
60913 
60927 
60933 
60938 
60932 
60932 
60954 
61043 
61088 
61119 
61098 
61130 
61183 
61205 
61224 
61245 
61289 
61300 
61316 
61280 
61296 
61316 
61331 
61343 
61326 
61330 
61348 
61364 
61372 
61386 
61405 
61395 
61417 
61396 
61428 
61426 
61443 
61454 
61436 
61370 
61360 
61380 
61375 
61329 
61280 
61275 
61307 
61322 
61287 
61283 
61295 
61273 
61249 
61254 
61271 
61279 
61269 
61212 
61219 
61215 
61173 
61137 
61091 
61082 
61064 
61086 
61118 
61092 
61105 
61092 
61071 
61022 
60964 
60945 
60924 
60885 
60824 
60801 
60750 
60741 
60767 
60764 
60733 
60741 
60697 
60671 
60682 
60701 
60631 
60585 
60563 
60548 
60530 
60516 
60464 
60394 
60369 
60325 
60286 
60296 
60307 
60322 
60281 
60224 
60177 
60144 
60145 
60101 
60065 
60102 
60108 
60066 
60008 
59941 
59920 
59934 
59940 
59893 
59856 
59862 
59850 
59819 
59833 
59796 
59765 
59725 
59680 
59685 
59705 
59699 
59675 
59624 
59619 
59598 
59508 
59472 
59392 
59281 
59215 
59166 
59060 
58921 
58781 
58643 
58496 
58355 
58164 
57996 
57799 
57596 
57414 
57195 
56988 
56799 
56625 
56446 
56258 
56089 
55885 
55713 
55599 
55478 
55376 
55248 
55114 
54980 
54827 
54658 
54549 
54464 
54397 
54350 
54333 
54294 
54253 
54217 
54185 
54196 
54234 
54253 
54276 
54287 
54294 
54315 
54345 
54394 
54406 
54429 
54480 
54598 
54667 
54703 
54772 
54857 
54896 
54973 
55075 
55204 
55289 
55380 
55485 
55566 
55652 
55769 
55882 
55939 
55986 
56053 
56161 
56255 
56394 
56531 
56604 
56622 
56637 
56684 
56772 
56865 
56967 
57082 
57162 
57212 
57252 
57314 
57331 
57369 
57425 
57456 
57481 
57517 
57548 
57562 
57600 
57545 
57543 
57539 
57603 
57662 
57686 
57715 
57713 
57707 
57729 
57754 
57806 
57854 
57865 
57875 
57898 
57901 
57939 
58030 
58108 
58131 
58085 
58097 
58120 
58163 
58238 
58256 
58283 
58345 
58373 
58367 
58405 
58419 
58431 
58476 
58552 
58591 
58624 
58643 
58671 
58728 
58802 
58864 
58894 
58862 
58867 
58950 
59006 
59021 
59051 
59071 
59067 
59101 
59146 
59164 
59184 
59228 
59244 
59243 
59254 
59263 
59281 
59320 
59301 
59238 
59253 
59268 
59293 
59288 
59328 
59339 
59345 
59368 
59345 
59352 
59345 
59317 
59277 
59239 
59241 
59229 
59281 
59327 
59333 
59351 
59347 
59336 
59370 
59378 
59394 
59414 
59348 
59291 
59272 
59226 
59236 
59268 
59245 
59220 
59239 
59264 
59280 
59250 
59186 
59177 
59186 
59123 
59052 
59032 
59031 
59030 
59035 
58998 
58991 
58974 
58923 
58917 
58863 
58823 
58851 
58896 
58903 
58899 
58846 
58774 
58717 
58709 
58716 
58707 
58712 
58704 
58690 
58712 
58694 
58735 
58735 
58692 
58608 
58517 
58501 
58554 
58583 
58574 
58592 
58549 
58482 
58470 
58453 
58443 
58440 
58408 
58335 
58292 
58198 
58185 
58204 
58214 
58162 
58162 
58154 
58145 
58118 
58092 
58000 
57925 
57807 
57653 
57587 
57504 
57371 
57182 
57013 
56841 
56638 
56448 
56265 
56111 
55960 
55830 
55667 
55500 
55281 
55136 
54998 
54842 
54679 
54477 
54300 
54177 
54082 
53940 
53843 
53715 
53623 
53558 
53494 
53431 
53387 
53344 
53285 
53267 
53259 
53273 
53302 
53335 
53363 
53340 
53367 
53408 
53424 
53434 
53446 
53531 
53603 
53656 
53665 
53670 
53730 
53831 
53878 
53949 
54041 
54168 
54272 
54311 
54358 
54424 
54503 
54635 
54819 
54911 
55014 
55149 
55250 
55324 
55430 
55480 
55520 
55619 
55750 
55827 
55841 
55840 
55877 
55923 
55924 
55949 
55998 
56078 
56165 
56213 
56242 
56302 
56363 
56368 
56405 
56419 
56401 
56443 
56468 
56463 
56476 
56472 
56452 
56425 
56388 
56407 
56428 
56437 
56469 
56508 
56554 
56591 
56663 
56722 
56702 
56685 
56699 
56730 
56741 
56732 
56763 
56779 
56852 
56923 
56895 
56846 
56869 
56875 
56903 
56995 
57039 
57052 
57084 
57073 
57109 
57146 
57158 
57170 
57230 
57258 
57248 
57253 
57319 
57285 
57304 
57369 
57396 
57336 
57302 
57327 
57371 
57407 
57424 
57423 
57456 
57498 
57534 
57565 
57625 
57654 
57643 
57706 
57721 
57713 
57759 
57787 
57787 
57817 
57832 
57855 
57833 
57826 
57842 
57827 
57815 
57816 
57877 
57905 
57893 
57884 
57901 
57905 
57873 
57849 
57828 
57821 
57801 
57809 
57784 
57764 
57776 
57738 
57645 
57645 
57728 
57768 
57737 
57743 
57739 
57725 
57719 
57720 
57706 
57656 
57669 
57683 
57698 
57708 
57669 
57607 
57559 
57571 
57606 
57595 
57587 
57568 
57557 
57592 
57580 
57590 
57599 
57635 
57635 
57612 
57595 
57600 
57576 
57498 
57434 
57438 
57416 
57395 
57409 
57431 
57390 
57408 
57443 
57385 
57349 
57396 
57386 
57363 
57341 
57301 
57270 
57237 
57229 
57192 
57192 
57190 
57183 
57193 
57174 
57178 
57161 
57125 
57039 
56885 
56777 
56653 
56542 
56373 
56193 
56033 
55903 
55786 
55600 
55386 
55213 
55034 
54877 
54724 
54546 
54367 
54189 
54008 
53869 
53724 
53598 
53500 
53359 
53243 
53137 
52997 
52862 
52828 
52808 
52746 
52662 
52591 
52558 
52557 
52545 
52517 
52518 
52525 
52570 
52614 
52610 
52576 
52571 
52614 
52634 
52658 
52694 
52769 
52852 
52918 
52985 
53066 
53132 
53209 
53304 
53376 
53423 
53500 
53594 
53717 
53763 
53787 
53838 
53918 
54015 
54118 
54225 
54373 
54469 
54473 
54590 
54740 
54817 
54852 
54890 
54953 
54978 
55052 
55121 
55178 
55210 
55255 
55349 
55383 
55386 
55421 
55388 
55431 
55493 
55516 
55505 
55528 
55639 
55707 
55693 
55717 
55752 
55728 
55719 
55739 
55759 
55826 
55883 
55896 
55868 
55857 
55884 
55946 
56025 
56018 
56003 
55981 
56023 
56053 
56067 
56073 
56111 
56146 
56163 
56193 
56201 
56214 
56269 
56319 
56379 
56445 
56494 
56513 
56535 
56565 
56622 
56615 
56667 
56754 
56785 
56821 
56791 
56803 
56852 
