6068 
6062 
6037 
6009 
6011 
6020 
6026 
6019 
6045 
6040 
6057 
6027 
6017 
6034 
6036 
5971 
5994 
5996 
6016 
6033 
5983 
5956 
5938 
6042 
6202 
6323 
6491 
6578 
6519 
6359 
6142 
6023 
5832 
5729 
5813 
5953 
5997 
6029 
6019 
6079 
6079 
6025 
6015 
6039 
6054 
6078 
6097 
6134 
6151 
6132 
6104 
6096 
6093 
6108 
6167 
6183 
6136 
6123 
6132 
6138 
6164 
6178 
6118 
6111 
6179 
6244 
6192 
6259 
6224 
6187 
6243 
6277 
6309 
6287 
6285 
6315 
6339 
6361 
6377 
6343 
6380 
6429 
6424 
6470 
6465 
6474 
6471 
6483 
6454 
6461 
6464 
6399 
6363 
6336 
6292 
6265 
6214 
6193 
6179 
6170 
6140 
6109 
6091 
6068 
6050 
6048 
6048 
6012 
6025 
6034 
6037 
5992 
6038 
6050 
6072 
6028 
5992 
6040 
6018 
6064 
6103 
6046 
6001 
6027 
6017 
6024 
6035 
6092 
6088 
6008 
5983 
6003 
6027 
6049 
6028 
5984 
6005 
6053 
6038 
6031 
6052 
6069 
6080 
6058 
6065 
6046 
6035 
6010 
5998 
6038 
6030 
6046 
6039 
6026 
5995 
6043 
6082 
6025 
5998 
6015 
6037 
6009 
5994 
6037 
6054 
6042 
6026 
6037 
6057 
6037 
6019 
6039 
6042 
6063 
6054 
6046 
6035 
6059 
6011 
6058 
6098 
6096 
6098 
6037 
6031 
6041 
6027 
5999 
6044 
6058 
6005 
5985 
5962 
5951 
5997 
5947 
5997 
5981 
5982 
6011 
5989 
6067 
6026 
5970 
5969 
6075 
6220 
6386 
6501 
6641 
6610 
6362 
6154 
5972 
5758 
5712 
5752 
5840 
5930 
5980 
5987 
6022 
6039 
6087 
6072 
6077 
6081 
6103 
6112 
6055 
6092 
6101 
6085 
6047 
6098 
6116 
6099 
6103 
6137 
6177 
6153 
6118 
6118 
6122 
6165 
6211 
6162 
6159 
6187 
6177 
6204 
6244 
6250 
6259 
6315 
6306 
6310 
6325 
6331 
6334 
6386 
6375 
6433 
6448 
6437 
6445 
6461 
6462 
6469 
6489 
6450 
6453 
6492 
6420 
6384 
6344 
6295 
6292 
6292 
6230 
6165 
6091 
6113 
6115 
6085 
6102 
6070 
6029 
6033 
6011 
6007 
6008 
6029 
6050 
6063 
6049 
6025 
6009 
6011 
5986 
5990 
6004 
6052 
6068 
6050 
5982 
5986 
6027 
6061 
6060 
6065 
6015 
6043 
6056 
6051 
6068 
6056 
6001 
6023 
6061 
6046 
6053 
6102 
6047 
6014 
6025 
6028 
6079 
6092 
6038 
6059 
6107 
6106 
6049 
6008 
5982 
6019 
6034 
6064 
6070 
6043 
5999 
6005 
6055 
6044 
6053 
6044 
6043 
6041 
6065 
6063 
6107 
6124 
6106 
6053 
6030 
6033 
6054 
6040 
6034 
6068 
6078 
6102 
6109 
6129 
6118 
6073 
6121 
6109 
6118 
6045 
5986 
6071 
6093 
6066 
6082 
6034 
6019 
6035 
5989 
6012 
6073 
6095 
6049 
6054 
6044 
6071 
6074 
6065 
6020 
6091 
6206 
6285 
6431 
6592 
6674 
6599 
6325 
6106 
5919 
5738 
5805 
5914 
5981 
6048 
6083 
6135 
6182 
6193 
6166 
6142 
6157 
6190 
6163 
6198 
6209 
6219 
6210 
6212 
6224 
6226 
6176 
6199 
6223 
6186 
6188 
6252 
6280 
6242 
6257 
6293 
6328 
6320 
6304 
6323 
6347 
6345 
6357 
6383 
6388 
6425 
6419 
6382 
6424 
6430 
6472 
6472 
6491 
6509 
6534 
6558 
6582 
6597 
6606 
6611 
6631 
6592 
6578 
6533 
6504 
6491 
6466 
6449 
6394 
6338 
6325 
6323 
6303 
6251 
6239 
6190 
6209 
6181 
6183 
6214 
6177 
6187 
6207 
6223 
6143 
6142 
6161 
6207 
6174 
6163 
6162 
6176 
6166 
6177 
6198 
6203 
6154 
6138 
6176 
6178 
6148 
6208 
6250 
6276 
6197 
6171 
6179 
6222 
6242 
6263 
6184 
6183 
6157 
6159 
6178 
6251 
6257 
6213 
6203 
6209 
6241 
6192 
6182 
6228 
6249 
6205 
6213 
6208 
6219 
6233 
6226 
6232 
6256 
6230 
6213 
6193 
6208 
6224 
6222 
6245 
6242 
6184 
6146 
6193 
6238 
6205 
6245 
6260 
6282 
6273 
6221 
6206 
6218 
6252 
6254 
6250 
6267 
6265 
6264 
6251 
6261 
6277 
6284 
6306 
6295 
6277 
6212 
6195 
6199 
6257 
6260 
6290 
6227 
6238 
6230 
6193 
6215 
6220 
6202 
6184 
6193 
6245 
6251 
6246 
6230 
6231 
6264 
6306 
6335 
6450 
6609 
6729 
6830 
6781 
6563 
6358 
6204 
5997 
6033 
6090 
6187 
6257 
6268 
6329 
6335 
6311 
6315 
6359 
6322 
6301 
6345 
6341 
6388 
6373 
6335 
6350 
6346 
6331 
6355 
6363 
6408 
6425 
6422 
6436 
6414 
6442 
6440 
6424 
6447 
6468 
6478 
6458 
6456 
6506 
6521 
6536 
6545 
6570 
6568 
6595 
6610 
6636 
6657 
6662 
6694 
6720 
6713 
6712 
6765 
6778 
6762 
6776 
6801 
6725 
6755 
6771 
6724 
6701 
6615 
6598 
6596 
6572 
6561 
6483 
6429 
6414 
6409 
6394 
6361 
6376 
6424 
6394 
6388 
6356 
6367 
6390 
6350 
6340 
6376 
6393 
6377 
6355 
6371 
6352 
6346 
6363 
6368 
6371 
6344 
6379 
6369 
6357 
6359 
6380 
6390 
6417 
6399 
6395 
6386 
6393 
6361 
6390 
6403 
6405 
6401 
6405 
6369 
6331 
6383 
6407 
6418 
6411 
6446 
6415 
6421 
6410 
6360 
6376 
6376 
6412 
6427 
6436 
6417 
6376 
6352 
6383 
6422 
6418 
6424 
6397 
6416 
6433 
6404 
6379 
6385 
6411 
6413 
6452 
6475 
6503 
6500 
6461 
6455 
6541 
6497 
6460 
6464 
6459 
6461 
6444 
6393 
6370 
6355 
6392 
6413 
6416 
6409 
6426 
6404 
6397 
6457 
6460 
6422 
6449 
6392 
6376 
6432 
6427 
6453 
6570 
6712 
6846 
6963 
7055 
6990 
6709 
6496 
6305 
6127 
6172 
6217 
6271 
6399 
6444 
6435 
6463 
6500 
6555 
6499 
6520 
6534 
6534 
6535 
6540 
6539 
6523 
6549 
6523 
6527 
6584 
6570 
6561 
6580 
6583 
6646 
6603 
6603 
6598 
6613 
6611 
6628 
6649 
6642 
6643 
6698 
6739 
6720 
6682 
6691 
6777 
6772 
6795 
6834 
6817 
6898 
6902 
6876 
6915 
6933 
6935 
6903 
6964 
6976 
6966 
6951 
6950 
6918 
6884 
6836 
6812 
6751 
6755 
6754 
6690 
6581 
6564 
6553 
6572 
6566 
6597 
6581 
6541 
6545 
6501 
6513 
6511 
6488 
6499 
6497 
6489 
6490 
6486 
6502 
6492 
6499 
6499 
6480 
6509 
6518 
6559 
6538 
6533 
6538 
6506 
6524 
6553 
6529 
6509 
6526 
6519 
6515 
6471 
6527 
6559 
6533 
6530 
6561 
6503 
6540 
6546 
6563 
6558 
6544 
6550 
6525 
6511 
6540 
6565 
6580 
6526 
6559 
6523 
6511 
6510 
6540 
6498 
6520 
6553 
6536 
6521 
6553 
6538 
6577 
6564 
6566 
6590 
6578 
6538 
6560 
6608 
6617 
6572 
6589 
6601 
6585 
6557 
6574 
6541 
6522 
6497 
6512 
6517 
6525 
6528 
6486 
6546 
6530 
6530 
6543 
6539 
6533 
6498 
6483 
6507 
6537 
6528 
6499 
6485 
6585 
6730 
6860 
6923 
7047 
7084 
6901 
6645 
6482 
6322 
6267 
6322 
6443 
6469 
6463 
6508 
6587 
6635 
6589 
6548 
6547 
6545 
6580 
6603 
6575 
6606 
6614 
6587 
6602 
6614 
6657 
6660 
6643 
6654 
6639 
6622 
6643 
6665 
6664 
6664 
6657 
6619 
6652 
6673 
6705 
6726 
6734 
6744 
6739 
6752 
6745 
6801 
6846 
6826 
6853 
6905 
6913 
6864 
6879 
6926 
6910 
6921 
6958 
6983 
6946 
6933 
6955 
6923 
6906 
6878 
6813 
6798 
6755 
6735 
6698 
6648 
6607 
6612 
6633 
6601 
6536 
6549 
6569 
6531 
6548 
6554 
6546 
6517 
6487 
6518 
6517 
6525 
6478 
6514 
6537 
6522 
6508 
6536 
6524 
6516 
6515 
6545 
6562 
6588 
6569 
6526 
6479 
6520 
6530 
6518 
6492 
6483 
6503 
6507 
6539 
6536 
6500 
6535 
6575 
6557 
6564 
6555 
6589 
6548 
6574 
6517 
6506 
6532 
6528 
6538 
6524 
6521 
6528 
6487 
6503 
6512 
6553 
6542 
6515 
6555 
6540 
6501 
6483 
6520 
6566 
6555 
6502 
6515 
6509 
6504 
6526 
6511 
6520 
6529 
6555 
6560 
6552 
6525 
6515 
6547 
6565 
6532 
6559 
6562 
6560 
6577 
6546 
6522 
6508 
6522 
6520 
6479 
6487 
6509 
6518 
6539 
6497 
6500 
6486 
6417 
6465 
6520 
6508 
6483 
6455 
6496 
6500 
6547 
6593 
6700 
6830 
6906 
7012 
7013 
6810 
6623 
6495 
6254 
6220 
6365 
6426 
6474 
6539 
6537 
6555 
6512 
6550 
6565 
6566 
6589 
6605 
6588 
6609 
6608 
6527 
6553 
6599 
6581 
6588 
6572 
6549 
6581 
6588 
6642 
6647 
6652 
6649 
6625 
6629 
6648 
6640 
6634 
6710 
6704 
6709 
6702 
6716 
6725 
6739 
6773 
6765 
6800 
6839 
6839 
6848 
6846 
6882 
6890 
6894 
6913 
6929 
6956 
6938 
6910 
6922 
6911 
6876 
6866 
6835 
6755 
6752 
6704 
6685 
6674 
6586 
6562 
6563 
6550 
6578 
6568 
6554 
6534 
6526 
6543 
6509 
6491 
6533 
6551 
6507 
6519 
6558 
6550 
6513 
6516 
6516 
6520 
6553 
6565 
6517 
6560 
6571 
6544 
6513 
6549 
6564 
6530 
6524 
6529 
6540 
6512 
6533 
6524 
6532 
6552 
6592 
6569 
6570 
6547 
6507 
6508 
6565 
6602 
6583 
6556 
6564 
6584 
6573 
6564 
6569 
6559 
6537 
6544 
6585 
6568 
6566 
6600 
6567 
6571 
6560 
6528 
6532 
6546 
6549 
6535 
6581 
6595 
6575 
6571 
6569 
6570 
6573 
6570 
6583 
6564 
6582 
6578 
6525 
6548 
6588 
6633 
6598 
6593 
6611 
6625 
6605 
6619 
6627 
6614 
6592 
6613 
6642 
6607 
6531 
6526 
6535 
6534 
6530 
6538 
6555 
6573 
6551 
6560 
6591 
6618 
6559 
6509 
6565 
6600 
6575 
6574 
6550 
6554 
6659 
6800 
6965 
7065 
7157 
7048 
6793 
6613 
6468 
6336 
6358 
6475 
6542 
6578 
6618 
6646 
6653 
6642 
6648 
6643 
6636 
6591 
6643 
6654 
6636 
6657 
6660 
6639 
6630 
6645 
6679 
6689 
6695 
6717 
6671 
6689 
6686 
6734 
6702 
6716 
6750 
6766 
6756 
6735 
6762 
6805 
6807 
6825 
6831 
6829 
6827 
6856 
6872 
6910 
6912 
6948 
6974 
6975 
6999 
7020 
7020 
7018 
7044 
7013 
7018 
6991 
7055 
7016 
6976 
6947 
6921 
6851 
6819 
6756 
6775 
6706 
6744 
6709 
6667 
6636 
6620 
6617 
6609 
6649 
6604 
6571 
6576 
6599 
6610 
6634 
6636 
6612 
6573 
6599 
6627 
6631 
6599 
6583 
6597 
6620 
6598 
6577 
6557 
6583 
6642 
6653 
6611 
6615 
6605 
6596 
6565 
6592 
6631 
6623 
6656 
6651 
6619 
6576 
6595 
6622 
6636 
6619 
6595 
6580 
6576 
6592 
6626 
6602 
6623 
6605 
6591 
6599 
6640 
6629 
6612 
6629 
6609 
6618 
6626 
6632 
6625 
6599 
6568 
6595 
6617 
6616 
6619 
6608 
6607 
6595 
6624 
6632 
6658 
6642 
6612 
6631 
6655 
6665 
6657 
6627 
6636 
6661 
6654 
6653 
6653 
6655 
6691 
6664 
6604 
6587 
6613 
6620 
6597 
6604 
6630 
6637 
6615 
6587 
6597 
6575 
6597 
6598 
6634 
6647 
6579 
6605 
6616 
6579 
6590 
6616 
6646 
6763 
6948 
7093 
7223 
7222 
7035 
6753 
6586 
6396 
6322 
6353 
6430 
6547 
6594 
6614 
6667 
6703 
6701 
6668 
6699 
6718 
6754 
6769 
6690 
6676 
6743 
6712 
6700 
6743 
6731 
6759 
6726 
6759 
6773 
6734 
6737 
6800 
6849 
6843 
6814 
6818 
6840 
6855 
6839 
6853 
6855 
6881 
6878 
6900 
6904 
6934 
6942 
6959 
6968 
7035 
7089 
7075 
7071 
7092 
7093 
7126 
7170 
7165 
7123 
7132 
7114 
7119 
7106 
7089 
7013 
6966 
6976 
6923 
6855 
6829 
6862 
6822 
6816 
6788 
6737 
6649 
6673 
6747 
6814 
6768 
6703 
6653 
6674 
6685 
6686 
6656 
6675 
6709 
6706 
6714 
6683 
6679 
6689 
6711 
6683 
6692 
6650 
6648 
6746 
6740 
6701 
6708 
6714 
6717 
6738 
6710 
6706 
6725 
6739 
6741 
6683 
6678 
6679 
6675 
6725 
6705 
6734 
6731 
6696 
6722 
6736 
6749 
6739 
6692 
6717 
6745 
6730 
6710 
6710 
6716 
6703 
6690 
6717 
6712 
6677 
6691 
6710 
6727 
6742 
6761 
6797 
6751 
6709 
6758 
6757 
6793 
6754 
6726 
6744 
6747 
6697 
6732 
6767 
6741 
6727 
6715 
6739 
6725 
6701 
6692 
6668 
6667 
6695 
6705 
6725 
6753 
6743 
6682 
6666 
6647 
6652 
6644 
6674 
6699 
6696 
6681 
6638 
6656 
6805 
6928 
7079 
7221 
7309 
7182 
6940 
6761 
6584 
6371 
6377 
6539 
6598 
6623 
6665 
6695 
6692 
6719 
6765 
6760 
6765 
6790 
6738 
6743 
6772 
6797 
6794 
6802 
6770 
6751 
6792 
6826 
6823 
6813 
6825 
6812 
6788 
6807 
6824 
6836 
6850 
6860 
6882 
6901 
6874 
6901 
6904 
6886 
6928 
6992 
6986 
7005 
7031 
7070 
7054 
7052 
7084 
7078 
7152 
7182 
7191 
7194 
7174 
7180 
7143 
7147 
7207 
7165 
7143 
7095 
7061 
7025 
6956 
6930 
6905 
6846 
6841 
6814 
6823 
6841 
6803 
6772 
6764 
6766 
6798 
6809 
6765 
6764 
6788 
6759 
6739 
6709 
6738 
6755 
6745 
6759 
6781 
6763 
6744 
6746 
6751 
6740 
6769 
6776 
6787 
6746 
6757 
6774 
6803 
6822 
6775 
6785 
6789 
6757 
6807 
6826 
6799 
6768 
6768 
6786 
6782 
6789 
6790 
6788 
6793 
6802 
6781 
6779 
6798 
6839 
6786 
6732 
6756 
6812 
6831 
6823 
6777 
6785 
6776 
6774 
6782 
6817 
6784 
6807 
6787 
6807 
6818 
6798 
6791 
6789 
6814 
6815 
6777 
6778 
6775 
6818 
6823 
6801 
6823 
6875 
6884 
6825 
6809 
6850 
6872 
6891 
6874 
6858 
6893 
6911 
6867 
6886 
6874 
6870 
6902 
6891 
6864 
6850 
6871 
6874 
6881 
6872 
6869 
6878 
6834 
6866 
6885 
6872 
6845 
6851 
6849 
6875 
6914 
6885 
6881 
6878 
6912 
7028 
7147 
7269 
7385 
7453 
7417 
7225 
7038 
6884 
6698 
6704 
6800 
6891 
6920 
6940 
6925 
6982 
6995 
7008 
7010 
7019 
7048 
7042 
7019 
7030 
7051 
7071 
7082 
7060 
7069 
7041 
7076 
7117 
7147 
7110 
7091 
7116 
7150 
7141 
7140 
7165 
7197 
7190 
7168 
7192 
7250 
7230 
7245 
7279 
7273 
7302 
7348 
7362 
7390 
7415 
7404 
7375 
7447 
7502 
7533 
7511 
7472 
7529 
7556 
7558 
7556 
7528 
7515 
7474 
7484 
7457 
7432 
7418 
7369 
7315 
7308 
7270 
7258 
7241 
7217 
7215 
7224 
7233 
7149 
7170 
7172 
7210 
7194 
7191 
7195 
7202 
7227 
7186 
7227 
7264 
7273 
7268 
7247 
7245 
7248 
7223 
7225 
7283 
7298 
7263 
7226 
7231 
7258 
7285 
7275 
7268 
7290 
7315 
7299 
7309 
7299 
7348 
7343 
7325 
7362 
7358 
7343 
7335 
7390 
7391 
7375 
7331 
7330 
7383 
7416 
7390 
7401 
7355 
7348 
7357 
7418 
7433 
7427 
7449 
7411 
7398 
7428 
7424 
7463 
7479 
7494 
7446 
7460 
7481 
7484 
7478 
7480 
7507 
7485 
7465 
7475 
7482 
7483 
7517 
7532 
7553 
7577 
7566 
7549 
7567 
7591 
7583 
7595 
7572 
7600 
7646 
7635 
7639 
7667 
7658 
7658 
7673 
7698 
7698 
7687 
7672 
7660 
7662 
7679 
7712 
7681 
7694 
7734 
7741 
7711 
7685 
7672 
7733 
7758 
7763 
7801 
7736 
7793 
7778 
7777 
7791 
7769 
7813 
7848 
8000 
8137 
8286 
8370 
8416 
8263 
7991 
7853 
7660 
7622 
7722 
7840 
7899 
7929 
7928 
7982 
7990 
7982 
7975 
7993 
8029 
8029 
8016 
8003 
8086 
8106 
8111 
8067 
8080 
8044 
8064 
8085 
8099 
8139 
8227 
8143 
8137 
8146 
8160 
8184 
8237 
8249 
8238 
8248 
8251 
8265 
8291 
8299 
8376 
8396 
8335 
8377 
8401 
8445 
8493 
8496 
8538 
8569 
8583 
8547 
8536 
8591 
8662 
8629 
8645 
8595 
8597 
8586 
8566 
8543 
8534 
8497 
8467 
8425 
8428 
8419 
8379 
8388 
8370 
8314 
8270 
8286 
8301 
8327 
8291 
8295 
8340 
8318 
8295 
8341 
8348 
8380 
8358 
8359 
8396 
8376 
8404 
8379 
8352 
8403 
8427 
8425 
8387 
8382 
8383 
8404 
8392 
8393 
8436 
8449 
8447 
8445 
8478 
8472 
8444 
8471 
8505 
8495 
8480 
8476 
8546 
8570 
8538 
8545 
8562 
8546 
8498 
8519 
8553 
8575 
8545 
8555 
8557 
8558 
8585 
8556 
8581 
8613 
8614 
8620 
8601 
8624 
8611 
8608 
8615 
8623 
8646 
8663 
8648 
8660 
8658 
8653 
8677 
8668 
8668 
8696 
8705 
8670 
8628 
8701 
8699 
8728 
8743 
8738 
8712 
8717 
8747 
8768 
8784 
8799 
8777 
8783 
8770 
8775 
8781 
8780 
8814 
8826 
8829 
8836 
8805 
8811 
8819 
8857 
8835 
8831 
8781 
8811 
8821 
8792 
8795 
8798 
8812 
8800 
8801 
8807 
8805 
8803 
8812 
8823 
8860 
8849 
8817 
8796 
8839 
8897 
8943 
9070 
9188 
9301 
9377 
9369 
9156 
8908 
8767 
8656 
8661 
8729 
8779 
8825 
8852 
8937 
8945 
8918 
8930 
8932 
8971 
8958 
8933 
8937 
8959 
8987 
8979 
8959 
8976 
9006 
8993 
8979 
9026 
9021 
9025 
9049 
9034 
9017 
9035 
9023 
9091 
9053 
9085 
9156 
9123 
9103 
9127 
9149 
9188 
9166 
9197 
9213 
9236 
9268 
9294 
9329 
9359 
9317 
9325 
9386 
9381 
9390 
9447 
9484 
9447 
9424 
9429 
9408 
9412 
9421 
9376 
9330 
9271 
9263 
9283 
9232 
9183 
9162 
9148 
9105 
9091 
9142 
9092 
9057 
9075 
9095 
9105 
9107 
9121 
9105 
9095 
9070 
9040 
9117 
9084 
9109 
9110 
9101 
9100 
9141 
9112 
9106 
9094 
9126 
9118 
9138 
9163 
9182 
9163 
9158 
9128 
9156 
9154 
9155 
9172 
9169 
9178 
9169 
9190 
9212 
9198 
9183 
9197 
9190 
9176 
9211 
9230 
9221 
9241 
9231 
9219 
9251 
9259 
9238 
9268 
9299 
9252 
9238 
9233 
9221 
9223 
9232 
9237 
9259 
9244 
9267 
9303 
9276 
9282 
9279 
9253 
9224 
9277 
9286 
9303 
9297 
9281 
9242 
9251 
9271 
9238 
9229 
9255 
9266 
9294 
9317 
9293 
9292 
9313 
9252 
9250 
9301 
9296 
9295 
9302 
9301 
9331 
9334 
9327 
9348 
9374 
9349 
9279 
9305 
9364 
9420 
9427 
9372 
9385 
9377 
9370 
9329 
9337 
9325 
9293 
9298 
9333 
9341 
9378 
9334 
9328 
9335 
9336 
9320 
9286 
9317 
9354 
9340 
9352 
9333 
9341 
9323 
9360 
9428 
9603 
9715 
9795 
9877 
9923 
9759 
9530 
9396 
9193 
9135 
9224 
9327 
9396 
9413 
9452 
9507 
9489 
9492 
9506 
9489 
9511 
9503 
9464 
9512 
9537 
9534 
9590 
9572 
9511 
9591 
9596 
9538 
9516 
9553 
9574 
9582 
9572 
9614 
9604 
9624 
9647 
9671 
9644 
9645 
9668 
9682 
9701 
9692 
9718 
9736 
9777 
9773 
9770 
9792 
9825 
9851 
9868 
9858 
9901 
9948 
9973 
9959 
9944 
9937 
9936 
9960 
9931 
9937 
9923 
9874 
9813 
9786 
9765 
9755 
9722 
9661 
9601 
9611 
9628 
9599 
9583 
9577 
9544 
9529 
9539 
9503 
9559 
9542 
9560 
9513 
9513 
9530 
9520 
9539 
9554 
9526 
9511 
9532 
9574 
9573 
9575 
9522 
9516 
9517 
9562 
9576 
9534 
9547 
9546 
9518 
9537 
9534 
9539 
9569 
9603 
9563 
9553 
9559 
9583 
9567 
9542 
9589 
9529 
9533 
9547 
9567 
9565 
9554 
9543 
9562 
9569 
9557 
9554 
9566 
9557 
9555 
9570 
9528 
9558 
9562 
9565 
9533 
9546 
9577 
9547 
9546 
9569 
9555 
9522 
9513 
9574 
9585 
9597 
9538 
9554 
9537 
9531 
9562 
9532 
9540 
9554 
9561 
9572 
9611 
9551 
9560 
9535 
9527 
9557 
9593 
9551 
9557 
9562 
9539 
9505 
9586 
9585 
9591 
9604 
9593 
9582 
9544 
9547 
9600 
9636 
9592 
9569 
9565 
9559 
9535 
9522 
9511 
9506 
9521 
9537 
9537 
9528 
9552 
9541 
9524 
9509 
9525 
9537 
9539 
9529 
9520 
9502 
9503 
9485 
9544 
9670 
9774 
9891 
10035 
10057 
9961 
9767 
9615 
9435 
9274 
9297 
9369 
9493 
9531 
9551 
9563 
9587 
9593 
9552 
9553 
9553 
9588 
9603 
9612 
9585 
9589 
9599 
9587 
9631 
9658 
9601 
9626 
9635 
9633 
9630 
9602 
9599 
9642 
9626 
9603 
9657 
9669 
9670 
9679 
9703 
9706 
9749 
9714 
9717 
9751 
9833 
9812 
9786 
9844 
9844 
9844 
9855 
9894 
9913 
9896 
9957 
9958 
9937 
9961 
9942 
9973 
9944 
9932 
9890 
9908 
9883 
9822 
9809 
9766 
9735 
9685 
9683 
9657 
9611 
9588 
9541 
9585 
9585 
9532 
9531 
9500 
9506 
9576 
9546 
9494 
9517 
9537 
9509 
9468 
9508 
9575 
9548 
9481 
9449 
9499 
9561 
9529 
9532 
9525 
9482 
9539 
9519 
9499 
9529 
9520 
9517 
9511 
9510 
9511 
9508 
9524 
9523 
9493 
9477 
9512 
9518 
9479 
9498 
9501 
9493 
9499 
9518 
9540 
9505 
9521 
9521 
9515 
9484 
9447 
9474 
9492 
9468 
9472 
9454 
9478 
9487 
9481 
9473 
9479 
9461 
9498 
9510 
9469 
9480 
9462 
9426 
9475 
9541 
9520 
9462 
9464 
9446 
9454 
9501 
9486 
9469 
9495 
9495 
9451 
9485 
9530 
9500 
9483 
9553 
9528 
9518 
9517 
9476 
9426 
9436 
9463 
9430 
9413 
9397 
9445 
9430 
9419 
9427 
9437 
9419 
9393 
9411 
9429 
9413 
9427 
9423 
9417 
9471 
9602 
9712 
9834 
9955 
10048 
9929 
9663 
9417 
9200 
9075 
9102 
9181 
9261 
9314 
9370 
9431 
9461 
9470 
9470 
9492 
9479 
9458 
9480 
9480 
9508 
9510 
9504 
9489 
9519 
9520 
9466 
9490 
9487 
9501 
9512 
9528 
9516 
9523 
9523 
9525 
9557 
9554 
9546 
9579 
9556 
9566 
9640 
9644 
9605 
9600 
9650 
9695 
9718 
9715 
9685 
9701 
9755 
9792 
9799 
9807 
9837 
9847 
9864 
9837 
9843 
9862 
9849 
9815 
9819 
9762 
9689 
9677 
9672 
9634 
9584 
9511 
9484 
9466 
9444 
9412 
9413 
9438 
9397 
9400 
9408 
9386 
9344 
9342 
9391 
9399 
9387 
9373 
9345 
9326 
9307 
9294 
9346 
9384 
9357 
9356 
9364 
9378 
9351 
9312 
9344 
9361 
9355 
9370 
9357 
9345 
9375 
9360 
9355 
9385 
9351 
9324 
9329 
9358 
9371 
9346 
9315 
9338 
9343 
9369 
9352 
9356 
9333 
9349 
9322 
9273 
9287 
9341 
9359 
9321 
9334 
9372 
9338 
9327 
9310 
9315 
9307 
9304 
9289 
9355 
9374 
9356 
9318 
9344 
9332 
9348 
9314 
9330 
9350 
9357 
9350 
9355 
9364 
9333 
9354 
9375 
9372 
9353 
9284 
9291 
9307 
9326 
9310 
9245 
9239 
9238 
9306 
9284 
9279 
9306 
9276 
9271 
9282 
9274 
9281 
9253 
9233 
9283 
9266 
9336 
9492 
9598 
9727 
9802 
9845 
9699 
9419 
9259 
9082 
8931 
8975 
9116 
9194 
9264 
9280 
9278 
9291 
9355 
9312 
9309 
9337 
9347 
9315 
9301 
9333 
9396 
9370 
9359 
9364 
9358 
9388 
9381 
9349 
9315 
9334 
9434 
9408 
9374 
9387 
9414 
9424 
9419 
9455 
9461 
9439 
9473 
9497 
9483 
9494 
9490 
9532 
9531 
9570 
9600 
9615 
9577 
9604 
9614 
9651 
9703 
9708 
9731 
9720 
9718 
9761 
9751 
9698 
9664 
9645 
9622 
9564 
9542 
9533 
9473 
9431 
9406 
9407 
9369 
9330 
9335 
9316 
9344 
9271 
9274 
9318 
9353 
9312 
9285 
9287 
9291 
9272 
9264 
9251 
9271 
9254 
9239 
9267 
9245 
9241 
9272 
9268 
9285 
9302 
9268 
9268 
9275 
9254 
9280 
9273 
9274 
9276 
9258 
9247 
9278 
9289 
9241 
9275 
9306 
9274 
9270 
9279 
9280 
9292 
9280 
9273 
9228 
9244 
9255 
9225 
9250 
9296 
9255 
9233 
9252 
9260 
9237 
9245 
9251 
9245 
9268 
9323 
9293 
9253 
9244 
9290 
9264 
9259 
9254 
9235 
9230 
9244 
9277 
9286 
9236 
9238 
9286 
9337 
9306 
9257 
9294 
9306 
9273 
9244 
9292 
9272 
9247 
9232 
9284 
9244 
9162 
9169 
9217 
9274 
9277 
9218 
9202 
9229 
9210 
9190 
9198 
9234 
9273 
9219 
9160 
9224 
9342 
9451 
9557 
9625 
9730 
9687 
9447 
9296 
9184 
8962 
8970 
9077 
9169 
9228 
9256 
9302 
9287 
9248 
9259 
9218 
9275 
9296 
9294 
9264 
9240 
9291 
9296 
9324 
9333 
9334 
9284 
9316 
9305 
9270 
9325 
9328 
9357 
9393 
9358 
9330 
9324 
9382 
9407 
9389 
9391 
9396 
9393 
9456 
9454 
9485 
9471 
9426 
9495 
9541 
9538 
9558 
9571 
9580 
9589 
9630 
9654 
9651 
9677 
9678 
9666 
9652 
9659 
9652 
9599 
9587 
9550 
9550 
9484 
9474 
9453 
9431 
9411 
9337 
9345 
9339 
9319 
9284 
9319 
9310 
9284 
9299 
9299 
9305 
9272 
9295 
9309 
9282 
9284 
9309 
9311 
9264 
9250 
9329 
9290 
9253 
9282 
9297 
9309 
9304 
9294 
9295 
9286 
9269 
9276 
9282 
9290 
9292 
9285 
9296 
9316 
9321 
9308 
9294 
9248 
9283 
9325 
9315 
9270 
9290 
9305 
9326 
9315 
9321 
9294 
9307 
9306 
9278 
9291 
9294 
9299 
9308 
9303 
9307 
9282 
9244 
9266 
9267 
9268 
9271 
9314 
9333 
9304 
9275 
9289 
9275 
9280 
9315 
9315 
9328 
9305 
9282 
9261 
9300 
9350 
9356 
9322 
9315 
9356 
9362 
9333 
9329 
9275 
9320 
9237 
9266 
9259 
9262 
9289 
9279 
9273 
9284 
9285 
9308 
9245 
9255 
9286 
9285 
9285 
9275 
9266 
9259 
9219 
9265 
9368 
9452 
9592 
9728 
9791 
9718 
9552 
9389 
9237 
9042 
9075 
9202 
9259 
9267 
9341 
9367 
9310 
9294 
9313 
9330 
9350 
9351 
9346 
9399 
9358 
9356 
9372 
9345 
9371 
9379 
9369 
9449 
9432 
9366 
9374 
9382 
9383 
9372 
9397 
9430 
9435 
9453 
9468 
9446 
9458 
9467 
9490 
9484 
9532 
9525 
9521 
9569 
9593 
9594 
9608 
9624 
9633 
9645 
9680 
9693 
9686 
9679 
9718 
9739 
9710 
9692 
9700 
9722 
9687 
9649 
9634 
9591 
9561 
9529 
9500 
9496 
9455 
9380 
9341 
9348 
9324 
9336 
9345 
9320 
9306 
9309 
9322 
9311 
9312 
9323 
9312 
9295 
9294 
9318 
9307 
9323 
9360 
9319 
9335 
9347 
9300 
9240 
9283 
9326 
9322 
9316 
9292 
9287 
9291 
9313 
9332 
9312 
9299 
9298 
9295 
9329 
9389 
9374 
9323 
9277 
9304 
9280 
9293 
9312 
9322 
9324 
9304 
9332 
9335 
9336 
9330 
9311 
9310 
9313 
9354 
9344 
9359 
9353 
9302 
9305 
9302 
9285 
9327 
9337 
9299 
9301 
9363 
9330 
9310 
9307 
9303 
9342 
9338 
9341 
9342 
9344 
9371 
9367 
9353 
9357 
9304 
9309 
9318 
9399 
9389 
9339 
9395 
9350 
9344 
9374 
9366 
9381 
9391 
9345 
9302 
9339 
9320 
9290 
9352 
9329 
9360 
9322 
9260 
9288 
9274 
9299 
9301 
9311 
9327 
9323 
9319 
9310 
9330 
9292 
9280 
9361 
9459 
9552 
9650 
9819 
9842 
9716 
9471 
9322 
9193 
9079 
9106 
9202 
9287 
9339 
9376 
9384 
9390 
9366 
9346 
9368 
9411 
9389 
9361 
9385 
9401 
9388 
9398 
9400 
9401 
9389 
9389 
9397 
9428 
9449 
9440 
9444 
9443 
9468 
9499 
9484 
9451 
9459 
9459 
9447 
9485 
9499 
9510 
9518 
9531 
9539 
9558 
9536 
9523 
9647 
9682 
9654 
9682 
9725 
9707 
9752 
9761 
9741 
9748 
9767 
9766 
9734 
9733 
9714 
9669 
9599 
9571 
9575 
9582 
9558 
9491 
9443 
9395 
9434 
9434 
9398 
9396 
9405 
9362 
9350 
9354 
9370 
9345 
9345 
9306 
9285 
9285 
9319 
9356 
9312 
9332 
9351 
9353 
9332 
9336 
9377 
9306 
9299 
9372 
9365 
9376 
9396 
9336 
9349 
9363 
9353 
9358 
9346 
9324 
9363 
9355 
9352 
9360 
9363 
9349 
9369 
9379 
9348 
9333 
9337 
9329 
9331 
9372 
9382 
9381 
9376 
9391 
9391 
9381 
9371 
9349 
9373 
9361 
9353 
9348 
9349 
9403 
9394 
9382 
9365 
9357 
9377 
9376 
9343 
9342 
9334 
9404 
9435 
9423 
9396 
9391 
9367 
9377 
9381 
9370 
9373 
9380 
9407 
9399 
9372 
9384 
9389 
9385 
9377 
9392 
9435 
9414 
9407 
9419 
9396 
9451 
9468 
9451 
9481 
9478 
9449 
9459 
9446 
9473 
9460 
9396 
9371 
9397 
9433 
9388 
9386 
9402 
9414 
9431 
9399 
9425 
9408 
9432 
9421 
9445 
9444 
9430 
9401 
9377 
9432 
9489 
9590 
9728 
9872 
10010 
9990 
9813 
9609 
9482 
9252 
9173 
9248 
9351 
9389 
9404 
9526 
9562 
9498 
9503 
9488 
9518 
9523 
9521 
9503 
9520 
9583 
9599 
9574 
9533 
9547 
9594 
9616 
9558 
9569 
9564 
9596 
9596 
9594 
9590 
9613 
9650 
9654 
9689 
9650 
9661 
9710 
9751 
9757 
9739 
9755 
9751 
9753 
9802 
9816 
9848 
9809 
9852 
9932 
9926 
9902 
9921 
9934 
9946 
9960 
9996 
10008 
10014 
9976 
9957 
9925 
9889 
9866 
9841 
9830 
9756 
9755 
9734 
9663 
9643 
9643 
9607 
9596 
9620 
9648 
9605 
9579 
9563 
9575 
9612 
9580 
9583 
9581 
9599 
9577 
9581 
9602 
9592 
9586 
9550 
9628 
9627 
9568 
9581 
9612 
9595 
9615 
9636 
9643 
9627 
9610 
9597 
9618 
9608 
9582 
9607 
9611 
9650 
9645 
9600 
9610 
9638 
9608 
9565 
9601 
9669 
9636 
9620 
9640 
9617 
9630 
9613 
9639 
9621 
9636 
9648 
9633 
9640 
9681 
9666 
9621 
9569 
9637 
9670 
9629 
9636 
9651 
9637 
9636 
9608 
9633 
9631 
9648 
9659 
9656 
9664 
9696 
9630 
9621 
9699 
9715 
9676 
9617 
9667 
9674 
9694 
9709 
9691 
9669 
9663 
9653 
9700 
9700 
9708 
9714 
9685 
9663 
9663 
9696 
9697 
9691 
9678 
9622 
9646 
9675 
9647 
9587 
9629 
9643 
9650 
9635 
9640 
9613 
9626 
9666 
9663 
9659 
9626 
9673 
9824 
9971 
10114 
10252 
10310 
10070 
9787 
9637 
9429 
9330 
9385 
9470 
9548 
9599 
9619 
9695 
9720 
9713 
9728 
9714 
9722 
9776 
9728 
9742 
9716 
9723 
9766 
9759 
9744 
9764 
9767 
9754 
9744 
9762 
9806 
9832 
9798 
9778 
9790 
9806 
9812 
9829 
9828 
9844 
9896 
9899 
9850 
9865 
9884 
9892 
9950 
9974 
9996 
10010 
10041 
10031 
10043 
10072 
10117 
10093 
10120 
10126 
10106 
10152 
10153 
10138 
10159 
10129 
10075 
10055 
10055 
9985 
9932 
9891 
9896 
9854 
9826 
9854 
9829 
9735 
9683 
9711 
9731 
9732 
9703 
9680 
9706 
9703 
9694 
9704 
9708 
9710 
9702 
9673 
9689 
9728 
9701 
9714 
9683 
9658 
9641 
9712 
9705 
9668 
9692 
9729 
9742 
9729 
9694 
9681 
9704 
9702 
9715 
9740 
9711 
9727 
9712 
9693 
9698 
9711 
9694 
9655 
9655 
9729 
9711 
9694 
9740 
9722 
9723 
9711 
9681 
9686 
9710 
9709 
9689 
9706 
9680 
9719 
9772 
9708 
9705 
9711 
9702 
9641 
9658 
9705 
9715 
9745 
9712 
9660 
9635 
9727 
9780 
9708 
9682 
9699 
9699 
9721 
9712 
9714 
9713 
9730 
9677 
9720 
9768 
9781 
9734 
9717 
9729 
9743 
9708 
9757 
9704 
9684 
9656 
9643 
9625 
9666 
9677 
9647 
9674 
9707 
9664 
9631 
9634 
9668 
9650 
9659 
9693 
9676 
9683 
9655 
9744 
9896 
9963 
10059 
10186 
10200 
10032 
9787 
9666 
9412 
9373 
9435 
9519 
9597 
9675 
9726 
9725 
9715 
9743 
9721 
9723 
9700 
9718 
9741 
9766 
9772 
9738 
9727 
9729 
9770 
9764 
9751 
9747 
9759 
9799 
9779 
9787 
9824 
9848 
9821 
9785 
9756 
9803 
9846 
9850 
9859 
9850 
9868 
9896 
9874 
9905 
9942 
9956 
9972 
10004 
10017 
9994 
9974 
10027 
10088 
10117 
10125 
10120 
10083 
10075 
10083 
10109 
10091 
10055 
10066 
10075 
10023 
9949 
9881 
9846 
9819 
9832 
9834 
9791 
9696 
9712 
9708 
9727 
9730 
9733 
9704 
9697 
9673 
9680 
9671 
9695 
9707 
9675 
9663 
9655 
9680 
9706 
9682 
9669 
9681 
9669 
9634 
9647 
9676 
9707 
9674 
9668 
9704 
9690 
9671 
9689 
9659 
9641 
9680 
9709 
9702 
9704 
9707 
9687 
9699 
9650 
9652 
9680 
9684 
9649 
9672 
9687 
9681 
9661 
9678 
9686 
9683 
9654 
9654 
9692 
9695 
9703 
9661 
9663 
9686 
9662 
9655 
9684 
9665 
9659 
9640 
9654 
9630 
9658 
9677 
9667 
9657 
9667 
9640 
9634 
9600 
9665 
9687 
9667 
9673 
9653 
9679 
9698 
9662 
9684 
9733 
9708 
9706 
9673 
9663 
9695 
9674 
9665 
9719 
9661 
9631 
9631 
9656 
9605 
9613 
9632 
9657 
9672 
9694 
9633 
9617 
9652 
9649 
9613 
9584 
9609 
9650 
9614 
9592 
9629 
9663 
9737 
9841 
9983 
10097 
10136 
10021 
9780 
9740 
9616 
9401 
9416 
9479 
9533 
9598 
9656 
9678 
9658 
9662 
9675 
9679 
9681 
9678 
9701 
9704 
9684 
9669 
9711 
9753 
9709 
9712 
9654 
9712 
9724 
9739 
9723 
9713 
9748 
9747 
9749 
9751 
9775 
9771 
9753 
9803 
9808 
9818 
9828 
9834 
9835 
9824 
9842 
9919 
9936 
9908 
9894 
9969 
10026 
10022 
10010 
10013 
10046 
10033 
10025 
10040 
10060 
10061 
10045 
10039 
10030 
10001 
9917 
9858 
9865 
9822 
9846 
9835 
9756 
9715 
9707 
9695 
9671 
9694 
9650 
9637 
9654 
9641 
9656 
9652 
9612 
9607 
9645 
9657 
9629 
9582 
9607 
9587 
9622 
9637 
9631 
9612 
9599 
9586 
9608 
9605 
9574 
9606 
9610 
9654 
9633 
9598 
9632 
9641 
9605 
9646 
9629 
9589 
9600 
9614 
9611 
9589 
9624 
9601 
9600 
9599 
9616 
9592 
9601 
9603 
9600 
9578 
9630 
9612 
9586 
9607 
9611 
9582 
9576 
9603 
9588 
9590 
9616 
9582 
9581 
9606 
9582 
9586 
9598 
9591 
9622 
9610 
9554 
9522 
9595 
9612 
9619 
9615 
9590 
9593 
9586 
9567 
9545 
9563 
9567 
9575 
9612 
9628 
9683 
9619 
9620 
9661 
9627 
9622 
9647 
9618 
9547 
9517 
9548 
9571 
9537 
9554 
9537 
9535 
9542 
9517 
9484 
9535 
9608 
9578 
9554 
9578 
9561 
9510 
9496 
9531 
9600 
9702 
9804 
9946 
10059 
10067 
9930 
9689 
9552 
9351 
9261 
9309 
9445 
9497 
9503 
9599 
9625 
9582 
9560 
9550 
9600 
9580 
9548 
9573 
9604 
9587 
9570 
9580 
9579 
9633 
9618 
9583 
9621 
9651 
9655 
9621 
9619 
9618 
9618 
9581 
9661 
9680 
9683 
9671 
9676 
9680 
9709 
9707 
9735 
9724 
9743 
9743 
9753 
9810 
9843 
9808 
9820 
9835 
9886 
9919 
9921 
9923 
9929 
9939 
9922 
9901 
9917 
9908 
9899 
9889 
9832 
9797 
9758 
9695 
9677 
9656 
9589 
9583 
9586 
9535 
9512 
9514 
9499 
9485 
9466 
9465 
9478 
9478 
9448 
9450 
9464 
9455 
9479 
9468 
9417 
9433 
9463 
9441 
9421 
9469 
9454 
9409 
9416 
9421 
9456 
9438 
9408 
9425 
9462 
9431 
9410 
9401 
9424 
9468 
9446 
9448 
9454 
9425 
9418 
9403 
9394 
9418 
9475 
9433 
9400 
9409 
9416 
9407 
9390 
9368 
9423 
9407 
9402 
9408 
9443 
9421 
9369 
9405 
9390 
9373 
9401 
9430 
9436 
9412 
9395 
9355 
9363 
9419 
9403 
9403 
9405 
9398 
9340 
9373 
9436 
9438 
9426 
9450 
9427 
9431 
9410 
9397 
9389 
9368 
9327 
9362 
9353 
9332 
9318 
9322 
9326 
9332 
9341 
9326 
9323 
9349 
9341 
9298 
9321 
9336 
9332 
9331 
9372 
9400 
9526 
9634 
9780 
9949 
9937 
9758 
9515 
9304 
9068 
8981 
9049 
9138 
9222 
9236 
9241 
9327 
9405 
9430 
9371 
9346 
9369 
9387 
9368 
9362 
9390 
9403 
9406 
9397 
9336 
9350 
9371 
9370 
9413 
9443 
9440 
9471 
9452 
9415 
9400 
9442 
9471 
9477 
9435 
9465 
9507 
9525 
9497 
9500 
9489 
9525 
9519 
9564 
9615 
9631 
9644 
9669 
9708 
9720 
9741 
9739 
9700 
9721 
9756 
9758 
9787 
9775 
9766 
9721 
9683 
9608 
9544 
9536 
9526 
9495 
9483 
9422 
9427 
9390 
9344 
9357 
9300 
9300 
9305 
9313 
9287 
9275 
9279 
9285 
9234 
9237 
9234 
9251 
9278 
9239 
9233 
9218 
9275 
9268 
9275 
9258 
9238 
9232 
9267 
9242 
9241 
9272 
9270 
9266 
9265 
9234 
9267 
9294 
9304 
9273 
9240 
9224 
9239 
9267 
9298 
9277 
9263 
9273 
9265 
9241 
9293 
9287 
9257 
9270 
9276 
9270 
9285 
9283 
9259 
9233 
9248 
9271 
9281 
9313 
9316 
9278 
9252 
9308 
9313 
9276 
9272 
9235 
9284 
9313 
9297 
9267 
9269 
9239 
9228 
9208 
9207 
9216 
9223 
9248 
9233 
9199 
9174 
9200 
9233 
9232 
9219 
9191 
9161 
9180 
9205 
9221 
9199 
9238 
9406 
9499 
9623 
9812 
9850 
9613 
9293 
9141 
8977 
8913 
8928 
9035 
9057 
9118 
9191 
9204 
9237 
9237 
9257 
9263 
9243 
9258 
9267 
9304 
9308 
9257 
9247 
9247 
9275 
9318 
9323 
9345 
9315 
9291 
9286 
9252 
9302 
9340 
9338 
9330 
9352 
9375 
9361 
9369 
9391 
9396 
9390 
9373 
9406 
9446 
9483 
9490 
9494 
9509 
9547 
9543 
9542 
9583 
9634 
9671 
9659 
9647 
9652 
9651 
9647 
9631 
9636 
9611 
9567 
9550 
9546 
9519 
9417 
9361 
9311 
9300 
9271 
9285 
9261 
9232 
9238 
9244 
9206 
9193 
9158 
9223 
9257 
9222 
9177 
9188 
9193 
9191 
9148 
9199 
9245 
9218 
9206 
9191 
9192 
9187 
9175 
9183 
9206 
9211 
9208 
9226 
9225 
9201 
9201 
9268 
9253 
9257 
9268 
9229 
9285 
9304 
9222 
9187 
9209 
9235 
9248 
9247 
9241 
9249 
9250 
9236 
9269 
9308 
9291 
9253 
9296 
9309 
9297 
9276 
9254 
9305 
9360 
9352 
9303 
9296 
9318 
9326 
9335 
9340 
9374 
9352 
9332 
9345 
9314 
9290 
9329 
9347 
9346 
9348 
9359 
9325 
9315 
9347 
9381 
9344 
9353 
9340 
9330 
9367 
9369 
9361 
9358 
9334 
9348 
9457 
9599 
9762 
9838 
9936 
9977 
9813 
9604 
9445 
9275 
9185 
9219 
9329 
9398 
9457 
9490 
9497 
9485 
9553 
9594 
9588 
9593 
9566 
9534 
9529 
9617 
9629 
9621 
9669 
9682 
9669 
9630 
9660 
9706 
9730 
9731 
9726 
9726 
9727 
9744 
9742 
9791 
9796 
9788 
9810 
9814 
9837 
9853 
9854 
9857 
9933 
9953 
9960 
10026 
10030 
10041 
10066 
10095 
10137 
10145 
10132 
10134 
10206 
10216 
10198 
10207 
10171 
10180 
10195 
10139 
10102 
10121 
10071 
10002 
10000 
10005 
9997 
9953 
9950 
9946 
9966 
9939 
9943 
9938 
9928 
9943 
9929 
9916 
9963 
9928 
9940 
9968 
9986 
9956 
9977 
9962 
9959 
10027 
10058 
9996 
10014 
10059 
10068 
10066 
10069 
10103 
10082 
10097 
10103 
10134 
10137 
10113 
10132 
10178 
10183 
10180 
10183 
10199 
10203 
10182 
10200 
10198 
10220 
10260 
10277 
10272 
10286 
10267 
10272 
10285 
10291 
10311 
10341 
10361 
10382 
10363 
10377 
10381 
10373 
10325 
10342 
10388 
10425 
10401 
10399 
10445 
10448 
10410 
10480 
10515 
10503 
10471 
10435 
10451 
10482 
10436 
10454 
10435 
10431 
10458 
10463 
10469 
10477 
10481 
10468 
10466 
10539 
10513 
10531 
10543 
10546 
10528 
10475 
10486 
10528 
10639 
10754 
10880 
10935 
11054 
11081 
10867 
10716 
10606 
10406 
10388 
10427 
10537 
10606 
10634 
10655 
10659 
10668 
10636 
10639 
10670 
10720 
10735 
10716 
10724 
10739 
10718 
10729 
10756 
10795 
10778 
10781 
10773 
10795 
10777 
10746 
10760 
10791 
10819 
10859 
10864 
10850 
10869 
10888 
10905 
10930 
10964 
10958 
10961 
10944 
10998 
11038 
11071 
11097 
11059 
11049 
11088 
11096 
11103 
11162 
11208 
11174 
11178 
11189 
11191 
11215 
11200 
11194 
11163 
11106 
11078 
11058 
11085 
11023 
10994 
10956 
10945 
10902 
10890 
10890 
10896 
10922 
10891 
10884 
10893 
10846 
10860 
10900 
10916 
10918 
10886 
10889 
10892 
10904 
10915 
10913 
10941 
10959 
10958 
10939 
10919 
10898 
10875 
10883 
10935 
10938 
10954 
10947 
10951 
10954 
10976 
11003 
10962 
10962 
10977 
10966 
10980 
10981 
10950 
10998 
11004 
10972 
10970 
10988 
10966 
11000 
10977 
10974 
11011 
11007 
11008 
11003 
10977 
11021 
11005 
10998 
11022 
11045 
11020 
10986 
10984 
10994 
11014 
11077 
11047 
11020 
11059 
11066 
11047 
11043 
11049 
11077 
11076 
11065 
11060 
11086 
11084 
11074 
11087 
11101 
11103 
11103 
11064 
11058 
11052 
11019 
11009 
11054 
11049 
11059 
11066 
11064 
11059 
11039 
11075 
11078 
11061 
11029 
11061 
11029 
11054 
11032 
11053 
11052 
11113 
11192 
11337 
11457 
11558 
11584 
11446 
11224 
11127 
10967 
10852 
10934 
11058 
11095 
11136 
11128 
11135 
11136 
11116 
11132 
11120 
11125 
11142 
11143 
11178 
11194 
11147 
11146 
11187 
11207 
11205 
11208 
11218 
11208 
11178 
11208 
11226 
11217 
11199 
11222 
11234 
11247 
11267 
11267 
11239 
11263 
11291 
11310 
11336 
11385 
11449 
11407 
11350 
11369 
11398 
11418 
11439 
11418 
11475 
11561 
11518 
11500 
11533 
11545 
11512 
11524 
11504 
11491 
11509 
11506 
11438 
11432 
11399 
11358 
11300 
11264 
11262 
11212 
11201 
11218 
11208 
11148 
11129 
11116 
11147 
11163 
11154 
11136 
11166 
11160 
11110 
11148 
11175 
11161 
11138 
11127 
11158 
11152 
11140 
11131 
11144 
11146 
11137 
11125 
11139 
11156 
11129 
11128 
11145 
11139 
11129 
11103 
11147 
11156 
11154 
11160 
11186 
11163 
11098 
11115 
11101 
11122 
11130 
11112 
11109 
11133 
11139 
11124 
11147 
11153 
11137 
11042 
11049 
11106 
11099 
11140 
11148 
11120 
11124 
11106 
11119 
11127 
11112 
11051 
11046 
11123 
11153 
11111 
11093 
11091 
11112 
11126 
11093 
11089 
11116 
11110 
11060 
11101 
11144 
11098 
11048 
11084 
11118 
11121 
11107 
11055 
11101 
11184 
11152 
11121 
11123 
11126 
11098 
11114 
11166 
11152 
11153 
11129 
11090 
11064 
11047 
11034 
11040 
11038 
11072 
11104 
11041 
11021 
11006 
11033 
11091 
11108 
11100 
11079 
11060 
11049 
11010 
11028 
11035 
11139 
11262 
11350 
11460 
11545 
11543 
11346 
11136 
11053 
10895 
10821 
10901 
11032 
11059 
11074 
11114 
11098 
11085 
11108 
11080 
11060 
11083 
11082 
11075 
11085 
11117 
11121 
11080 
11072 
11086 
11080 
11104 
11097 
11075 
11122 
11166 
11148 
11075 
11098 
11157 
11169 
11146 
11149 
11148 
11178 
11181 
11147 
11170 
11177 
11184 
11229 
11246 
11246 
11253 
11270 
11319 
11355 
11365 
11344 
11366 
11377 
11361 
11387 
11391 
11392 
11380 
11369 
11361 
11306 
11310 
11281 
11244 
11218 
11158 
11128 
11072 
11093 
11060 
10987 
11013 
11026 
11000 
10959 
10967 
10922 
10914 
10946 
10963 
10957 
10968 
10929 
10937 
10944 
10923 
10922 
10919 
10953 
10973 
10921 
10875 
10900 
10922 
10940 
10920 
10937 
10941 
10977 
10937 
10913 
10906 
10909 
10924 
10923 
10911 
10937 
10931 
10919 
10924 
10946 
10955 
10931 
10884 
10939 
10924 
10900 
10881 
10882 
10944 
10977 
10926 
10933 
10935 
10900 
10897 
10895 
10942 
10948 
10927 
10867 
10861 
10872 
10891 
10893 
10885 
10907 
10860 
10882 
10904 
10903 
10907 
10860 
10843 
10933 
10898 
10880 
10869 
10852 
10842 
10807 
10843 
10862 
10847 
10846 
10910 
10935 
10892 
10874 
10866 
10894 
10915 
10901 
10936 
10915 
10897 
10896 
10893 
10864 
10856 
10822 
10801 
10819 
10825 
10808 
10836 
10821 
10821 
10836 
10840 
10850 
10847 
10820 
10785 
10786 
10834 
10815 
10801 
10818 
10839 
10822 
10801 
10962 
11101 
11279 
11469 
11401 
11181 
10919 
10732 
10528 
10503 
10615 
10721 
10787 
10803 
10825 
10825 
10818 
10838 
10886 
10865 
10864 
10879 
10831 
10845 
10834 
10816 
10825 
10879 
10881 
10867 
10887 
10902 
10881 
10854 
10883 
10938 
10925 
10905 
10913 
10915 
10925 
10931 
10903 
10943 
10965 
10963 
10953 
10958 
10984 
11031 
11012 
11053 
11079 
11099 
11097 
11125 
11115 
11132 
11198 
11258 
11247 
11204 
11197 
11204 
11196 
11162 
11169 
11170 
11152 
11074 
11047 
11035 
10981 
10918 
10861 
10828 
10814 
10811 
10800 
10813 
10791 
10743 
10771 
10767 
10753 
10748 
10741 
10734 
10750 
10732 
10743 
10745 
10716 
10740 
10707 
10690 
10711 
10717 
10710 
10694 
10722 
10716 
10696 
10729 
10755 
10718 
10733 
10717 
10734 
10743 
10746 
10731 
10721 
10707 
10744 
10722 
10725 
10760 
10756 
10720 
10703 
10693 
10697 
10693 
10757 
10774 
10739 
10688 
10689 
10691 
10703 
10690 
10701 
10726 
10725 
10705 
10700 
10690 
10695 
10707 
10739 
10699 
10673 
10687 
10774 
10739 
10687 
10714 
10748 
10734 
10748 
10730 
10701 
10706 
10701 
10730 
10720 
10703 
10739 
10740 
10671 
10617 
10608 
10653 
10698 
10670 
10659 
10671 
10660 
10640 
10608 
10622 
10668 
10690 
10675 
10637 
10640 
10608 
10626 
10661 
10660 
10725 
10845 
10980 
11132 
11240 
11212 
10975 
10704 
10538 
10350 
10319 
10402 
10512 
10601 
10594 
10623 
10688 
10708 
10688 
10656 
10653 
10709 
10703 
10701 
10733 
10744 
10721 
10687 
10696 
10720 
10696 
10679 
10692 
10711 
10718 
10731 
10781 
10784 
10782 
10769 
10748 
10809 
10781 
10770 
10793 
10771 
10796 
10837 
10868 
10862 
10845 
10827 
10857 
10935 
10963 
10978 
10979 
10988 
11020 
11058 
11049 
11127 
11092 
11085 
11039 
11070 
11087 
11075 
10981 
10931 
10933 
10895 
10841 
10808 
10742 
10729 
10748 
10681 
10696 
10687 
10640 
10677 
10633 
10584 
10568 
10586 
10612 
10608 
10578 
10570 
10606 
10570 
10544 
10567 
10607 
10580 
10557 
10542 
10558 
10626 
10646 
10574 
10553 
10549 
10587 
10569 
10530 
10594 
10640 
10605 
10576 
10604 
10640 
10646 
10634 
10630 
10626 
10578 
10575 
10607 
10611 
10616 
10601 
10567 
10579 
10589 
10586 
10578 
10637 
10587 
10534 
10531 
10571 
10631 
10610 
10620 
10651 
10634 
10599 
10604 
10598 
10595 
10585 
10582 
10646 
10663 
10618 
10631 
10622 
10630 
10630 
10602 
10600 
10590 
10612 
10584 
10536 
10556 
10567 
10543 
10554 
10556 
10524 
10522 
10515 
10603 
10607 
10534 
10533 
10537 
10556 
10563 
10544 
10549 
10543 
10522 
10646 
10842 
10967 
11105 
11107 
11036 
10806 
10609 
10400 
10223 
10232 
10320 
10460 
10524 
10570 
10599 
10613 
10621 
10620 
10604 
10596 
10631 
10639 
10631 
10636 
10628 
10639 
10676 
10665 
10664 
10665 
10670 
10655 
10693 
10653 
10671 
10684 
10668 
10686 
10730 
10754 
10756 
10773 
10741 
10748 
10742 
10779 
10787 
10776 
10837 
10867 
10845 
10893 
10870 
10877 
10923 
10993 
10963 
10931 
10979 
11021 
11057 
11027 
11018 
11017 
11020 
11029 
11046 
11006 
10993 
10914 
10840 
10800 
10820 
10755 
10690 
10703 
10695 
10695 
10621 
10559 
10602 
10602 
10587 
10634 
10623 
10617 
10630 
10607 
10592 
10629 
10582 
10555 
10559 
10579 
10617 
10579 
10566 
10584 
10580 
10552 
10568 
10551 
10597 
10622 
10593 
10591 
10604 
10593 
10590 
10600 
10633 
10640 
10617 
10633 
10639 
10626 
10614 
10574 
10617 
10627 
10614 
10608 
10622 
10665 
10641 
10629 
10634 
10632 
10628 
10630 
10650 
10676 
10653 
10630 
10715 
10721 
10644 
10666 
10689 
10666 
10701 
10719 
10689 
10707 
10733 
10730 
10722 
10695 
10665 
10654 
10643 
10656 
10718 
10690 
10660 
10689 
10709 
10656 
10681 
10730 
10714 
10716 
10722 
10718 
10726 
10716 
10697 
10708 
10723 
10791 
10930 
11038 
11185 
11294 
11300 
11122 
10921 
10768 
10574 
10512 
10571 
10663 
10781 
10796 
10801 
10908 
10925 
10921 
10902 
10905 
10882 
10882 
10942 
10962 
10978 
10994 
11000 
11019 
11001 
11009 
11050 
11051 
11022 
11009 
11042 
11060 
11010 
11107 
11089 
11144 
11195 
11189 
11179 
11204 
11225 
11209 
11210 
11274 
11318 
11318 
11313 
11366 
11405 
11412 
11440 
11485 
11532 
11536 
11509 
11533 
11541 
11580 
11586 
11578 
11578 
11606 
11616 
11580 
11516 
11508 
11486 
11422 
11431 
11414 
11395 
11393 
11385 
11365 
11355 
11330 
11334 
11345 
11338 
11334 
11334 
11357 
11328 
11351 
11349 
11345 
11371 
11338 
11346 
11378 
11410 
11414 
11374 
11373 
11416 
11467 
11464 
11447 
11473 
11459 
11430 
11459 
11502 
11534 
11518 
11513 
11529 
11550 
11502 
11505 
11546 
11542 
11528 
11607 
11590 
11603 
11596 
11590 
11626 
11626 
11586 
11628 
11639 
11684 
11656 
11654 
11662 
11659 
11701 
11683 
11684 
11702 
11715 
11726 
11691 
11702 
11713 
11774 
11796 
11807 
11790 
11762 
11762 
11789 
11792 
11730 
11734 
11760 
11785 
11808 
11758 
11759 
11799 
11785 
11775 
11782 
11805 
11809 
11792 
11801 
11845 
11839 
11858 
11828 
11810 
11880 
11999 
12129 
12243 
12369 
12438 
12403 
12163 
12001 
11817 
11669 
11709 
11787 
11875 
11910 
11916 
11931 
11977 
12003 
11997 
11996 
12031 
12019 
12017 
12036 
12044 
12071 
12057 
12038 
12045 
12053 
12052 
12014 
12028 
12075 
12046 
12095 
12131 
12132 
12077 
12073 
12117 
12154 
12150 
12161 
12149 
12161 
12190 
12197 
12199 
12223 
12213 
12196 
12243 
12258 
12271 
12305 
12304 
12348 
12369 
12348 
12399 
12396 
12424 
12422 
12368 
12377 
12388 
12371 
12335 
12306 
12236 
12205 
12164 
12156 
12141 
12134 
12114 
12063 
12040 
12067 
12070 
12058 
12049 
12028 
11997 
11968 
12013 
12010 
12016 
12003 
12003 
11987 
12007 
12003 
12004 
12010 
11997 
12053 
12051 
12032 
12039 
12000 
12025 
12032 
12029 
12024 
12039 
12017 
12017 
12027 
12024 
12022 
12024 
11996 
12021 
12064 
12051 
12028 
12012 
12046 
12042 
12041 
12082 
12034 
12041 
12061 
12027 
12003 
12072 
12038 
12022 
12067 
12053 
12021 
12014 
12055 
12054 
12069 
12079 
12039 
12065 
12078 
12033 
12054 
12081 
12089 
12092 
12076 
12103 
12071 
12088 
12093 
12074 
12078 
12081 
12043 
12019 
12046 
12079 
12013 
12001 
12010 
12027 
12010 
12035 
12031 
12052 
11973 
11998 
12012 
12033 
12060 
12009 
12047 
12045 
11990 
12017 
12083 
12214 
12320 
12449 
12535 
12520 
12342 
12195 
12065 
11890 
11826 
11861 
11885 
11942 
12039 
12104 
12084 
12089 
12122 
12122 
12058 
12105 
12122 
12089 
12101 
12108 
12123 
12128 
12131 
12114 
12144 
12137 
12122 
12114 
12128 
12126 
12154 
12168 
12174 
12218 
12192 
12166 
12167 
12145 
12182 
12218 
12249 
12251 
12216 
12237 
12280 
12292 
12313 
12294 
12340 
12391 
12388 
12398 
12407 
12441 
12436 
12389 
12439 
12445 
12485 
12489 
12452 
12381 
12310 
12312 
12298 
12251 
12251 
12232 
12222 
12189 
12146 
12077 
12059 
12083 
12064 
12105 
12062 
12020 
12001 
12036 
12039 
12011 
11964 
11961 
12009 
12001 
11988 
11968 
11990 
11977 
11990 
11994 
11980 
11955 
11992 
12026 
12036 
12004 
12001 
11972 
11994 
12011 
12025 
12022 
12007 
11974 
11991 
11984 
11907 
11921 
11957 
11980 
11998 
11997 
11989 
11981 
11974 
11964 
11974 
11986 
11992 
12001 
11977 
11929 
11942 
12008 
11979 
11950 
11959 
11956 
11929 
11942 
11919 
11906 
11929 
11930 
11941 
11922 
11897 
11928 
11932 
11931 
11929 
11913 
11930 
11954 
11913 
11885 
11884 
11893 
11955 
11963 
11938 
11959 
11927 
11931 
11901 
11885 
11905 
11903 
11887 
11907 
11882 
11864 
11846 
11829 
11861 
11850 
11839 
11808 
11831 
11835 
11763 
11783 
11850 
11854 
11841 
11804 
11838 
11814 
11784 
11802 
11835 
11921 
12019 
12132 
12229 
12315 
12260 
12060 
11889 
11743 
11573 
11595 
11644 
11736 
11801 
11770 
11793 
11836 
11847 
11817 
11831 
11851 
11814 
11829 
11817 
11814 
11819 
11844 
11831 
11803 
11823 
11832 
11840 
11853 
11829 
11847 
11802 
11851 
11826 
11846 
11859 
11875 
11876 
11882 
11884 
11866 
11913 
11909 
11876 
11897 
11911 
11961 
11954 
11957 
12005 
12033 
12017 
11989 
12033 
12040 
12075 
12068 
12044 
12073 
12087 
12050 
12074 
12095 
12064 
12001 
12003 
12005 
11960 
11882 
11846 
11835 
11800 
11758 
11700 
11751 
11740 
11695 
11674 
11675 
11679 
11686 
11664 
11659 
11675 
11675 
11705 
11674 
11624 
11673 
11693 
11701 
11652 
11639 
11655 
11648 
11655 
11652 
11648 
11620 
11624 
11620 
11664 
11670 
11642 
11628 
11624 
11628 
11636 
11646 
11662 
11639 
11639 
11651 
11644 
11601 
11622 
11625 
11597 
11590 
11622 
11606 
11649 
11642 
11578 
11583 
11620 
11625 
11581 
11599 
11622 
11653 
11632 
11597 
11572 
11587 
11562 
11543 
11629 
11629 
11569 
11575 
11592 
11593 
11608 
11576 
11597 
11572 
11563 
11564 
11577 
11604 
11608 
11583 
11554 
11556 
11605 
11617 
11586 
11608 
11607 
11612 
11583 
11598 
11609 
11603 
11582 
11611 
11588 
11601 
11606 
11585 
11592 
11583 
11551 
11533 
11515 
11505 
11512 
11506 
11527 
11520 
11487 
11511 
11497 
11513 
11541 
11541 
11522 
11521 
11496 
11481 
11453 
11482 
11528 
11637 
11713 
11818 
11915 
11966 
11892 
11682 
11573 
11453 
11273 
11337 
11406 
11446 
11534 
11560 
11572 
11572 
11583 
11539 
11530 
11520 
11521 
11545 
11577 
11486 
11506 
11556 
11540 
11549 
11562 
11556 
11550 
11596 
11586 
11604 
11633 
11615 
11596 
11608 
11631 
11638 
11656 
11623 
11670 
11659 
11669 
11701 
11684 
11683 
11682 
11657 
11691 
11746 
11753 
11753 
11836 
11857 
11820 
11839 
11820 
11825 
11858 
11859 
11824 
11814 
11899 
11882 
11860 
11811 
11783 
11727 
11685 
11632 
11633 
11582 
11567 
11546 
11499 
11500 
11520 
11504 
11470 
11454 
11416 
11415 
11416 
11398 
11403 
11431 
11434 
11404 
11449 
11456 
11446 
11419 
11390 
11375 
11389 
11405 
11392 
11383 
11411 
11438 
11450 
11433 
11410 
11374 
11363 
11424 
11468 
11481 
11407 
11397 
11391 
11427 
11449 
11389 
11384 
11419 
11429 
11434 
11407 
11416 
11399 
11391 
11364 
11391 
11423 
11418 
11395 
11420 
11414 
11418 
11428 
11416 
11408 
11418 
11420 
11393 
11413 
11414 
11446 
11460 
11428 
11375 
11407 
11415 
11406 
11419 
11411 
11379 
11372 
11445 
11407 
11415 
11425 
11464 
11456 
11462 
11469 
11489 
11437 
11452 
11485 
11494 
11511 
11510 
11496 
11513 
11538 
11488 
11493 
11530 
11544 
11540 
11541 
11537 
11506 
11513 
11524 
11522 
11501 
11430 
11516 
11557 
11527 
11507 
11495 
11518 
11526 
11550 
11540 
11505 
11497 
11524 
11520 
11503 
11577 
11556 
11514 
11547 
11652 
11819 
11927 
11995 
12037 
11957 
11726 
11619 
11465 
11319 
11369 
11477 
11600 
11599 
11612 
11634 
11631 
11626 
11640 
11623 
11635 
11642 
11636 
11665 
11624 
11671 
11671 
11676 
11681 
11686 
11679 
11679 
11642 
11677 
11724 
11721 
11730 
11729 
11716 
11758 
11772 
11761 
11760 
11761 
11770 
11780 
11817 
11835 
11816 
11820 
11860 
11875 
11896 
11905 
11900 
11945 
11958 
11981 
12015 
12016 
11998 
12025 
12056 
12075 
12055 
12069 
12030 
12005 
11990 
12021 
11963 
11888 
11875 
11845 
11797 
11797 
11757 
11737 
11743 
11720 
11702 
11713 
11710 
11718 
11716 
11685 
11690 
11706 
11712 
11703 
11690 
11717 
11685 
11684 
11673 
11692 
11660 
11681 
11702 
11682 
11700 
11733 
11725 
11652 
11682 
11710 
11720 
11741 
11736 
11725 
11731 
11732 
11729 
11736 
11738 
11733 
11708 
11675 
11719 
11744 
11727 
11754 
11747 
11723 
11682 
11731 
11744 
11727 
11716 
11723 
11767 
11774 
11736 
11729 
11760 
11764 
11735 
11729 
11768 
11791 
11760 
11738 
11763 
11769 
11756 
11739 
11750 
11770 
11794 
11767 
11760 
11753 
11771 
11795 
11762 
11757 
11777 
11780 
11804 
11819 
11825 
11797 
11782 
11799 
11820 
11803 
11805 
11811 
11802 
11824 
11817 
11832 
11849 
11834 
11833 
11837 
11864 
11848 
11818 
11831 
11829 
11811 
11864 
11894 
11887 
11846 
11861 
11850 
11839 
11829 
11812 
11753 
11785 
11798 
11792 
11803 
11830 
11835 
11818 
11804 
11821 
11924 
11979 
12115 
12203 
12298 
12387 
12188 
11921 
11838 
11654 
11548 
11651 
11749 
11802 
11839 
11892 
11908 
11908 
11857 
11847 
11901 
11906 
11927 
11960 
11936 
11921 
11891 
11905 
11935 
11951 
11968 
11974 
11965 
11964 
11964 
11961 
11966 
12004 
12004 
12011 
12001 
11999 
12005 
12035 
12042 
12080 
12109 
12110 
12066 
12108 
12105 
12121 
12130 
12129 
12191 
12224 
12230 
12239 
12277 
12283 
12264 
12277 
12292 
12283 
12266 
12262 
12295 
12326 
12269 
12261 
12235 
12205 
12115 
12074 
12088 
12100 
12054 
11982 
11969 
11936 
11919 
11913 
11921 
11889 
11904 
11899 
11873 
11830 
11907 
11922 
11898 
11898 
11899 
11867 
11857 
11909 
11891 
11841 
11873 
11931 
11898 
11882 
11865 
11866 
11867 
11890 
11907 
11879 
11889 
11884 
11848 
11867 
11903 
11936 
11928 
11874 
11895 
11915 
11917 
11890 
11874 
11919 
11860 
11845 
11950 
11938 
11907 
11899 
11891 
11861 
11867 
11875 
11926 
11890 
11897 
11874 
11887 
11902 
11902 
11914 
11876 
11863 
11917 
11888 
11915 
11887 
11929 
11875 
11862 
11894 
11941 
11929 
11918 
11903 
11899 
11907 
11900 
11904 
11927 
11954 
11932 
11907 
11983 
11993 
11940 
11945 
11941 
11927 
11912 
11915 
11929 
11944 
11958 
11896 
11870 
11897 
11903 
11898 
11887 
11860 
11861 
11848 
11854 
11878 
11875 
11864 
11887 
11869 
11883 
11868 
11860 
11858 
11862 
11877 
11936 
12122 
12287 
12422 
12462 
12310 
12027 
11841 
11651 
11552 
11631 
11681 
11738 
11813 
11845 
11899 
11904 
11893 
11921 
11924 
11897 
11937 
11942 
11925 
11905 
11911 
11967 
11964 
11944 
11933 
11943 
11985 
12008 
11994 
11983 
11932 
11948 
11978 
11978 
11993 
11977 
11991 
12023 
12039 
12067 
12059 
12075 
12086 
12101 
12086 
12075 
12126 
12159 
12154 
12186 
12197 
12214 
12234 
12247 
12268 
12308 
12321 
12291 
12287 
12284 
12269 
12226 
12264 
12239 
12207 
12207 
12130 
12099 
12083 
12068 
12031 
11957 
11913 
11911 
11897 
11907 
11920 
11898 
11880 
11824 
11834 
11872 
11854 
11828 
11813 
11831 
11856 
11865 
11836 
11817 
11838 
11861 
11841 
11826 
11850 
11856 
11845 
11829 
11851 
11856 
11842 
11841 
11850 
11833 
11852 
11862 
11873 
11840 
11815 
11819 
11830 
11824 
11786 
11857 
11890 
11870 
11834 
11835 
11834 
11857 
11826 
11857 
11853 
11841 
11794 
11816 
11849 
11822 
11789 
11790 
11820 
11829 
11835 
11842 
11832 
11829 
11860 
11868 
11899 
11869 
11836 
11885 
11840 
11894 
11899 
11864 
11856 
11879 
11924 
11862 
11835 
11826 
11820 
11825 
11822 
11824 
11832 
11816 
11807 
11797 
11811 
11802 
11791 
11819 
11829 
11801 
11793 
11825 
11770 
11816 
11820 
11768 
11761 
11842 
11930 
12059 
12220 
12353 
12341 
12172 
11929 
11761 
11562 
11468 
11539 
11619 
11723 
11761 
11787 
11818 
11860 
11871 
11877 
11889 
11853 
11838 
11858 
11845 
11838 
11854 
11868 
11848 
11855 
11845 
11834 
11863 
11872 
11882 
11918 
11939 
11919 
11920 
11924 
11950 
11970 
11937 
11929 
11955 
11962 
11976 
12000 
11951 
12012 
12006 
12038 
12044 
12054 
12090 
12102 
12114 
12145 
12184 
12197 
12204 
12224 
12229 
12239 
12206 
12241 
12244 
12182 
12166 
12111 
12082 
12106 
12052 
11998 
11962 
11942 
11920 
11883 
11882 
11848 
11808 
11823 
11830 
11788 
11826 
11811 
11790 
11818 
11765 
11776 
11799 
11795 
11777 
11760 
11757 
11762 
11784 
11829 
11795 
11769 
11778 
11771 
11765 
11785 
11831 
11799 
11772 
11781 
11797 
11792 
11797 
11788 
11752 
11768 
11765 
11787 
11834 
11832 
11796 
11745 
11789 
11803 
11790 
11804 
11786 
11787 
11787 
11776 
11764 
11769 
11793 
11805 
11801 
11770 
11765 
11769 
11759 
11773 
11758 
11736 
11769 
11788 
11783 
11782 
11814 
11829 
11781 
11783 
11799 
11813 
11835 
11826 
11818 
11814 
11816 
11833 
11830 
11804 
11839 
11845 
11814 
11822 
11824 
11794 
11749 
11771 
11799 
11802 
11769 
11782 
11807 
11810 
11781 
11761 
11736 
11768 
11785 
11758 
11776 
11781 
11779 
11739 
11751 
11823 
11933 
12096 
12208 
12286 
12247 
12059 
11920 
11791 
11576 
11481 
11589 
11718 
11778 
11783 
11818 
11840 
11833 
11816 
11812 
11861 
11866 
11852 
11869 
11896 
11906 
11874 
11888 
11922 
11923 
11888 
11893 
11900 
11905 
11884 
11923 
11967 
11969 
11997 
11946 
11928 
11939 
11954 
11962 
11994 
12015 
12018 
12037 
12033 
12020 
12060 
12099 
12106 
12085 
12134 
12185 
12198 
12218 
12227 
12228 
12244 
12259 
12254 
12223 
12216 
12244 
12265 
12254 
12241 
12223 
12206 
12169 
12088 
12062 
12091 
12034 
11995 
11971 
11990 
11977 
11942 
11905 
11937 
11954 
11913 
11907 
11926 
11953 
11950 
11927 
11947 
11930 
11906 
11903 
11922 
11945 
11944 
11978 
11982 
11935 
11956 
11946 
11958 
11947 
11958 
12000 
11984 
11971 
11975 
11981 
11928 
11938 
11986 
11976 
11959 
11973 
12005 
12004 
11985 
12006 
12032 
12027 
12036 
12004 
12049 
12050 
12044 
12044 
12014 
12010 
12031 
11987 
11978 
12010 
12019 
12008 
11997 
12035 
12066 
12074 
12056 
12070 
12053 
12026 
12074 
12079 
12088 
12066 
12092 
12143 
12103 
12075 
12067 
12098 
12130 
12104 
12063 
12100 
12123 
12140 
12106 
12100 
12078 
12040 
12062 
12078 
12074 
12086 
12071 
12105 
12077 
12068 
12071 
12032 
12035 
12049 
12022 
12089 
12090 
12078 
12094 
12095 
12186 
12299 
12386 
12477 
12576 
12589 
12400 
12171 
12034 
11885 
11850 
11960 
12017 
12130 
12170 
12136 
12174 
12199 
12165 
12136 
12129 
12149 
12190 
12170 
12212 
12216 
12222 
12210 
12221 
12209 
12185 
12221 
12240 
12266 
12277 
12259 
12244 
12260 
12276 
12294 
12285 
12267 
12287 
12323 
12329 
12328 
12353 
12360 
12362 
12376 
12357 
12374 
12398 
12445 
12473 
12495 
12510 
12530 
12566 
12563 
12563 
12557 
12552 
12597 
12610 
12566 
12560 
12544 
12517 
12478 
12477 
12447 
12419 
12377 
12344 
12289 
12287 
12259 
12271 
12241 
12236 
12207 
12199 
12196 
12209 
12208 
12173 
12150 
12208 
12250 
12234 
12194 
12212 
12180 
12180 
12201 
12189 
12206 
12173 
12182 
12181 
12179 
12216 
12199 
12200 
12184 
12215 
12190 
12203 
12203 
12215 
12239 
12198 
12165 
12219 
12224 
12214 
12198 
12201 
12215 
12201 
12229 
12209 
12203 
12217 
12207 
12179 
12211 
12191 
12193 
12210 
12227 
12188 
12179 
12182 
12205 
12187 
12187 
12192 
12202 
12201 
12173 
12225 
12235 
12226 
12245 
12242 
12218 
12220 
12233 
12211 
12226 
12271 
12258 
12219 
12233 
12231 
12201 
12169 
12187 
12178 
12184 
12166 
12137 
12142 
12167 
12133 
12156 
12154 
12143 
12120 
12122 
12163 
12168 
12131 
12110 
12178 
12153 
12140 
12246 
12388 
12442 
12543 
12607 
12633 
12430 
12189 
12033 
11850 
11846 
11930 
12020 
12075 
12131 
12161 
12168 
12124 
12196 
12259 
12241 
12202 
12183 
12204 
12191 
12198 
12178 
12178 
12206 
12202 
12200 
12204 
12176 
12170 
12183 
12192 
12193 
12211 
12216 
12247 
12213 
12242 
12293 
12320 
12299 
12303 
12265 
12248 
12280 
12332 
12353 
12361 
12373 
12382 
12395 
12416 
12434 
12448 
12467 
12466 
12481 
12493 
12485 
12491 
12541 
12510 
12500 
12483 
12475 
12406 
12357 
12346 
12344 
12317 
12288 
12215 
12201 
12146 
12133 
12122 
12142 
12130 
12115 
12091 
12051 
12058 
12075 
12090 
12081 
12064 
12079 
12078 
12088 
12054 
12049 
12087 
12098 
12098 
12081 
12091 
12093 
12080 
12056 
12088 
12097 
12119 
12064 
12063 
12083 
12065 
12055 
12047 
12084 
12080 
12081 
12108 
12081 
12090 
12059 
12065 
12118 
12091 
12078 
12058 
12026 
12102 
12083 
12084 
12067 
12050 
12049 
12064 
12068 
12115 
12075 
12019 
12018 
12037 
12081 
12100 
12080 
12085 
12080 
12068 
12093 
12120 
12103 
12123 
12129 
12103 
12106 
12126 
12078 
12066 
12084 
12059 
12064 
12063 
12019 
12006 
12047 
12049 
12017 
12016 
12015 
12013 
11997 
12011 
12013 
12003 
12009 
12043 
12042 
12008 
11993 
11987 
12059 
12173 
12319 
12459 
12581 
12569 
12393 
12151 
11994 
11800 
11708 
11782 
11880 
11969 
11987 
12018 
12053 
12042 
12050 
12056 
12091 
12072 
12089 
12091 
12095 
12107 
12074 
12075 
12101 
12083 
12105 
12140 
12127 
12108 
12101 
12121 
12142 
12168 
12140 
12143 
12135 
12158 
12162 
12181 
12177 
12224 
12249 
12256 
12242 
12267 
12251 
12268 
12270 
12323 
12320 
12327 
12336 
12422 
12428 
12402 
12412 
12432 
12430 
12417 
12430 
12446 
12431 
12403 
12372 
12340 
12343 
12293 
12281 
12216 
12185 
12196 
12140 
12071 
12101 
12091 
12082 
12056 
12045 
12029 
11993 
12000 
12046 
12051 
12001 
12009 
11995 
11965 
12011 
12051 
12067 
12032 
12028 
12030 
12001 
12007 
12004 
11996 
11996 
12033 
12038 
12011 
12022 
12022 
12045 
12006 
12011 
12032 
11994 
12011 
12029 
12022 
12036 
12015 
12064 
12063 
12019 
12026 
12036 
12006 
12046 
12051 
11984 
12017 
12061 
12016 
11999 
11993 
12011 
11994 
11998 
12010 
12021 
12022 
12027 
12040 
12059 
12045 
12019 
11985 
12018 
12096 
12094 
12052 
12042 
12080 
12064 
12045 
12032 
12041 
12031 
11995 
12011 
11982 
11952 
11952 
11990 
11966 
11987 
11980 
11963 
11969 
11972 
11967 
11966 
11957 
11951 
11974 
11960 
11958 
11955 
11956 
12023 
12158 
12303 
12405 
12519 
12613 
12451 
12160 
11953 
11726 
11647 
11728 
11765 
11886 
11934 
11977 
12023 
12043 
12028 
12003 
12007 
12044 
12050 
12053 
12008 
12059 
12075 
12092 
12081 
12041 
12046 
12061 
12099 
12089 
12079 
12080 
12071 
12123 
12136 
12164 
12133 
12098 
12121 
12117 
12153 
12180 
12183 
12178 
12182 
12215 
12198 
12185 
12256 
12333 
12308 
12352 
12331 
12331 
12349 
12413 
12439 
12425 
12417 
12432 
12424 
12418 
12380 
12399 
12362 
12330 
12301 
12259 
12235 
12205 
12174 
12149 
12093 
12048 
12068 
12035 
12004 
12031 
11986 
11956 
11977 
12021 
11996 
11990 
11969 
11945 
11954 
12000 
11973 
11924 
11932 
11942 
11958 
11978 
11974 
11945 
11956 
11948 
11971 
11949 
11931 
11995 
11984 
12008 
11977 
11992 
11949 
11951 
11954 
11974 
11982 
11949 
11973 
11963 
11979 
12026 
11995 
11949 
11963 
11968 
11961 
11962 
11977 
11946 
11939 
11943 
11972 
12002 
11968 
11965 
11961 
11969 
11960 
11954 
11983 
11973 
11961 
11971 
11993 
11987 
11977 
11973 
12002 
12001 
11981 
12008 
11977 
11982 
11982 
11925 
11916 
11915 
11966 
11966 
11919 
11915 
11954 
11956 
11937 
11925 
11918 
11954 
11977 
11960 
11920 
11917 
11918 
11917 
11925 
11927 
12008 
12198 
12291 
12409 
12544 
12495 
12246 
12006 
11830 
11639 
11656 
11698 
11765 
11852 
11914 
11937 
11965 
11978 
11963 
12021 
12067 
11974 
11925 
11974 
11986 
12004 
11989 
11981 
12005 
12026 
12020 
12021 
12055 
12055 
12016 
12017 
12034 
12031 
12015 
11996 
12042 
12091 
12079 
12093 
12091 
12120 
12113 
12109 
12150 
12182 
12175 
12158 
12197 
12244 
12228 
12254 
12269 
12262 
12249 
12305 
12332 
12347 
12373 
12325 
12315 
12388 
12374 
12323 
12277 
12238 
12210 
12154 
12126 
12101 
12076 
12052 
12028 
11960 
11938 
11961 
11929 
11931 
11933 
11930 
11943 
11889 
11887 
11938 
11924 
11846 
11831 
11866 
11887 
11892 
11872 
11881 
11884 
11878 
11872 
11865 
11859 
11855 
11858 
11910 
11919 
11854 
11838 
11834 
11879 
11895 
11832 
11876 
11896 
11859 
11897 
11887 
11866 
11885 
11879 
11902 
11899 
11879 
11829 
11838 
11885 
11872 
11845 
11870 
11873 
11854 
11851 
11856 
11885 
11884 
11845 
11858 
11849 
11857 
11916 
11920 
11901 
11909 
11942 
11922 
11933 
11961 
11912 
11921 
11932 
11910 
11875 
11861 
11847 
11874 
11880 
11833 
11823 
11795 
11803 
11810 
11848 
11875 
11827 
11840 
11864 
11856 
11839 
11844 
11877 
11846 
11860 
11868 
11880 
11944 
12060 
12213 
12323 
12398 
12321 
12072 
11897 
11706 
11542 
11560 
11653 
11711 
11766 
11838 
11852 
11881 
11949 
11923 
11887 
11883 
11875 
11907 
11917 
11907 
11924 
11941 
11927 
11920 
11923 
11888 
11882 
11935 
11984 
11967 
11934 
11943 
11949 
11955 
11951 
11955 
11974 
11985 
12047 
12055 
12050 
12046 
12030 
12036 
12078 
12114 
12117 
12127 
12177 
12171 
12192 
12203 
12224 
12264 
12258 
12235 
12254 
12246 
12269 
12268 
12254 
12264 
12229 
12182 
12166 
12111 
12079 
12045 
12001 
11963 
11989 
11974 
11953 
11939 
11910 
11903 
11877 
11865 
11901 
11857 
11846 
11840 
11870 
11876 
11858 
11839 
11864 
11844 
11834 
11847 
11850 
11840 
11842 
11849 
11815 
11874 
11843 
11908 
11859 
11855 
11877 
11888 
11841 
11833 
11866 
11876 
11862 
11849 
11863 
11887 
11900 
11874 
11891 
11898 
11887 
11885 
11854 
11829 
11858 
11852 
11840 
11855 
11894 
11878 
11871 
11874 
11838 
11855 
11851 
11851 
11868 
11881 
11903 
11873 
11856 
11904 
11897 
11886 
11881 
11903 
11897 
11850 
11878 
11913 
11917 
11854 
11892 
11944 
11909 
11888 
11865 
11844 
11867 
11855 
11882 
11849 
11843 
11838 
11823 
11845 
11847 
11812 
11840 
11869 
11841 
11831 
11843 
11815 
11872 
11841 
11809 
11816 
11804 
11894 
12022 
12148 
12272 
12348 
12334 
12151 
11960 
11845 
11649 
11589 
11687 
11745 
11821 
11811 
11856 
11900 
11921 
11908 
11867 
11877 
11856 
11870 
11868 
11915 
11923 
11898 
11909 
11907 
11881 
11879 
11914 
11980 
11957 
11931 
11961 
11975 
11967 
11943 
11940 
11993 
11962 
11947 
11971 
11972 
11985 
12033 
12041 
12049 
12068 
12095 
12095 
12048 
12103 
12141 
12155 
12199 
12182 
12186 
12204 
12214 
12256 
12276 
12255 
12207 
12228 
12281 
12239 
12190 
12160 
12105 
12066 
12048 
12042 
11997 
11979 
11978 
11970 
11920 
11871 
11854 
11840 
11863 
11858 
11821 
11834 
11871 
11868 
11872 
11829 
11837 
11883 
11861 
11837 
11864 
11851 
11838 
11827 
11818 
11857 
11856 
11850 
11835 
11826 
11847 
11804 
11849 
11880 
11846 
11818 
11811 
11838 
11860 
11866 
11862 
11840 
11838 
11875 
11869 
11875 
11862 
11864 
11879 
11882 
11861 
11858 
11912 
11909 
11822 
11809 
11849 
11857 
11833 
11841 
11821 
11848 
11841 
11820 
11822 
11863 
11873 
11887 
11865 
11862 
11844 
11833 
11887 
11880 
11865 
11877 
11887 
11867 
11854 
11866 
11855 
11831 
11831 
11862 
11858 
11872 
11912 
11903 
11875 
11878 
11865 
11880 
11939 
11921 
11927 
11927 
11904 
11851 
11847 
11850 
11843 
11857 
11843 
11821 
11839 
11854 
11844 
11828 
11841 
11826 
11830 
11840 
11821 
11819 
11823 
11820 
11848 
11902 
11999 
12110 
12236 
12339 
12362 
12238 
12010 
11898 
11738 
11605 
11684 
11766 
11834 
11887 
11895 
11884 
11884 
11886 
11881 
11912 
11901 
11875 
11857 
11891 
11934 
11913 
11926 
11900 
11922 
11941 
11946 
11958 
11987 
11964 
11950 
11944 
11940 
11948 
11979 
11976 
11942 
11965 
12010 
11997 
11965 
11995 
12034 
12013 
12002 
12071 
12102 
12089 
12116 
12120 
12126 
12163 
12200 
12183 
12209 
12217 
12219 
12225 
12219 
12229 
12192 
12171 
12227 
12217 
12179 
12180 
12172 
12098 
12037 
12006 
11986 
11955 
11926 
11940 
11939 
11894 
11895 
11903 
11871 
11831 
11811 
11813 
11853 
11839 
11840 
11836 
11870 
11833 
11839 
11877 
11868 
11885 
11878 
11856 
11831 
11847 
11864 
11836 
11841 
11838 
11837 
11850 
11880 
11834 
11836 
11861 
11847 
11844 
11823 
11830 
11883 
11865 
11866 
11843 
11810 
11826 
11844 
11854 
11822 
11839 
11902 
11872 
11837 
11798 
11799 
11819 
11853 
11889 
11865 
11839 
11831 
11859 
11850 
11817 
11833 
11870 
11838 
11838 
11850 
11851 
11834 
11832 
11826 
11823 
11851 
11852 
11804 
11830 
11861 
11840 
11846 
11846 
11822 
11858 
11849 
11867 
11856 
11828 
11831 
11861 
11867 
11859 
11878 
11887 
11848 
11852 
11903 
11896 
11834 
11859 
11853 
11853 
11872 
11902 
11868 
11835 
11805 
11808 
11818 
11815 
11801 
11797 
11812 
11802 
11784 
11807 
11809 
11802 
11819 
11820 
11815 
11779 
11774 
11789 
11768 
11781 
11857 
11962 
12012 
12158 
12272 
12308 
12149 
11954 
11846 
11674 
11585 
11641 
11749 
11770 
11807 
11836 
11825 
11844 
11826 
11857 
11859 
11845 
11869 
11864 
11855 
11885 
11875 
11874 
11844 
11845 
11891 
11902 
11933 
11907 
11888 
11895 
11932 
11964 
11937 
11925 
11951 
11941 
11962 
11998 
11993 
11971 
11976 
11961 
11989 
12045 
12047 
12053 
12040 
12065 
12074 
12086 
12171 
12155 
12150 
12179 
12198 
12188 
12217 
12219 
12207 
12200 
12188 
12193 
12157 
12147 
12145 
12105 
12067 
12017 
12013 
11980 
11917 
11919 
11908 
11890 
11870 
11865 
11832 
11833 
11851 
11851 
11842 
11781 
11821 
11850 
11848 
11793 
11787 
11822 
11812 
11799 
11832 
11825 
11818 
11821 
11824 
11811 
11781 
11806 
11843 
11828 
11837 
11823 
11859 
11823 
11818 
11809 
11821 
11850 
11830 
11822 
11827 
11840 
11842 
11786 
11817 
11849 
11827 
11829 
11836 
11816 
11781 
11849 
11848 
11820 
11814 
11797 
11822 
11861 
11874 
11833 
11818 
11807 
11821 
11848 
11781 
11802 
11840 
11844 
11837 
11833 
11859 
11828 
11821 
11841 
11837 
11810 
11788 
11798 
11825 
11821 
11815 
11814 
11820 
11824 
11800 
11798 
11815 
11816 
11816 
11854 
11837 
11809 
11772 
11801 
11835 
11812 
11828 
11792 
11781 
11807 
11817 
11850 
11848 
11838 
11859 
11879 
11859 
11868 
11847 
11821 
11852 
11863 
11844 
11857 
11833 
11825 
11830 
11801 
11807 
11812 
11801 
11802 
11789 
11780 
11778 
11776 
11800 
11787 
11797 
11808 
11765 
11779 
11794 
11781 
11752 
11806 
11868 
11960 
12008 
12133 
12229 
12284 
12167 
11959 
11834 
11716 
11566 
11602 
11711 
11777 
11807 
11837 
11837 
11835 
11851 
11858 
11871 
11873 
11895 
11861 
11794 
11838 
11911 
11905 
11900 
11890 
11891 
11921 
11899 
11894 
11907 
11880 
11896 
11912 
11909 
11904 
11919 
11967 
11985 
11977 
11968 
11968 
12002 
11961 
11947 
11965 
12001 
12031 
12054 
12052 
12091 
12090 
12128 
12143 
12148 
12175 
12189 
12182 
12196 
12208 
12213 
12188 
12207 
12163 
12166 
12193 
12155 
12110 
12087 
12053 
11984 
11971 
11950 
11895 
11893 
11889 
11838 
11800 
11825 
11861 
11839 
11814 
11819 
11819 
11813 
11783 
11797 
11769 
11804 
11813 
11809 
11810 
11797 
11774 
11767 
11771 
11802 
11792 
11812 
11831 
11826 
11812 
11804 
11782 
11806 
11819 
11774 
11796 
11807 
11806 
11793 
11790 
11776 
11814 
11794 
11776 
11826 
11836 
11808 
11809 
11823 
11836 
11826 
11807 
11794 
11811 
11785 
11758 
11810 
11842 
11821 
11807 
11801 
11790 
11800 
11783 
11789 
11831 
11820 
11795 
11784 
11769 
11746 
11801 
11824 
11820 
11801 
11804 
11766 
11786 
11819 
11807 
11795 
11781 
11799 
11809 
11813 
11811 
11785 
11778 
11831 
11799 
11781 
11775 
11795 
11803 
11767 
11782 
11811 
11805 
11815 
11831 
11798 
11819 
11818 
11818 
11811 
11812 
11842 
11857 
11852 
11866 
11874 
11846 
11839 
11811 
11735 
11776 
11807 
11747 
11752 
11798 
11796 
11761 
11759 
11750 
11766 
11748 
11764 
11763 
11758 
11753 
11783 
11761 
11757 
11778 
11859 
11979 
12151 
12277 
12280 
12247 
12127 
11900 
11702 
11508 
11455 
11556 
11699 
11722 
11758 
11801 
11805 
11802 
11791 
11809 
11797 
11805 
11818 
11829 
11782 
11788 
11863 
11840 
11843 
11841 
11826 
11835 
11871 
11854 
11840 
11838 
11866 
11883 
11860 
11855 
11861 
11903 
11921 
11916 
11917 
11930 
11947 
11945 
11958 
11998 
11974 
11971 
12002 
12075 
12066 
12135 
12127 
12104 
12102 
12101 
12166 
12179 
12192 
12169 
12155 
12189 
12204 
12161 
12139 
12108 
12102 
12052 
12023 
11982 
11983 
11914 
11899 
11906 
11833 
11789 
11815 
11821 
11797 
11812 
11760 
11708 
11740 
11760 
11752 
11750 
11740 
11751 
11697 
11713 
11762 
11775 
11781 
11752 
11742 
11749 
11742 
11721 
11766 
11773 
11739 
11742 
11764 
11718 
11749 
11761 
11758 
11778 
11746 
11727 
11752 
11742 
11720 
11745 
11772 
11756 
11767 
11755 
11765 
11783 
11759 
11772 
11763 
11749 
11706 
11728 
11757 
11755 
11756 
11753 
11723 
11710 
11742 
11773 
11745 
11748 
11735 
11714 
11711 
11716 
11708 
11728 
11765 
11755 
11756 
11756 
11761 
11745 
11767 
11775 
11775 
11731 
11759 
11773 
11772 
11761 
11733 
11786 
11817 
11824 
11783 
11771 
11782 
11766 
11790 
11795 
11786 
11767 
11715 
11686 
11719 
11698 
11698 
11733 
11721 
11739 
11733 
11727 
11731 
11706 
11677 
11691 
11726 
11733 
11730 
11729 
11755 
11735 
11774 
11861 
12032 
12162 
12286 
12308 
12090 
11819 
11651 
11470 
11380 
11456 
11549 
11619 
11694 
11746 
11744 
11757 
11776 
11784 
11786 
11738 
11777 
11835 
11818 
11809 
11783 
11779 
11786 
11780 
11774 
11823 
11818 
11821 
11833 
11848 
11832 
11863 
11867 
11830 
11862 
11879 
11890 
11886 
11881 
11890 
11881 
11890 
11907 
11951 
11960 
11999 
12027 
12048 
12041 
12046 
12087 
12084 
12118 
12155 
12141 
12137 
12158 
12180 
12149 
12162 
12150 
12123 
12149 
12090 
12050 
11995 
11971 
11942 
11906 
11908 
11886 
11813 
11797 
11808 
11756 
11741 
11775 
11748 
11755 
11735 
11713 
11711 
11683 
11700 
11698 
11703 
11687 
11676 
11685 
11720 
11660 
11688 
11703 
11681 
11656 
11649 
11719 
11757 
11748 
11702 
11693 
11735 
11757 
11744 
11730 
11705 
11691 
11722 
11744 
11715 
11718 
11712 
11686 
11720 
11717 
11697 
11639 
11652 
11729 
11725 
11690 
11699 
11754 
11725 
11699 
11702 
11707 
11673 
11660 
11728 
11732 
11704 
11695 
11694 
11698 
11700 
11683 
11698 
11642 
11680 
11637 
11688 
11684 
11638 
11718 
11716 
11697 
11736 
11730 
11730 
11733 
11740 
11755 
11712 
11707 
11703 
11734 
11737 
11666 
11703 
11727 
11694 
11668 
11645 
11607 
11652 
11701 
11692 
11660 
11662 
11635 
11648 
11669 
11658 
11627 
11628 
11626 
11625 
11627 
11646 
11637 
11654 
11765 
11847 
11975 
12122 
12181 
12106 
11883 
11669 
11531 
11370 
11369 
11438 
11543 
11604 
11657 
11683 
11674 
11699 
11712 
11686 
11666 
11664 
11676 
11730 
11717 
11684 
11676 
11722 
11747 
11694 
11677 
11658 
11721 
11718 
11717 
11720 
11743 
11767 
11761 
11783 
11786 
11803 
11786 
11781 
11812 
11832 
11848 
11843 
11836 
11859 
11881 
11885 
11878 
11879 
11950 
11937 
11986 
12004 
11982 
12022 
12072 
12061 
12074 
12051 
12057 
12087 
12061 
12011 
12007 
12010 
11931 
11910 
11931 
11860 
11822 
11794 
11732 
11714 
11709 
11719 
11686 
11740 
11725 
11651 
11623 
11651 
11679 
11719 
11675 
11632 
11662 
11662 
11644 
11668 
11698 
11692 
11703 
11650 
11644 
11682 
11659 
11625 
11637 
11678 
11661 
11702 
11737 
11714 
11702 
11734 
11725 
11681 
11667 
11661 
11689 
11689 
11699 
11696 
11677 
11673 
11727 
11730 
11725 
11697 
11709 
11713 
11686 
11708 
11726 
11710 
11701 
11695 
11709 
11735 
11655 
11656 
11746 
11711 
11686 
11719 
11707 
11745 
11783 
11746 
11727 
11718 
11683 
11724 
11786 
11776 
11775 
11750 
11704 
11722 
11808 
11742 
11715 
11749 
11766 
11745 
11762 
11752 
11720 
11789 
11811 
11824 
11843 
11724 
11652 
11686 
11716 
11722 
11715 
11705 
11745 
11736 
11678 
11677 
11701 
11700 
11674 
11706 
11733 
11727 
11711 
11747 
11763 
11802 
11925 
11997 
12119 
12224 
12215 
12004 
11807 
11679 
11515 
11527 
11567 
11679 
11786 
11794 
11760 
11774 
11792 
11784 
11800 
11810 
11819 
11775 
11816 
11809 
11829 
11839 
11852 
11875 
11828 
11838 
11879 
11857 
11895 
11854 
11847 
11887 
11874 
11898 
11907 
11873 
11883 
11940 
11978 
11942 
11937 
11952 
11932 
11961 
12015 
11999 
12052 
12062 
12072 
12071 
12111 
12114 
12132 
12158 
12139 
12176 
12186 
12212 
12188 
12156 
12163 
12190 
12193 
12136 
12113 
12105 
12067 
12003 
11955 
11987 
11950 
11897 
11869 
11863 
11859 
11850 
11897 
11863 
11785 
11782 
11802 
11812 
11784 
11779 
11769 
11790 
11800 
11804 
11757 
11750 
11756 
11777 
11771 
11773 
11820 
11769 
11788 
11823 
11844 
11835 
11783 
11787 
11779 
11778 
11762 
11804 
11781 
11777 
11756 
11766 
11811 
11800 
11757 
11738 
11752 
11795 
11793 
11775 
11790 
11814 
11816 
11793 
11805 
11823 
11817 
11809 
11775 
11783 
11776 
11755 
11764 
11761 
11784 
11801 
11740 
11761 
11755 
11774 
11783 
11786 
11820 
11800 
11829 
11815 
11795 
11769 
11770 
11780 
11807 
11811 
11809 
11781 
11797 
11808 
11813 
11852 
11855 
11823 
11809 
11800 
11781 
11781 
11766 
11723 
11712 
11735 
11765 
11766 
11782 
11737 
11745 
11737 
11735 
11752 
11752 
11720 
11724 
11741 
11748 
11775 
11747 
11831 
11964 
12071 
12219 
12249 
12180 
12019 
11839 
11657 
11489 
11475 
11562 
11677 
11761 
11786 
11794 
11810 
11805 
11818 
11819 
11829 
11824 
11823 
11796 
11775 
11741 
11832 
11876 
11846 
11853 
11843 
11835 
11831 
11816 
11846 
11857 
11882 
11864 
11910 
11932 
11913 
11904 
11874 
11941 
11923 
11918 
11925 
11928 
11939 
11985 
12010 
11981 
12015 
12013 
12057 
12090 
12111 
12141 
12127 
12125 
12129 
12155 
12166 
12176 
12160 
12156 
12159 
12146 
12115 
12067 
12003 
11996 
11962 
11932 
11901 
11898 
11876 
11840 
11796 
11772 
11763 
11764 
11773 
11775 
11760 
11747 
11701 
11733 
11747 
11724 
11687 
11698 
11719 
11739 
11695 
11681 
11721 
11731 
11691 
11697 
11714 
11738 
11711 
11699 
11724 
11735 
11747 
11706 
11699 
11741 
11687 
11699 
11731 
11706 
11669 
11715 
11767 
11756 
11729 
11701 
11658 
11712 
11726 
11683 
11709 
11728 
11734 
11731 
11694 
11662 
11687 
11679 
11678 
11706 
11674 
11692 
11685 
11697 
11691 
11712 
11688 
11674 
11749 
11736 
11682 
11674 
11655 
11669 
11697 
11695 
11693 
11702 
11677 
11690 
11695 
11675 
11722 
11718 
11722 
11734 
11722 
11690 
11674 
11670 
11671 
11661 
11657 
11650 
11654 
11640 
11610 
11617 
11620 
11623 
11661 
11646 
11647 
11606 
11606 
11591 
11614 
11627 
11585 
11685 
11801 
11931 
12088 
12166 
12147 
12020 
11790 
11585 
11400 
11324 
11388 
11469 
11548 
11601 
11658 
11665 
11662 
11648 
11656 
11642 
11653 
11676 
11670 
11629 
11642 
11666 
11678 
11655 
11675 
11676 
11728 
11729 
11679 
11662 
11720 
11718 
11716 
11726 
11713 
11731 
11725 
11729 
11738 
11765 
11729 
11778 
11800 
11802 
11784 
11791 
11849 
11888 
11863 
11880 
11917 
11900 
11965 
11969 
11964 
11983 
11976 
11998 
11998 
11973 
11968 
11993 
12001 
11970 
11918 
11840 
11798 
11826 
11801 
11719 
11706 
11647 
11657 
11644 
11592 
11581 
11588 
11552 
11573 
11560 
11540 
11547 
11556 
11535 
11568 
11613 
11534 
11472 
11475 
11555 
11537 
11496 
11518 
11554 
11524 
11526 
11531 
11510 
11539 
11546 
11519 
11518 
11538 
11531 
11522 
11542 
11544 
11542 
11552 
11535 
11500 
11515 
11569 
11517 
11518 
11507 
11522 
11521 
11492 
11480 
11486 
11525 
11517 
11492 
11499 
11507 
11490 
11493 
11506 
11521 
11552 
11510 
11454 
11504 
11532 
11525 
11507 
11552 
11554 
11477 
11526 
11546 
11533 
11548 
11529 
11513 
11536 
11529 
11510 
11487 
11428 
11428 
11455 
11457 
11461 
11470 
11444 
11424 
11441 
11437 
11437 
11466 
11455 
11452 
11454 
11438 
11463 
11476 
11458 
11439 
11543 
11692 
11841 
11998 
12062 
11956 
11726 
11481 
11279 
11126 
11140 
11220 
11296 
11375 
11415 
11465 
11455 
11444 
11478 
11500 
11469 
11485 
11533 
11521 
11511 
11496 
11496 
11481 
11483 
11515 
11523 
11512 
11519 
11526 
11545 
11592 
11521 
11499 
11495 
11517 
11492 
11554 
11645 
11629 
11598 
11606 
11627 
11662 
11672 
11682 
11670 
11699 
11703 
11678 
11744 
11785 
11790 
11801 
11798 
11790 
11804 
11821 
11831 
11852 
11828 
11869 
11885 
11816 
11763 
11735 
11729 
11666 
11634 
11618 
11584 
11556 
11506 
11490 
11469 
11441 
11441 
11446 
11364 
11347 
11376 
11402 
11412 
11395 
11353 
11431 
11406 
11347 
11375 
11356 
11356 
11380 
11390 
11376 
11370 
11379 
11362 
11356 
11358 
11408 
11399 
11403 
11345 
11286 
11330 
11400 
11398 
11392 
11396 
11341 
11345 
11393 
11409 
11398 
11380 
11360 
11366 
11357 
11374 
11350 
11333 
11329 
11377 
11394 
11382 
11393 
11379 
11366 
11357 
11364 
11359 
11358 
11360 
11380 
11389 
11384 
11422 
11390 
11382 
11408 
11403 
11387 
11372 
11374 
11380 
11381 
11324 
11309 
11327 
11294 
11308 
11322 
11366 
11320 
11305 
11303 
11324 
11351 
11362 
11351 
11291 
11271 
11275 
11310 
11319 
11356 
11394 
11508 
11641 
11737 
11869 
11890 
11700 
11468 
11308 
11107 
11003 
11071 
11170 
11236 
11305 
11320 
11338 
11346 
11365 
11381 
11347 
11312 
11369 
11391 
11380 
11382 
11362 
11409 
11416 
11388 
11393 
11373 
11387 
11388 
11395 
11438 
11457 
11403 
11410 
11445 
11452 
11439 
11413 
11435 
11457 
11483 
11500 
11457 
11484 
11495 
11513 
11573 
11588 
11620 
11621 
11619 
11628 
11667 
11678 
11658 
11689 
11751 
11756 
11728 
11687 
11684 
11693 
11672 
11602 
11553 
11591 
11549 
11485 
11477 
11470 
11413 
11411 
11401 
11381 
11319 
11302 
11285 
11278 
11274 
11253 
11249 
11298 
11266 
11230 
11256 
11263 
11266 
11226 
11206 
11275 
11250 
11212 
11228 
11263 
11221 
11223 
11246 
11232 
11255 
11273 
11248 
11245 
11231 
11220 
11221 
11262 
11270 
11252 
11254 
11239 
11212 
11234 
11256 
11246 
11249 
11246 
11249 
11247 
11240 
11265 
11241 
11267 
11255 
11266 
11243 
11227 
11217 
11247 
11255 
11230 
11266 
11252 
11220 
11228 
11216 
11200 
11217 
11232 
11236 
11211 
11250 
11260 
11257 
11273 
11301 
11286 
11280 
11294 
11318 
11261 
11220 
11203 
11180 
11180 
11179 
11226 
11231 
11191 
11165 
11190 
11205 
11185 
11179 
11174 
11165 
11224 
11223 
11198 
11204 
11172 
11250 
11335 
11453 
11577 
11656 
11691 
11630 
11439 
11212 
11071 
10926 
10983 
11044 
11137 
11177 
11200 
11240 
11240 
11231 
11212 
11226 
11266 
11265 
11249 
11264 
11253 
11252 
11280 
11290 
11274 
11257 
11271 
11297 
11272 
11247 
11277 
11278 
11320 
11302 
11316 
11354 
11331 
11312 
11306 
11368 
11390 
11372 
11366 
11381 
11410 
11437 
11450 
11438 
11446 
11405 
11480 
11518 
11534 
11534 
11535 
11561 
11607 
11606 
11578 
11558 
11600 
11595 
11567 
11549 
11519 
11512 
11485 
11423 
11357 
11339 
11331 
11308 
11287 
11244 
11210 
11210 
11195 
11213 
11241 
11205 
11167 
11212 
11181 
11157 
11190 
11204 
11215 
11221 
11211 
11196 
11192 
11209 
11148 
11183 
11196 
11166 
11132 
11168 
11200 
11144 
11129 
11188 
11220 
11204 
11162 
11192 
11209 
11216 
11211 
11196 
11230 
11196 
11163 
11236 
11281 
11215 
11183 
11198 
11185 
11186 
11182 
11184 
11201 
11208 
11176 
11186 
11203 
11224 
11232 
11199 
11220 
11195 
11224 
11234 
11253 
11264 
11233 
11189 
11185 
11233 
11217 
11208 
11243 
11268 
11227 
11211 
11218 
11267 
11304 
11253 
11260 
11225 
11211 
11218 
11209 
11189 
11215 
11219 
11194 
11182 
11213 
11224 
11230 
11192 
11192 
11196 
11179 
11162 
11219 
11212 
11155 
11182 
11262 
11352 
11450 
11582 
11653 
11713 
11620 
11368 
11233 
11151 
11021 
10989 
11073 
11175 
11250 
11277 
11257 
11250 
11272 
11291 
11274 
11259 
11271 
11299 
11292 
11285 
11291 
11283 
11285 
11294 
11306 
11325 
11322 
11322 
11288 
11337 
11376 
11381 
11395 
11378 
11327 
11329 
11351 
11374 
11404 
11407 
11418 
11433 
11407 
11441 
11463 
11501 
11525 
11526 
11546 
11546 
11540 
11592 
11629 
11636 
11632 
11668 
11664 
11680 
11666 
11642 
11624 
11621 
11597 
11546 
11528 
11529 
11465 
11453 
11421 
11406 
11404 
11364 
11316 
11305 
11257 
11258 
11292 
11273 
11263 
11261 
11239 
11269 
11276 
11206 
11202 
11219 
11233 
11236 
11221 
11240 
11248 
11269 
11266 
11234 
11242 
11251 
11302 
11245 
11234 
11239 
11261 
11250 
11252 
11250 
11230 
11217 
11231 
11252 
11255 
11234 
11212 
11238 
11269 
11264 
11253 
11278 
11309 
11230 
11221 
11219 
11252 
11281 
11245 
11237 
11272 
11248 
11204 
11254 
11288 
11287 
11215 
11221 
11227 
11257 
11273 
11264 
11273 
11284 
11296 
11289 
11250 
11222 
11275 
11267 
11304 
11293 
11240 
11246 
11274 
11294 
11346 
11327 
11332 
11347 
11300 
11227 
11230 
11230 
11218 
11229 
11257 
11279 
11248 
11174 
11193 
11291 
11285 
11275 
11272 
11202 
11227 
11231 
11214 
11245 
11233 
11216 
11269 
11401 
11484 
11613 
11736 
11767 
11672 
11443 
11279 
11078 
11003 
11026 
11133 
11234 
11301 
11347 
11341 
11298 
11299 
11294 
11303 
11313 
11302 
11322 
11355 
11347 
11343 
11354 
11352 
11343 
11349 
11358 
11350 
11339 
11350 
11378 
11387 
11408 
11429 
11444 
11391 
11415 
11394 
11421 
11447 
11462 
11450 
11461 
11501 
11511 
11510 
11527 
11548 
11593 
11611 
11611 
11619 
11656 
11665 
11708 
11699 
11710 
11723 
11714 
11696 
11673 
11675 
11678 
11695 
11670 
11647 
11603 
11550 
11513 
11518 
11500 
11439 
11398 
11384 
11367 
11354 
11348 
11338 
11343 
11328 
11340 
11279 
11290 
11312 
11318 
11306 
11319 
11282 
11323 
11347 
11320 
11349 
11371 
11333 
11323 
11321 
11334 
11381 
11381 
11321 
11349 
11358 
11380 
11334 
11325 
11333 
11380 
11392 
11337 
11355 
11350 
11366 
11377 
11392 
11410 
11373 
11399 
11363 
11376 
11399 
11384 
11384 
11397 
11395 
11407 
11406 
11378 
11400 
11407 
11387 
11432 
11410 
11386 
11402 
11412 
11412 
11419 
11402 
11395 
11427 
11438 
11415 
11441 
11436 
11426 
11432 
11428 
11420 
11432 
11435 
11432 
11414 
11416 
11427 
11460 
11476 
11480 
11521 
11515 
11485 
11471 
11494 
11526 
11503 
11489 
11464 
11444 
11419 
11430 
11443 
11481 
11464 
11444 
11438 
11470 
11446 
11411 
11455 
11475 
11443 
11465 
11453 
11537 
11523 
11467 
11501 
11534 
11548 
11662 
11761 
11912 
12027 
12015 
11811 
11619 
11468 
11267 
11236 
11353 
11418 
11468 
11536 
11539 
11570 
11594 
11598 
11588 
11577 
11618 
11633 
11570 
11591 
11609 
11610 
11632 
11620 
11669 
11672 
11636 
11614 
11632 
11655 
11679 
11682 
11679 
11664 
11689 
11702 
11733 
11702 
11737 
11765 
11745 
11758 
11800 
11824 
11835 
11853 
11854 
11867 
11893 
11902 
11910 
11956 
11978 
11964 
11978 
11986 
11993 
11961 
11962 
12019 
12036 
12007 
11978 
11983 
11976 
11924 
11854 
11821 
11832 
11736 
11713 
11676 
11628 
11704 
11680 
11639 
11623 
11618 
11621 
11596 
11584 
11561 
11552 
11575 
11578 
11594 
11595 
11599 
11588 
11602 
11601 
11541 
11511 
11571 
11609 
11592 
11589 
11577 
11590 
11569 
11585 
11654 
11619 
11635 
11596 
11616 
11648 
11633 
11620 
11596 
11602 
11623 
11593 
11591 
11606 
11622 
11626 
11585 
11594 
11608 
11612 
11627 
11649 
11629 
11639 
11615 
11646 
11662 
11610 
11600 
11625 
11618 
11619 
11615 
11621 
11613 
11599 
11595 
11584 
11630 
11619 
11616 
11631 
11627 
11606 
11624 
11650 
11613 
11616 
11672 
11680 
11645 
11678 
11656 
11648 
11644 
11634 
11623 
11628 
11630 
11600 
11548 
11580 
11572 
11590 
11603 
11539 
11559 
11588 
11566 
11569 
11571 
11589 
11569 
11573 
11565 
11587 
11603 
11573 
11590 
11673 
11794 
11949 
12120 
12178 
12094 
11841 
11622 
11438 
11291 
11269 
11324 
11409 
11493 
11538 
11604 
11597 
11629 
11657 
11640 
11611 
11637 
11643 
11639 
11625 
11572 
11608 
11650 
11676 
11648 
11656 
11667 
11675 
11645 
11660 
11685 
11669 
11663 
11743 
11722 
11683 
11722 
11706 
11726 
11754 
11745 
11715 
11724 
11758 
11773 
11791 
11833 
11844 
11863 
11882 
11901 
11937 
11936 
11962 
11975 
12010 
12004 
11969 
11985 
12016 
12007 
11967 
11951 
11938 
11906 
11864 
11812 
11754 
11693 
11676 
11663 
11626 
11605 
11613 
11589 
11572 
11541 
11560 
11569 
11528 
11499 
11524 
11528 
11550 
11530 
11528 
11510 
11517 
11537 
11526 
11520 
11501 
11495 
11494 
11492 
11484 
11497 
11518 
11506 
11496 
11540 
11545 
11515 
11531 
11527 
11514 
11525 
11533 
11532 
11550 
11563 
11534 
11518 
11525 
11515 
11562 
11614 
11546 
11521 
11529 
11483 
11512 
11541 
11474 
11453 
11505 
11510 
11518 
11505 
11510 
11545 
11518 
11502 
11526 
11540 
11524 
11536 
11569 
11587 
11534 
11540 
11529 
11572 
11557 
11503 
11476 
11504 
11535 
11542 
11488 
11530 
11530 
11485 
11472 
11479 
11456 
11440 
11470 
11502 
11508 
11445 
11455 
11459 
11446 
11431 
11434 
11444 
11453 
11454 
11432 
11440 
11460 
11445 
11436 
11480 
11613 
11744 
11925 
12019 
12025 
11770 
11542 
11408 
11224 
11156 
11177 
11241 
11351 
11414 
11442 
11461 
11456 
11504 
11523 
11474 
11493 
11515 
11507 
11512 
11502 
11500 
11535 
11518 
11530 
11490 
11494 
11525 
11561 
11583 
11575 
11565 
11595 
11545 
11546 
11563 
11570 
11587 
11594 
11621 
11615 
11643 
11673 
11669 
11619 
11650 
11736 
11760 
11771 
11762 
11788 
11809 
11812 
11806 
11834 
11879 
11923 
11902 
11856 
11856 
11862 
11810 
11872 
11860 
11785 
11727 
11691 
11682 
11636 
11618 
11566 
11558 
11550 
11466 
11459 
11479 
11446 
11432 
11471 
11473 
11448 
11412 
11391 
11425 
11433 
11441 
11416 
11389 
11404 
11373 
11374 
11425 
11411 
11400 
11441 
11439 
11412 
11428 
11436 
11425 
11429 
11427 
11426 
11426 
11432 
11434 
11423 
11461 
11506 
11453 
11378 
11413 
11443 
11419 
11416 
11424 
11434 
11466 
11429 
11426 
11437 
11461 
11445 
11421 
11413 
11411 
11471 
11452 
11446 
11486 
11460 
11421 
11399 
11406 
11411 
11382 
11443 
11412 
11406 
11425 
11413 
11449 
11442 
11417 
11394 
11432 
11478 
11504 
11468 
11413 
11454 
11463 
11491 
11494 
11455 
11430 
11440 
11452 
11399 
11392 
11428 
11397 
11361 
11381 
11369 
11374 
11383 
11391 
11383 
11392 
11346 
11395 
11424 
11423 
11392 
11402 
11356 
11364 
11404 
11493 
11596 
11683 
11797 
11882 
11850 
11674 
11484 
11335 
11141 
11142 
11207 
11274 
11376 
11431 
11424 
11456 
11413 
11445 
11449 
11424 
11431 
11376 
11387 
11472 
11506 
11499 
11460 
11479 
11468 
11448 
11475 
11476 
11460 
11496 
11488 
11449 
11489 
11572 
11563 
11547 
11529 
11562 
11554 
11549 
11541 
11563 
11570 
11572 
11583 
11576 
11652 
11645 
11625 
11657 
11683 
11695 
11770 
11765 
11782 
11795 
11784 
11782 
11782 
11764 
11759 
11757 
11758 
11707 
11626 
11599 
11596 
11584 
11555 
11531 
11497 
11465 
11445 
11385 
11381 
11408 
11415 
11422 
11395 
11347 
11336 
11340 
11341 
11375 
11364 
11350 
11322 
11325 
11368 
11362 
11338 
11299 
11351 
11391 
11394 
11348 
11355 
11341 
11349 
11329 
11322 
11321 
11352 
11351 
11408 
11368 
11358 
11367 
11378 
11407 
11347 
11336 
11369 
11367 
11331 
11371 
11411 
11441 
11428 
11406 
11390 
11376 
11407 
11411 
11357 
11362 
11327 
11297 
11314 
11331 
11397 
11379 
11351 
11372 
11391 
11366 
11386 
11423 
11390 
11335 
11335 
11395 
11398 
11406 
11357 
11361 
11417 
11442 
11378 
11340 
11334 
11364 
11398 
11376 
11366 
11417 
11421 
11390 
11401 
11409 
11455 
11402 
11399 
11396 
11364 
11345 
11349 
11349 
11397 
11351 
11288 
11316 
11346 
11325 
11302 
11339 
11349 
11299 
11289 
11326 
11331 
11360 
11345 
11336 
11357 
11480 
11584 
11661 
11734 
11859 
11789 
11590 
11453 
11356 
11117 
11135 
11250 
11289 
11296 
11347 
11388 
11374 
11397 
11400 
11405 
11374 
11402 
11420 
11451 
11410 
11402 
11443 
11493 
11438 
11406 
11405 
11412 
11465 
11451 
11432 
11421 
11455 
11491 
11457 
11474 
11482 
11484 
11509 
11512 
11467 
11535 
11561 
11567 
11563 
11574 
11592 
11626 
11594 
11618 
11682 
11705 
11680 
11691 
11698 
11710 
11708 
11792 
11775 
11757 
11790 
11737 
11694 
11687 
11710 
11723 
11674 
11610 
11573 
11536 
11512 
11491 
11450 
11426 
11400 
11401 
11380 
11387 
11385 
11390 
11387 
11374 
11368 
11366 
11354 
11372 
11387 
11449 
11414 
11382 
11372 
11353 
11378 
11406 
11410 
11393 
11389 
11374 
11394 
11398 
11363 
11374 
11383 
11415 
11410 
11395 
11442 
11462 
11377 
11423 
11475 
11444 
11442 
11445 
11438 
11424 
11472 
11435 
11403 
11407 
11453 
11438 
11444 
11428 
11449 
11451 
11451 
11440 
11471 
11446 
11469 
11510 
11516 
11473 
11438 
11458 
11478 
11499 
11490 
11507 
11502 
11465 
11451 
11439 
11452 
11479 
11518 
11503 
11481 
11512 
11548 
11555 
11552 
11568 
11576 
11532 
11538 
11566 
11561 
11572 
11584 
11592 
11630 
11608 
11583 
11576 
11600 
11563 
11597 
11639 
11596 
11553 
11584 
11564 
11529 
11599 
11576 
11569 
11598 
11595 
11577 
11552 
11588 
11613 
11596 
11576 
11595 
11593 
11591 
11611 
11666 
11751 
11861 
11958 
12075 
12173 
12138 
11923 
11744 
11576 
11402 
11445 
11572 
11638 
11682 
11684 
11696 
11737 
11765 
11725 
11719 
11746 
11769 
11750 
11757 
11815 
11858 
11826 
11806 
11842 
11833 
11813 
11825 
11837 
11824 
11816 
11846 
11879 
11908 
11877 
11847 
11918 
11962 
11954 
11957 
11940 
11959 
12016 
12021 
12022 
12111 
12103 
12044 
12091 
12127 
12147 
12188 
12196 
12215 
12252 
12241 
12248 
12272 
12302 
12248 
12263 
12270 
12290 
12283 
12262 
12220 
12213 
12195 
12122 
12097 
12084 
12051 
12027 
12000 
11999 
11954 
11948 
11974 
11950 
11974 
11964 
11928 
11936 
11978 
11948 
11931 
11964 
11988 
11969 
11968 
11970 
11981 
12005 
12001 
11996 
12029 
12008 
12017 
12039 
12009 
12001 
12042 
12040 
12033 
12029 
12019 
12040 
12030 
12050 
12057 
12080 
12062 
12053 
12099 
12069 
12111 
12138 
12117 
12073 
12082 
12107 
12142 
12129 
12091 
12084 
12089 
12075 
12070 
12079 
12130 
12153 
12122 
12114 
12105 
12146 
12169 
12169 
12163 
12154 
12172 
12187 
12151 
12115 
12147 
12190 
12169 
12146 
12149 
12136 
12147 
12178 
12158 
12154 
12192 
12253 
12207 
12171 
12197 
12222 
12275 
12265 
12267 
12242 
12241 
12246 
12233 
12258 
12253 
12226 
12204 
12211 
12225 
12243 
12238 
12228 
12218 
12206 
12236 
12234 
12260 
12261 
12235 
12269 
12246 
12265 
12255 
12266 
12253 
12228 
12255 
12347 
12506 
12609 
12737 
12816 
12759 
12533 
12365 
12203 
12007 
12012 
12133 
12201 
12277 
12364 
12413 
12362 
12318 
12331 
12364 
12391 
12352 
12364 
12370 
12419 
12439 
12445 
12425 
12435 
12423 
12416 
12446 
12441 
12433 
12463 
12445 
12456 
12412 
12454 
12543 
12512 
12523 
12508 
12536 
12542 
12598 
12593 
12618 
12561 
12562 
12594 
12633 
12668 
12662 
12667 
12709 
12738 
12699 
12736 
12781 
12797 
12789 
12777 
12786 
12796 
12816 
12800 
12764 
12778 
12710 
12694 
12656 
12629 
12639 
12594 
12553 
12542 
12524 
12453 
12412 
12398 
12424 
12426 
12418 
12441 
12454 
12430 
12416 
12424 
12419 
12398 
12424 
12411 
12454 
12438 
12434 
12414 
12422 
12472 
12433 
12434 
12471 
12486 
12468 
12476 
12458 
12461 
12462 
12478 
12462 
12475 
12474 
12471 
12468 
12472 
12469 
12481 
12495 
12492 
12467 
12515 
12536 
12525 
12494 
12498 
12515 
12510 
12507 
12509 
12541 
12508 
12473 
12478 
12473 
12504 
12510 
12507 
12521 
12494 
12505 
12479 
12486 
12503 
12508 
12531 
12507 
12478 
12501 
12514 
12499 
12502 
12549 
12564 
12526 
12550 
12584 
12592 
12529 
12552 
12555 
12526 
12525 
12528 
12536 
12473 
12489 
12527 
12489 
12478 
12439 
12437 
12458 
12424 
12448 
12455 
12460 
12454 
12452 
12435 
12446 
12440 
12442 
12470 
12432 
12451 
12608 
12759 
12897 
13036 
13048 
12845 
12591 
12430 
12235 
12132 
12189 
12251 
12335 
12393 
12447 
12488 
12488 
12469 
12487 
12460 
12466 
12512 
12449 
12484 
12523 
12507 
12494 
12516 
12520 
12523 
12513 
12538 
12555 
12551 
12548 
12537 
12534 
12553 
12526 
12554 
12565 
12556 
12627 
12602 
12604 
12609 
12612 
12608 
12630 
12694 
12717 
12719 
12715 
12716 
12763 
12787 
12769 
12832 
12860 
12869 
12879 
12855 
12816 
12846 
12822 
12784 
12822 
12778 
12710 
12694 
12670 
12660 
12622 
12579 
12549 
12514 
12509 
12528 
12479 
12410 
12422 
12393 
12408 
12406 
12376 
12370 
12359 
12389 
12349 
12329 
12388 
12389 
12316 
12349 
12345 
12342 
12363 
12356 
12325 
12350 
12386 
12360 
12340 
12335 
12380 
12356 
12358 
12355 
12373 
12356 
12364 
12354 
12327 
12345 
12380 
12356 
12392 
12337 
12313 
12377 
12380 
12365 
12368 
12364 
12350 
12326 
12356 
12333 
12365 
12382 
12353 
12314 
12368 
12356 
12331 
12350 
12338 
12375 
12389 
12361 
12337 
12341 
12394 
12381 
12410 
12390 
12367 
12350 
12338 
12402 
12402 
12373 
12349 
12348 
12324 
12306 
12285 
12297 
12289 
12352 
12319 
12309 
12286 
12301 
12307 
12279 
12312 
12285 
12297 
12306 
12314 
12312 
12303 
12334 
12485 
12626 
12758 
12872 
12928 
12767 
12475 
12276 
12110 
11972 
12004 
12090 
12192 
12248 
12264 
12307 
12337 
12349 
12340 
12342 
12367 
12403 
12426 
12423 
12406 
12370 
12385 
12393 
12402 
12412 
12425 
12411 
12401 
12396 
12417 
12420 
12417 
12386 
12388 
12425 
12449 
12453 
12449 
12525 
12517 
12514 
12527 
12524 
12516 
12502 
12574 
12605 
12591 
12639 
12662 
12659 
12656 
12654 
12671 
12728 
12756 
12762 
12754 
12756 
12765 
12719 
12705 
12704 
12670 
12601 
12588 
12564 
12588 
12510 
12440 
12420 
12384 
12336 
12309 
12344 
12319 
12303 
12312 
12322 
12311 
12314 
12303 
12278 
12282 
12315 
12262 
12257 
12268 
12274 
12278 
12284 
12281 
12297 
12270 
12280 
12307 
12322 
12273 
12287 
12327 
12344 
12303 
12280 
12304 
12274 
12270 
12279 
12271 
12313 
12320 
12340 
12316 
12296 
12337 
12304 
12311 
12359 
12345 
12307 
12329 
12332 
12276 
12310 
12359 
12333 
12314 
12315 
12318 
12336 
12320 
12332 
12349 
12330 
12340 
12397 
12426 
12406 
12352 
12371 
12359 
12359 
12361 
12373 
12353 
12277 
12270 
12280 
12289 
12276 
12284 
12292 
12287 
12262 
12218 
12266 
12321 
12320 
12324 
12306 
12277 
12252 
12297 
12274 
12292 
12333 
12457 
12603 
12738 
12832 
12848 
12622 
12421 
12279 
12023 
11963 
12018 
12148 
12217 
12229 
12261 
12289 
12349 
12331 
12335 
12361 
12354 
12334 
12363 
12392 
12367 
12367 
12399 
12380 
12381 
12419 
12419 
12398 
12376 
12320 
12417 
12472 
12447 
12471 
12480 
12462 
12429 
12453 
12507 
12499 
12508 
12474 
12499 
12514 
12560 
12580 
12596 
12636 
12670 
12690 
12667 
12664 
12664 
12701 
12735 
12711 
12780 
12802 
12782 
12776 
12783 
12772 
12765 
12703 
12629 
12659 
12609 
12575 
12518 
12504 
12484 
12446 
12421 
12413 
12393 
12426 
12424 
12418 
12409 
12342 
12344 
12382 
12362 
12342 
12300 
12355 
12404 
12369 
12345 
12332 
12343 
12368 
12376 
12364 
12371 
12367 
12370 
12374 
12360 
12393 
12434 
12440 
12412 
12414 
12407 
12425 
12413 
12424 
12407 
12360 
12435 
12469 
12474 
12450 
12435 
12450 
12446 
12477 
12486 
12487 
12460 
12467 
12514 
12526 
12505 
12487 
12468 
12479 
12557 
12546 
12516 
12546 
12535 
12559 
12555 
12568 
12571 
12580 
12567 
12571 
12560 
12546 
12521 
12518 
12533 
12553 
12499 
12474 
12527 
12580 
12539 
12529 
12604 
12606 
12556 
12548 
12567 
12560 
12561 
12545 
12569 
12591 
12661 
12762 
12923 
13052 
13147 
13098 
12883 
12725 
12570 
12394 
12351 
12385 
12489 
12562 
12526 
12592 
12671 
12670 
12644 
12657 
12706 
12700 
12690 
12683 
12746 
12766 
12768 
12721 
12744 
12749 
12744 
12770 
12768 
12703 
12756 
12796 
12798 
12782 
12803 
12824 
12828 
12833 
12830 
12827 
12911 
12897 
12880 
12883 
12929 
12973 
13001 
12974 
12922 
12928 
13019 
13057 
13113 
13125 
13096 
13137 
13148 
13179 
13174 
13183 
13141 
13142 
13148 
13090 
13049 
13071 
13037 
12988 
12954 
12890 
12897 
12861 
12854 
12853 
12844 
12831 
12789 
12798 
12859 
12816 
12811 
12766 
12755 
12789 
12823 
12766 
12788 
12806 
12800 
12767 
12799 
12817 
12768 
12791 
12809 
12836 
12833 
12819 
12816 
12828 
12830 
12833 
12826 
12848 
12838 
12851 
12835 
12903 
12881 
12866 
12876 
12842 
12844 
12862 
12893 
12885 
12898 
12896 
12925 
12920 
12941 
12897 
12903 
12902 
12907 
12939 
12951 
12925 
12934 
12916 
12934 
12966 
12970 
12944 
12957 
12945 
12941 
12930 
12916 
12903 
12900 
12939 
12881 
12876 
12919 
12926 
12909 
12908 
12915 
12911 
12925 
12895 
12889 
12874 
12890 
12927 
12873 
12863 
12886 
12917 
13096 
13218 
13361 
13448 
13452 
13315 
13094 
12950 
12740 
12636 
12719 
12809 
12876 
12896 
12940 
12979 
12949 
12955 
12925 
12931 
12926 
12994 
12996 
12998 
12990 
13003 
13013 
13032 
13016 
12993 
12969 
13001 
13012 
12999 
13026 
13048 
13018 
13035 
13002 
13035 
13073 
13073 
13045 
13044 
13100 
13126 
13110 
13136 
13154 
13175 
13138 
13141 
13204 
13220 
13210 
13280 
13292 
13273 
13286 
13312 
13328 
13348 
13349 
13322 
13287 
13252 
13265 
13246 
13188 
13180 
13131 
13097 
13104 
13053 
12993 
12988 
12969 
12960 
12920 
12950 
12962 
12941 
12897 
12889 
12882 
12899 
12917 
12892 
12888 
12872 
12886 
12896 
12908 
12906 
12942 
12906 
12848 
12863 
12886 
12889 
12954 
12904 
12903 
12914 
12891 
12892 
12914 
12880 
12880 
12948 
12957 
12939 
12904 
12881 
12917 
12926 
12918 
12963 
12969 
12955 
12909 
12906 
12887 
12908 
12912 
12916 
12935 
12885 
12863 
12882 
12939 
12947 
12952 
12940 
12944 
12954 
12913 
12900 
12932 
12961 
12946 
12973 
12966 
12965 
13014 
12923 
12899 
12883 
12853 
12864 
12880 
12882 
12904 
12893 
12858 
12879 
12860 
12876 
12858 
12862 
12869 
12840 
12844 
12851 
12891 
12884 
12841 
12870 
13001 
13080 
13160 
13302 
13412 
13343 
13148 
13008 
12827 
12650 
12641 
12704 
12820 
12841 
12885 
12915 
12896 
12884 
12908 
12918 
12879 
12928 
12928 
12921 
12916 
12946 
12942 
12919 
12872 
12933 
12984 
12978 
12951 
12953 
12946 
12938 
12948 
12959 
12999 
12957 
12958 
13000 
13037 
13064 
13021 
13006 
13026 
13034 
13082 
13113 
13129 
13131 
13160 
13164 
13188 
13207 
13184 
13188 
13215 
13247 
13234 
13270 
13324 
13267 
13176 
13212 
13184 
13172 
13164 
13062 
13074 
13079 
13057 
13006 
12971 
12973 
12975 
12922 
12896 
12903 
12875 
12871 
12887 
12873 
12864 
12885 
12874 
12878 
12903 
12859 
12810 
12783 
12800 
12899 
12904 
12874 
12854 
12860 
12873 
12872 
12869 
12892 
12899 
12873 
12908 
12865 
12874 
12878 
12880 
12896 
12859 
12863 
12888 
12913 
12911 
12932 
12916 
12883 
12872 
12849 
12867 
12868 
12887 
12870 
12902 
12880 
12883 
12858 
12893 
12906 
12917 
12925 
12901 
12864 
12847 
12892 
12869 
12871 
12875 
12878 
12867 
12884 
12906 
12909 
12887 
12878 
12905 
12902 
12876 
12878 
12890 
12941 
12938 
12940 
12953 
12903 
12909 
12912 
12921 
12955 
12924 
12911 
12923 
12916 
12888 
12848 
12847 
12916 
12902 
12886 
12878 
12894 
12913 
12911 
12913 
12905 
12891 
12873 
12819 
12905 
12925 
12894 
12912 
12947 
13015 
13133 
13254 
13373 
13382 
13229 
13044 
12923 
12729 
12650 
12756 
12891 
12934 
12929 
12925 
12937 
12942 
12955 
12917 
12920 
12939 
12950 
12927 
12956 
12942 
12949 
12952 
12944 
12955 
12965 
12963 
12967 
12983 
12997 
12976 
12995 
12994 
13028 
13073 
13051 
13040 
13031 
13075 
13024 
13005 
13027 
13063 
13074 
13106 
13120 
13163 
13142 
13129 
13180 
13165 
13176 
13205 
13236 
13246 
13259 
13249 
13286 
13309 
13283 
13228 
13225 
13242 
13236 
13202 
13129 
13095 
13108 
13071 
13021 
12983 
12962 
12949 
12922 
12926 
12908 
12922 
12884 
12854 
12866 
12885 
12884 
12869 
12839 
12864 
12864 
12865 
12896 
12844 
12862 
12859 
12859 
12842 
12825 
12837 
12850 
12859 
12876 
12857 
12843 
12848 
12847 
12862 
12869 
12859 
12859 
12873 
12868 
12871 
12854 
12836 
12828 
12892 
12835 
12802 
12819 
12839 
12845 
12875 
12848 
12821 
12829 
12816 
12823 
12851 
12829 
12841 
12817 
12835 
12830 
12858 
12828 
12800 
12819 
12838 
12811 
12794 
12829 
12739 
12729 
12810 
12771 
12811 
12819 
12797 
12800 
12806 
12808 
12784 
12792 
12823 
12840 
12847 
12835 
12850 
12840 
12817 
12840 
12886 
12886 
12860 
12836 
12883 
12884 
12866 
12825 
12860 
12846 
12817 
12803 
12785 
12801 
12768 
12789 
12743 
12764 
12778 
12770 
12762 
12762 
12762 
12748 
12746 
12757 
12760 
12779 
12763 
12733 
12754 
12724 
12714 
12763 
12864 
12976 
13093 
13209 
13292 
13222 
13036 
12874 
12747 
12568 
12518 
12627 
12691 
12738 
12745 
12788 
12813 
12775 
12730 
12733 
12752 
12771 
12761 
12752 
12782 
12793 
12800 
12778 
12772 
12763 
12776 
12815 
12811 
12791 
12803 
12812 
12812 
12847 
12852 
12825 
12824 
12832 
12818 
12788 
12823 
12834 
12890 
12897 
12881 
12882 
12914 
12939 
12946 
12929 
12994 
13006 
12985 
13004 
13044 
13056 
13074 
13070 
13076 
13090 
13033 
13002 
13022 
13028 
13017 
12991 
12966 
12892 
12862 
12829 
12805 
12799 
12751 
12729 
12690 
12700 
12682 
12647 
12643 
12651 
12680 
12665 
12604 
12627 
12662 
12665 
12682 
12667 
12653 
12629 
12583 
12636 
12626 
12629 
12633 
12671 
12644 
12603 
12586 
12635 
12675 
12690 
12670 
12650 
12650 
12633 
12642 
12617 
12644 
12667 
12668 
12609 
12630 
12635 
12646 
12663 
12646 
12679 
12660 
12607 
12605 
12626 
12634 
12629 
12651 
12653 
12684 
12645 
12640 
12651 
12627 
12629 
12617 
12640 
12619 
12598 
12603 
12664 
12642 
12648 
12639 
12645 
12653 
12626 
12649 
12638 
12651 
12633 
12626 
12658 
12665 
12633 
12643 
12637 
12600 
12618 
12623 
12612 
12593 
12621 
12596 
12624 
12626 
12642 
12654 
12612 
12616 
12646 
12637 
12631 
12648 
12698 
12692 
12655 
12652 
12657 
12672 
12632 
12664 
12686 
12667 
12676 
12647 
12666 
12680 
12669 
12639 
12621 
12624 
12637 
12650 
12625 
12605 
12614 
12645 
12622 
12588 
12583 
12596 
12580 
12586 
12627 
12630 
12604 
12624 
12607 
12577 
12607 
12745 
12870 
12996 
13056 
13086 
13031 
12828 
12668 
12533 
12393 
12443 
12534 
12586 
12606 
12667 
12669 
12628 
12637 
12650 
12657 
12665 
12674 
12685 
12680 
12669 
12689 
12666 
12674 
12678 
12677 
12741 
12712 
12706 
12723 
12728 
12711 
12735 
12727 
12748 
12753 
12737 
12755 
12763 
12789 
12776 
12775 
12793 
12826 
12833 
12826 
12857 
12871 
12885 
12928 
12944 
12952 
13002 
12999 
13005 
13018 
13016 
13006 
13023 
13056 
13041 
13008 
12993 
13004 
12997 
12947 
12896 
12849 
12878 
12823 
12787 
12778 
12737 
12715 
12727 
12708 
12686 
12662 
12654 
12641 
12651 
12674 
12645 
12626 
12641 
12609 
12655 
12646 
12654 
12611 
12606 
12638 
12657 
12651 
12650 
12630 
12626 
12657 
12670 
12702 
12660 
12642 
12666 
12670 
12666 
12683 
12699 
12658 
12618 
12628 
12655 
12704 
12714 
12671 
12641 
12675 
12728 
12694 
12682 
12684 
12654 
12676 
12700 
12697 
12715 
12712 
12677 
12682 
12690 
12660 
12650 
12681 
12662 
12677 
12664 
12674 
12676 
12641 
12655 
12659 
12675 
12698 
12724 
12729 
12692 
12670 
12669 
12701 
12686 
12664 
12685 
12676 
12660 
12665 
12695 
12692 
12634 
12647 
12693 
12704 
12684 
12632 
12666 
12696 
12676 
12690 
12706 
12717 
12702 
12703 
12738 
12727 
12677 
12688 
12718 
12745 
12724 
12746 
12774 
12777 
12736 
12716 
12682 
12700 
12738 
12782 
12804 
12761 
12690 
12687 
12701 
12690 
12697 
12720 
12718 
12705 
12672 
12686 
12693 
12714 
12683 
12695 
12723 
12722 
12701 
12677 
12695 
12690 
12744 
12865 
13017 
13146 
13247 
13246 
13062 
12814 
12692 
12508 
12446 
12490 
12598 
12668 
12692 
12758 
12757 
12758 
12762 
12820 
12786 
12739 
12781 
12803 
12797 
12786 
12774 
12781 
12801 
12803 
12821 
12801 
12785 
12813 
12832 
12851 
12857 
12827 
12851 
12887 
12854 
12823 
12864 
12889 
12890 
12897 
12870 
12949 
12984 
12969 
12959 
12984 
13033 
13037 
13033 
13030 
13045 
13078 
13094 
13136 
13148 
13183 
13198 
13137 
13142 
13147 
13106 
13127 
13094 
13063 
13028 
12998 
13005 
12964 
12890 
12843 
12858 
12897 
12852 
12793 
12773 
12775 
12802 
12761 
12785 
12772 
12751 
12736 
12719 
12735 
12729 
12719 
12707 
12707 
12702 
12733 
12718 
12751 
12763 
12744 
12746 
12744 
12754 
12740 
12765 
12751 
12792 
12761 
12726 
12750 
12725 
12731 
12746 
12747 
12746 
12798 
12725 
12749 
12763 
12783 
12771 
12751 
12756 
12791 
12781 
12756 
12755 
12767 
12770 
12769 
12782 
12761 
12797 
12725 
12730 
12771 
12787 
12775 
12753 
12778 
12822 
12752 
12739 
12767 
12785 
12747 
12744 
12741 
12757 
12800 
12771 
12784 
12791 
12800 
12743 
12733 
12783 
12793 
12766 
12812 
12837 
12820 
12769 
12773 
12805 
12797 
12848 
12832 
12829 
12835 
12805 
12765 
12773 
12812 
12782 
12762 
12741 
12752 
12731 
12718 
12764 
12785 
12752 
12751 
12734 
12711 
12739 
12754 
12749 
12767 
12776 
12711 
12712 
12808 
12921 
13034 
13148 
13282 
13292 
13138 
12864 
12704 
12565 
12446 
12505 
12611 
12700 
12741 
12794 
12791 
12770 
12832 
12864 
12848 
12808 
12802 
12835 
12819 
12838 
12863 
12866 
12857 
12865 
12865 
12842 
12875 
12887 
12924 
12925 
12873 
12855 
12877 
12915 
12911 
12936 
12911 
12937 
12988 
12960 
12942 
12975 
12998 
13005 
13018 
13039 
13050 
13064 
13081 
13115 
13140 
13123 
13121 
13108 
13153 
13183 
13216 
13231 
13210 
13225 
13211 
13193 
13166 
13165 
13116 
13055 
13010 
12971 
12957 
12959 
12941 
12893 
12869 
12867 
12852 
12826 
12771 
12757 
12821 
12808 
12785 
12780 
12780 
12809 
12793 
12781 
12780 
12807 
12836 
12754 
12733 
12764 
12773 
12777 
12773 
12790 
12789 
12778 
12742 
12789 
12776 
12754 
12828 
12831 
12804 
12781 
12814 
12835 
12848 
12837 
12826 
12840 
12869 
12858 
12811 
12793 
12816 
12800 
12776 
12760 
12793 
12816 
12835 
12807 
12792 
12812 
12822 
12825 
12798 
12812 
12816 
12823 
12838 
12877 
12824 
12790 
12775 
12798 
12794 
12824 
12832 
12776 
12785 
12815 
12824 
12880 
12826 
12781 
12772 
12822 
12817 
12815 
12818 
12863 
12857 
12805 
12834 
12815 
12864 
12838 
12842 
12880 
12887 
12866 
12838 
12835 
12837 
12853 
12859 
12792 
12766 
12781 
12745 
12741 
12805 
12807 
12761 
12760 
12778 
12772 
12742 
12733 
12773 
12826 
12774 
12773 
12804 
12821 
12927 
13070 
13189 
13313 
13376 
13272 
13004 
12784 
12610 
12482 
12531 
12596 
12677 
12737 
12754 
12810 
12807 
12848 
12856 
12834 
12879 
12872 
12879 
12864 
12903 
12899 
12876 
12862 
12879 
12868 
12881 
12882 
12881 
12911 
12943 
12901 
12887 
12911 
12892 
12899 
12953 
12924 
12942 
12997 
12985 
13001 
13018 
13010 
13018 
13040 
13064 
13077 
13077 
13134 
13169 
13143 
13165 
13192 
13192 
13178 
13192 
13256 
13251 
13224 
13196 
13215 
13241 
13240 
13162 
13148 
13120 
13071 
13026 
13009 
12942 
12911 
12931 
12943 
12893 
12846 
12822 
12825 
12828 
12806 
12794 
12785 
12828 
12804 
12793 
12791 
12775 
12766 
12784 
12819 
12822 
12799 
12769 
12758 
12776 
12783 
12793 
12830 
12815 
12804 
12842 
12816 
12819 
12802 
12804 
12813 
12827 
12790 
12784 
12826 
12815 
12808 
12828 
12822 
12806 
12823 
12822 
12810 
12852 
12815 
12790 
12777 
12800 
12837 
12826 
12788 
12796 
12844 
12832 
12803 
12771 
12765 
12856 
12853 
12815 
12804 
12771 
12767 
12827 
12857 
12832 
12852 
12843 
12783 
12812 
12824 
12831 
12824 
12821 
12813 
12815 
12824 
12830 
12842 
12873 
12886 
12841 
12862 
12862 
12837 
12798 
12817 
12858 
12809 
12764 
12787 
12799 
12781 
12800 
12789 
12783 
12750 
12719 
12787 
12774 
12763 
12772 
12788 
12799 
12788 
12757 
12731 
12862 
13049 
13159 
13157 
13262 
13293 
13043 
12808 
12699 
12530 
12493 
12549 
12653 
12754 
12799 
12809 
12791 
12802 
12857 
12845 
12823 
12823 
12868 
12863 
12807 
12826 
12864 
12873 
12855 
12835 
12845 
12857 
12850 
12848 
12885 
12927 
12899 
12905 
12951 
12955 
12884 
12871 
12916 
12968 
12968 
12951 
12968 
12975 
12999 
13015 
13019 
13015 
13039 
13035 
13061 
13101 
13133 
13120 
13122 
13165 
13162 
13160 
13212 
13234 
13197 
13168 
13160 
13148 
13119 
13091 
13075 
13038 
13019 
13007 
12939 
12882 
12872 
12863 
12837 
12826 
12828 
12813 
12793 
12793 
12779 
12790 
12737 
12727 
12763 
12767 
12754 
12757 
12767 
12819 
12755 
12725 
12745 
12749 
12740 
12716 
12713 
12756 
12761 
12742 
12765 
12776 
12780 
12750 
12730 
12725 
12746 
12785 
12752 
12750 
12805 
12756 
12735 
12750 
12787 
12758 
12754 
12742 
12760 
12766 
12779 
12756 
12749 
12705 
12710 
12747 
12764 
12769 
12781 
12747 
12728 
12740 
12748 
12744 
12762 
12765 
12766 
12751 
12762 
12786 
12771 
12751 
12773 
12787 
12799 
12787 
12781 
12775 
12801 
12860 
12842 
12825 
12800 
12767 
12769 
12822 
12794 
12768 
12817 
12817 
12790 
12754 
12731 
12721 
12774 
12796 
12776 
12750 
12748 
12752 
12718 
12731 
12766 
12761 
12763 
12744 
12740 
12742 
12717 
12700 
12785 
12888 
12992 
13061 
13199 
13293 
13164 
12932 
12757 
12628 
12491 
12522 
12625 
12718 
12735 
12759 
12805 
12841 
12816 
12781 
12778 
12782 
12798 
12777 
12797 
12795 
12782 
12772 
12809 
12822 
12829 
12851 
12850 
12815 
12905 
12867 
12829 
12861 
12950 
12878 
12831 
12895 
12909 
12954 
12967 
12909 
12940 
12942 
12932 
12962 
13007 
12982 
13017 
13034 
13014 
13051 
13089 
13070 
13108 
13153 
13152 
13184 
13197 
13178 
13187 
13191 
13178 
13137 
13148 
13124 
13058 
13086 
13017 
12955 
12889 
12849 
12830 
12842 
12805 
12805 
12801 
12775 
12810 
12810 
12770 
12719 
12706 
12737 
12772 
12747 
12731 
12781 
12749 
12733 
12762 
12729 
12715 
12731 
12728 
12706 
12683 
12701 
12722 
12752 
12730 
12728 
12724 
12708 
12703 
12725 
12753 
12770 
12753 
12756 
12743 
12763 
12781 
12771 
12743 
12751 
12742 
12775 
12775 
12698 
12724 
12750 
12748 
12713 
12710 
12719 
12740 
12711 
12715 
12758 
12724 
12747 
12749 
12745 
12761 
12745 
12717 
12768 
12780 
12806 
12780 
12767 
12764 
12732 
12790 
12810 
12794 
12792 
12756 
12751 
12716 
12741 
12759 
12724 
12754 
12806 
12720 
12673 
12686 
12717 
12687 
12677 
12736 
12750 
12731 
12715 
12688 
12711 
12693 
12708 
12742 
12712 
12705 
12694 
12723 
12841 
12993 
13127 
13271 
13323 
13154 
12917 
12699 
12489 
12349 
12433 
12514 
12633 
12665 
12688 
12736 
12763 
12786 
12777 
12753 
12724 
12760 
12758 
12751 
12765 
12797 
12823 
12808 
12730 
12796 
12817 
12783 
12771 
12750 
12802 
12835 
12815 
12818 
12829 
12858 
12857 
12865 
12863 
12877 
12897 
12892 
12896 
12897 
12924 
12919 
12906 
12953 
13020 
13029 
13051 
13070 
13079 
13090 
13063 
13048 
13117 
13168 
13170 
13144 
13146 
13156 
13085 
13068 
13084 
13014 
12978 
12945 
12912 
12901 
12874 
12863 
12782 
12732 
12753 
12733 
12688 
12693 
12707 
12706 
12679 
12697 
12670 
12667 
12672 
12696 
12696 
12687 
12676 
12696 
12744 
12716 
12683 
12670 
12657 
12648 
12625 
12639 
12665 
12629 
12637 
12653 
12687 
12689 
12678 
12684 
12702 
12679 
12673 
12695 
12717 
12710 
12698 
12711 
12700 
12671 
12635 
12666 
12687 
12676 
12644 
12655 
12688 
12674 
12628 
12620 
12688 
12694 
12712 
12686 
12674 
12694 
12680 
12688 
12701 
12720 
12721 
12714 
12689 
12737 
12729 
12673 
12660 
12664 
12674 
12664 
12641 
12624 
12628 
12616 
12598 
12606 
12622 
12609 
12607 
12566 
12621 
12632 
12653 
12640 
12632 
12626 
12614 
12575 
12594 
12687 
12812 
12945 
13088 
13236 
13194 
12992 
12737 
12537 
12369 
12337 
12371 
12472 
12550 
12534 
12587 
12640 
12657 
12680 
12681 
12684 
12672 
12635 
12661 
12686 
12700 
12706 
12704 
12739 
12684 
12699 
12705 
12702 
12720 
12721 
12728 
12789 
12783 
12764 
12722 
12761 
12816 
12808 
12809 
12803 
12781 
12782 
12807 
12816 
12835 
12848 
12905 
12864 
12926 
12963 
12931 
12957 
13042 
13050 
13014 
13036 
13044 
13032 
13049 
13092 
13107 
13080 
13008 
12960 
12907 
12883 
12867 
12844 
12779 
12773 
12744 
12682 
12658 
12653 
12648 
12625 
12609 
12596 
12640 
12608 
12621 
12605 
12619 
12623 
12576 
12569 
12596 
12587 
12611 
12588 
12597 
12582 
12579 
12589 
12596 
12592 
12573 
12576 
12564 
12572 
12557 
12561 
12577 
12584 
12588 
12599 
12558 
12574 
12574 
12592 
12618 
12603 
12607 
12623 
12607 
12572 
12577 
12601 
12598 
12587 
12604 
12595 
12569 
12556 
12568 
12585 
12594 
12616 
12599 
12606 
12601 
12583 
12591 
12634 
12646 
12643 
12644 
12630 
12607 
12597 
12579 
12575 
12552 
12545 
12549 
12584 
12564 
12550 
12546 
12554 
12541 
12524 
12508 
12518 
12526 
12497 
12497 
12537 
12580 
12548 
12506 
12641 
12777 
12879 
13046 
13105 
13064 
12812 
12582 
12419 
12266 
12231 
12336 
12429 
12450 
12483 
12530 
12596 
12611 
12583 
12550 
12567 
12565 
12562 
12574 
12612 
12595 
12627 
12629 
12615 
12623 
12602 
12595 
12579 
12620 
12639 
12635 
12636 
12622 
12623 
12636 
12631 
12670 
12684 
12690 
12692 
12706 
12713 
12695 
12738 
12729 
12744 
12757 
12764 
12780 
12807 
12825 
12888 
12880 
12847 
12894 
12928 
12922 
12932 
12910 
12907 
12892 
12897 
12890 
12842 
12785 
12743 
12727 
12692 
12667 
12599 
12589 
12558 
12515 
12533 
12506 
12526 
12488 
12469 
12499 
12504 
12498 
12487 
12474 
12466 
12504 
12485 
12459 
12441 
12452 
12472 
12462 
12481 
12487 
12482 
12444 
12485 
12502 
12446 
12445 
12464 
12475 
12473 
12468 
12479 
12475 
12431 
12491 
12476 
12472 
12467 
12466 
12478 
12456 
12462 
12504 
12514 
12503 
12476 
12448 
12459 
12495 
12473 
12426 
12453 
12477 
12508 
12459 
12451 
12493 
12513 
12495 
12468 
12491 
12519 
12500 
12473 
12459 
12493 
12525 
12462 
12457 
12453 
12436 
12464 
12445 
12425 
12430 
12416 
12396 
12415 
12401 
12421 
12407 
12382 
12421 
12453 
12447 
12433 
12429 
12421 
12418 
12484 
12599 
12715 
12819 
12922 
12944 
12734 
12539 
12404 
12267 
12186 
12189 
12278 
12379 
12405 
12401 
12414 
12466 
12491 
12442 
12435 
12481 
12521 
12512 
12475 
12463 
12462 
12491 
12464 
12489 
12521 
12467 
12448 
12486 
12479 
12478 
12502 
12548 
12526 
12509 
12547 
12564 
12574 
12551 
12561 
12556 
12555 
12589 
12615 
12614 
12612 
12644 
12665 
12673 
12722 
12682 
12712 
12731 
12738 
12796 
12800 
12814 
12812 
12802 
12800 
12759 
12768 
12727 
12693 
12632 
12602 
12608 
12615 
12549 
12527 
12496 
12495 
12513 
12438 
12363 
12404 
12412 
12394 
12390 
12391 
12389 
12383 
12366 
12390 
12394 
12360 
12351 
12361 
12369 
12355 
12368 
12352 
12344 
12380 
12392 
12361 
12362 
12392 
12385 
12364 
12351 
12370 
12376 
12353 
12355 
12371 
12361 
12369 
12384 
12405 
12417 
12355 
12342 
12366 
12329 
12345 
12365 
12380 
12387 
12392 
12381 
12350 
12353 
12335 
12334 
12325 
12326 
12323 
12342 
12354 
12371 
12367 
12386 
12391 
12382 
12360 
12349 
12351 
12381 
12360 
12364 
12370 
12379 
12365 
12355 
12386 
12389 
12367 
12368 
12375 
12347 
12353 
12313 
12267 
12300 
12335 
12322 
12320 
12286 
12303 
12295 
12300 
12268 
12301 
12337 
12282 
12294 
12320 
12332 
12293 
12270 
12294 
12385 
12482 
12573 
12698 
12753 
12772 
12625 
12450 
12350 
12118 
12039 
12107 
12193 
12246 
12279 
12308 
12350 
12324 
12314 
12345 
12335 
12308 
12352 
12336 
12377 
12384 
12362 
12333 
12393 
12367 
12321 
12334 
12388 
12374 
12373 
12393 
12376 
12376 
12397 
12380 
12402 
12429 
12430 
12410 
12390 
12381 
12450 
12467 
12484 
12454 
12522 
12542 
12520 
12563 
12557 
12559 
12600 
12611 
12631 
12672 
12670 
12659 
12659 
12665 
12636 
12646 
12625 
12593 
12556 
12573 
12523 
12499 
12469 
12416 
12396 
12355 
12348 
12327 
12292 
12292 
12294 
12269 
12270 
12270 
12241 
12266 
12281 
12252 
12227 
12232 
12244 
12244 
12239 
12214 
12217 
12217 
12207 
12198 
12213 
12255 
12267 
12255 
12235 
12243 
12263 
12225 
12211 
12200 
12221 
12253 
12248 
12239 
12237 
12229 
12235 
12234 
12258 
12253 
12218 
12205 
12224 
12230 
12262 
12260 
12255 
12211 
12248 
12225 
12216 
12248 
12245 
12238 
12234 
12222 
12223 
12242 
12233 
12213 
12239 
12230 
12195 
12240 
12244 
12227 
12201 
12211 
12223 
12214 
12203 
12185 
12243 
12226 
12183 
12217 
12220 
12205 
12210 
12194 
12202 
12209 
12212 
12211 
12233 
12232 
12210 
12245 
12229 
12271 
12269 
12229 
12209 
12218 
12249 
12242 
12229 
12261 
12245 
12179 
12184 
12180 
12180 
12154 
12161 
12179 
12163 
12196 
12211 
12207 
12173 
12180 
12182 
12186 
12209 
12182 
12146 
12163 
12155 
12146 
12203 
12291 
12436 
12540 
12613 
12702 
12646 
12458 
12309 
12133 
11983 
12026 
12073 
12117 
12189 
12247 
12278 
12235 
12213 
12263 
12250 
12241 
12253 
12284 
12274 
12248 
12255 
12247 
12261 
12260 
12301 
12313 
12298 
12300 
12300 
12319 
12308 
12286 
12324 
12371 
12371 
12364 
12364 
12339 
12316 
12394 
12413 
12403 
12409 
12420 
12428 
12443 
12475 
12482 
12512 
12514 
12519 
12546 
12584 
12582 
12618 
12661 
12619 
12540 
12619 
12656 
12602 
12572 
12611 
12570 
12546 
12512 
12444 
12430 
12430 
12361 
12357 
12348 
12319 
12332 
12308 
12306 
12296 
12284 
12268 
12278 
12262 
12252 
12258 
12280 
12307 
12253 
12276 
12272 
12289 
12264 
12221 
12222 
12271 
12275 
12253 
12255 
12250 
12322 
12308 
12283 
12279 
12296 
12278 
12267 
12307 
12361 
12326 
12304 
12290 
12316 
12308 
12258 
12285 
12344 
12309 
12288 
12269 
12275 
12323 
12323 
12322 
12335 
12354 
12362 
12324 
12345 
12346 
12314 
12306 
12321 
12325 
12351 
12350 
12336 
12345 
12326 
12325 
12318 
12331 
12325 
12328 
12330 
12324 
12363 
12398 
12331 
12332 
12344 
12362 
12353 
12325 
12306 
12299 
12309 
12433 
12424 
12369 
12364 
12364 
12383 
12372 
12364 
12354 
12365 
12362 
12360 
12368 
12364 
12356 
12391 
12400 
12384 
12379 
12389 
12382 
12365 
12373 
12402 
12406 
12400 
12389 
12375 
12399 
12414 
12448 
12458 
12451 
12446 
12450 
12442 
12450 
12451 
12455 
12456 
12461 
12408 
12388 
12433 
12419 
12388 
12395 
12418 
12415 
12402 
12407 
12421 
12405 
12410 
12472 
12445 
12441 
12398 
12422 
12433 
12426 
12417 
12407 
12441 
12517 
12569 
12670 
12772 
12866 
12910 
12776 
12601 
12538 
12367 
12254 
12269 
12393 
12443 
12483 
12494 
12501 
12506 
12510 
12491 
12533 
12536 
12508 
12467 
12477 
12536 
12525 
12536 
12556 
12556 
12543 
12513 
12521 
12564 
12561 
12554 
12572 
12614 
12576 
12550 
12555 
12633 
12654 
12611 
12614 
12616 
12652 
12672 
12684 
12693 
12720 
12698 
12695 
12754 
12776 
12824 
12771 
12766 
12802 
12838 
12860 
12828 
12864 
12859 
12849 
12876 
12857 
12852 
12827 
12790 
12783 
12750 
12738 
12702 
12672 
12659 
12620 
12608 
12578 
12544 
12579 
12571 
12523 
12496 
12513 
12531 
12516 
12512 
12500 
12520 
12513 
12520 
12540 
12498 
12509 
12534 
12497 
12501 
12540 
12538 
12542 
12536 
12515 
12518 
12539 
12585 
12538 
12507 
12500 
12479 
12476 
12520 
12530 
12524 
12531 
12538 
12537 
12525 
12514 
12494 
12514 
12514 
12510 
12569 
12542 
12511 
12507 
12529 
12529 
12541 
12528 
12508 
12532 
12509 
12463 
12492 
12502 
12527 
12553 
12498 
12526 
12551 
12511 
12516 
12528 
12578 
12543 
12535 
12574 
12553 
12516 
12533 
12530 
12526 
12521 
12499 
12513 
12553 
12514 
12530 
12556 
12521 
12485 
12525 
12538 
12544 
12526 
12542 
12545 
12554 
12532 
12503 
12491 
12499 
12555 
12529 
12518 
12495 
12500 
12499 
12511 
12502 
12496 
12506 
12507 
12513 
12512 
12530 
12508 
12500 
12533 
12534 
12502 
12530 
12527 
12533 
12527 
12484 
12507 
12498 
12525 
12532 
12528 
12530 
12537 
12522 
12532 
12502 
12535 
12558 
12545 
12548 
12540 
12523 
12514 
12466 
12481 
12487 
12474 
12487 
12501 
12458 
12428 
12474 
12504 
12494 
12436 
12462 
12451 
12466 
12464 
12443 
12461 
12443 
12441 
12461 
12535 
12686 
12795 
12927 
12960 
12871 
12683 
12572 
12448 
12313 
12306 
12366 
12421 
12453 
12463 
12484 
12482 
12493 
12488 
12497 
12505 
12491 
12497 
12486 
12489 
12503 
12494 
12510 
12523 
12514 
12544 
12518 
12515 
12527 
12557 
12547 
12532 
12546 
12565 
12591 
12567 
12529 
12518 
12579 
12613 
12603 
12619 
12654 
12623 
12633 
12624 
12649 
12690 
12697 
12691 
12733 
12759 
12730 
12771 
12797 
12799 
12826 
12827 
12805 
12810 
12836 
12827 
12794 
12786 
12779 
12739 
12720 
12651 
12601 
12585 
12559 
12575 
12559 
12501 
12476 
12472 
12427 
12383 
12374 
12443 
12445 
12422 
12404 
12409 
12409 
12400 
12412 
12423 
12400 
12363 
12387 
12397 
12374 
12414 
12401 
12379 
12389 
12387 
12368 
12359 
12367 
12384 
12345 
12358 
12407 
12389 
12367 
12367 
12389 
12385 
12364 
12394 
12382 
12355 
12370 
12380 
12320 
12325 
12350 
12358 
12383 
12360 
12387 
12377 
12352 
12371 
12340 
12331 
12307 
12319 
12354 
12328 
12311 
12339 
12347 
12328 
12287 
12297 
12308 
12304 
12298 
12300 
12368 
12347 
12284 
12302 
12344 
12350 
12314 
12287 
12318 
12312 
12260 
12298 
12331 
12264 
12277 
12299 
12260 
12288 
12300 
12286 
12301 
12296 
12273 
12268 
12295 
12293 
12300 
12307 
12287 
12286 
12286 
12250 
12246 
12263 
12269 
12267 
12279 
12309 
12257 
12270 
12229 
12238 
12252 
12268 
12253 
12247 
12249 
12233 
12247 
12233 
12223 
12255 
12300 
12314 
12290 
12261 
12274 
12253 
12237 
12276 
12273 
12246 
12291 
12297 
12269 
12276 
12281 
12287 
12275 
12274 
12310 
12298 
12270 
12299 
12319 
12263 
12223 
12242 
12237 
12261 
12265 
12229 
12238 
12238 
12242 
12234 
12236 
12228 
12241 
12222 
12182 
12227 
12247 
12199 
12247 
12224 
12295 
12404 
12491 
12607 
12699 
12713 
12541 
12334 
12248 
12074 
11979 
12023 
12155 
12240 
12242 
12266 
12278 
12246 
12236 
12253 
12297 
12303 
12278 
12293 
12302 
12282 
12284 
12312 
12307 
12260 
12277 
12309 
12303 
12330 
12328 
12299 
12311 
12327 
12314 
12294 
12310 
12368 
12372 
12324 
12334 
12339 
12377 
12403 
12404 
12407 
12420 
12439 
12437 
12480 
12516 
12496 
12505 
12541 
12569 
12579 
12583 
12576 
12579 
12595 
12607 
12605 
12563 
12578 
12586 
12534 
12503 
12486 
12466 
12453 
12409 
12356 
12307 
12338 
12339 
12282 
12259 
12238 
12241 
12243 
12224 
12225 
12192 
12183 
12222 
12162 
12140 
12160 
12197 
12179 
12179 
12196 
12221 
12172 
12184 
12138 
12160 
12173 
12175 
12161 
12199 
12222 
12198 
12148 
12176 
12180 
12189 
12211 
12194 
12172 
12178 
12186 
12185 
12203 
12151 
12133 
12173 
12204 
12195 
12199 
12209 
12250 
12201 
12168 
12145 
12167 
12145 
12158 
12169 
12175 
12166 
12170 
12169 
12154 
12129 
12131 
12142 
12197 
12195 
12124 
12174 
12186 
12159 
12167 
12169 
12170 
12174 
12149 
12128 
12144 
12145 
12114 
12151 
12169 
12155 
12130 
12142 
12163 
12158 
12146 
12113 
12108 
12158 
12170 
12171 
12167 
12148 
12144 
12159 
12161 
12177 
12127 
12132 
12166 
12146 
12119 
12109 
12118 
12132 
12147 
12125 
12094 
12122 
12169 
12155 
12097 
