7246 
7216 
7212 
7198 
7230 
7241 
7226 
7158 
7168 
7254 
7314 
7277 
7241 
7266 
7265 
7224 
7274 
7310 
7278 
7320 
7283 
7330 
7333 
7310 
7271 
7296 
7351 
7358 
7327 
7368 
7432 
7384 
7353 
7381 
7342 
7235 
7154 
7229 
7237 
7252 
7226 
7248 
7274 
7275 
7278 
7225 
7287 
7352 
7345 
7292 
7310 
7331 
7393 
7398 
7492 
7624 
7760 
7849 
7768 
7584 
7288 
7094 
7065 
7176 
7275 
7375 
7371 
7401 
7379 
7402 
7393 
7364 
7371 
7374 
7319 
7336 
7398 
7352 
7321 
7347 
7368 
7379 
7330 
7403 
7399 
7430 
7429 
7398 
7406 
7412 
7400 
7427 
7446 
7410 
7416 
7410 
7391 
7400 
7444 
7435 
7421 
7449 
7460 
7487 
7500 
7518 
7506 
7523 
7566 
7585 
7561 
7533 
7508 
7594 
7654 
7631 
7574 
7592 
7634 
7592 
7556 
7592 
7589 
7606 
7580 
7559 
7509 
7481 
7522 
7509 
7444 
7429 
7418 
7479 
7489 
7470 
7483 
7449 
7443 
7440 
7377 
7370 
7399 
7451 
7456 
7404 
7393 
7449 
7434 
7424 
7424 
7402 
7401 
7444 
7451 
7463 
7451 
7410 
7434 
7450 
7463 
7438 
7428 
7434 
7489 
7477 
7430 
7434 
7466 
7470 
7456 
7471 
7460 
7447 
7492 
7438 
7452 
7457 
7424 
7456 
7469 
7473 
7481 
7471 
7473 
7450 
7451 
7400 
7424 
7514 
7541 
7505 
7513 
7512 
7467 
7505 
7565 
7577 
7568 
7542 
7513 
7532 
7541 
7464 
7513 
7467 
7447 
7453 
7418 
7444 
7494 
7429 
7407 
7409 
7446 
7451 
7437 
7414 
7457 
7463 
7451 
7521 
7646 
7797 
7909 
8032 
7941 
7647 
7371 
7279 
7295 
7355 
7451 
7487 
7496 
7507 
7497 
7457 
7441 
7458 
7414 
7461 
7473 
7463 
7426 
7416 
7465 
7464 
7477 
7487 
7489 
7464 
7487 
7459 
7463 
7516 
7489 
7484 
7483 
7469 
7485 
7507 
7460 
7470 
7515 
7544 
7519 
7537 
7540 
7548 
7528 
7613 
7630 
7590 
7579 
7575 
7641 
7667 
7647 
7669 
7694 
7657 
7682 
7707 
7729 
7746 
7697 
7715 
7702 
7703 
7709 
7666 
7660 
7625 
7592 
7582 
7632 
7590 
7554 
7555 
7555 
7539 
7509 
7517 
7560 
7574 
7589 
7543 
7490 
7497 
7527 
7532 
7551 
7576 
7590 
7538 
7524 
7536 
7541 
7563 
7545 
7517 
7556 
7609 
7614 
7566 
7502 
7491 
7538 
7578 
7584 
7562 
7574 
7630 
7623 
7603 
7547 
7527 
7608 
7562 
7547 
7569 
7584 
7589 
7613 
7594 
7547 
7566 
7621 
7600 
7539 
7565 
7625 
7622 
7582 
7603 
7627 
7591 
7589 
7616 
7655 
7618 
7566 
7592 
7628 
7617 
7642 
7655 
7657 
7625 
7671 
7720 
7666 
7685 
7684 
7658 
7670 
7634 
7618 
7572 
7587 
7589 
7561 
7618 
7640 
7594 
7556 
7567 
7625 
7583 
7576 
7572 
7590 
7595 
7646 
7739 
7937 
8119 
8241 
8128 
7855 
7634 
7483 
7530 
7633 
7665 
7662 
7614 
7648 
7641 
7574 
7520 
7495 
7563 
7589 
7599 
7602 
7563 
7546 
7560 
7516 
7574 
7626 
7614 
7590 
7587 
7620 
7542 
7524 
7573 
7601 
7608 
7592 
7553 
7553 
7607 
7621 
7628 
7621 
7617 
7661 
7618 
7594 
7670 
7658 
7679 
7676 
7700 
7712 
7735 
7755 
7778 
7747 
7745 
7746 
7764 
7823 
7801 
7802 
7806 
7809 
7819 
7793 
7768 
7712 
7720 
7751 
7798 
7779 
7703 
7661 
7647 
7643 
7621 
7644 
7647 
7625 
7590 
7585 
7632 
7628 
7617 
7601 
7628 
7632 
7610 
7611 
7630 
7630 
7638 
7659 
7594 
7612 
7670 
7632 
7632 
7635 
7629 
7652 
7680 
7633 
7595 
7620 
7681 
7660 
7687 
7686 
7646 
7661 
7656 
7650 
7693 
7676 
7682 
7684 
7655 
7644 
7610 
7577 
7643 
7674 
7647 
7670 
7642 
7610 
7637 
7686 
7664 
7644 
7611 
7639 
7639 
7648 
7667 
7637 
7703 
7642 
7625 
7685 
7660 
7658 
7652 
7739 
7710 
7702 
7688 
7697 
7682 
7670 
7704 
7713 
7685 
7622 
7608 
7597 
7580 
7629 
7608 
7544 
7564 
7578 
7568 
7565 
7556 
7558 
7521 
7530 
7571 
7699 
7837 
7871 
8033 
8136 
7997 
7735 
7465 
7338 
7325 
7414 
7464 
7517 
7561 
7586 
7546 
7516 
7514 
7515 
7491 
7520 
7487 
7510 
7486 
7485 
7514 
7487 
7437 
7468 
7536 
7516 
7504 
7447 
7429 
7461 
7508 
7458 
7448 
7428 
7408 
7464 
7514 
7509 
7478 
7482 
7479 
7433 
7379 
7331 
7318 
7407 
7457 
7457 
7479 
7479 
7507 
7516 
7526 
7521 
7519 
7484 
7572 
7610 
7593 
7536 
7480 
7500 
7526 
7549 
7536 
7473 
7505 
7490 
7445 
7401 
7357 
7372 
7333 
7299 
7314 
7274 
7305 
7222 
7260 
7267 
7266 
7244 
7186 
7181 
7220 
7236 
7177 
7156 
7192 
7143 
7105 
7130 
7172 
7176 
7169 
7152 
7157 
7131 
7111 
7107 
7103 
7143 
7128 
7158 
7125 
7115 
7084 
7080 
7062 
7073 
7061 
7049 
7028 
7076 
7045 
7004 
7026 
7015 
7038 
7009 
7012 
7028 
7026 
6979 
7004 
7013 
7017 
6944 
6984 
7029 
7007 
7018 
7019 
7022 
7007 
6991 
7039 
6986 
7034 
7083 
7063 
7012 
6974 
6927 
6877 
6897 
6904 
6847 
6863 
6896 
6893 
6852 
6852 
6848 
6874 
6895 
6863 
6872 
6822 
6851 
6937 
7038 
7188 
7326 
7353 
7219 
6946 
6686 
6574 
6598 
6718 
6865 
6807 
6814 
6832 
6808 
6786 
6759 
6778 
6776 
6790 
6799 
6773 
6775 
6811 
6783 
6780 
6854 
6814 
6802 
6808 
6812 
6800 
6804 
6796 
6801 
6789 
6774 
6785 
6788 
6803 
6786 
6792 
6843 
6846 
6835 
6819 
6874 
6913 
6888 
6886 
6898 
6908 
6897 
6881 
6947 
6968 
6978 
7006 
6987 
6945 
6983 
7028 
7086 
7055 
7005 
7011 
7018 
6985 
7010 
6986 
6919 
6858 
6859 
6917 
6840 
6806 
6836 
6864 
6820 
6821 
6753 
6785 
6768 
6829 
6821 
6787 
6762 
6733 
6773 
6778 
6761 
6772 
6760 
6727 
6740 
6753 
6803 
6794 
6769 
6759 
6749 
6759 
6804 
6755 
6783 
6804 
6778 
6775 
6833 
6806 
6769 
6770 
6750 
6793 
6812 
6778 
6751 
6757 
6794 
6867 
6844 
6787 
6751 
6791 
6796 
6795 
6775 
6789 
6819 
6836 
6823 
6837 
6814 
6751 
6756 
6813 
6828 
6802 
6849 
6877 
6869 
6844 
6853 
6871 
6832 
6838 
6880 
6893 
6850 
6781 
6768 
6745 
6692 
6710 
6758 
6764 
6732 
6693 
6718 
6778 
6751 
6700 
6703 
6743 
6764 
6831 
6926 
7101 
7334 
7428 
7340 
7023 
6746 
6634 
6687 
6758 
6808 
6823 
6808 
6787 
6811 
6798 
6783 
6727 
6737 
6739 
6699 
6700 
6768 
6746 
6730 
6744 
6746 
6793 
6770 
6749 
6697 
6735 
6818 
6814 
6757 
6792 
6782 
6772 
6769 
6779 
6776 
6806 
6796 
6832 
6829 
6770 
6806 
6843 
6885 
6881 
6880 
6873 
6888 
6962 
6965 
6957 
6972 
7005 
7021 
7020 
7011 
7011 
6963 
6968 
7005 
7045 
7061 
7016 
6981 
6895 
6887 
6920 
6956 
6929 
6877 
6880 
6867 
6896 
6834 
6796 
6853 
6833 
6839 
6852 
6816 
6768 
6842 
6881 
6854 
6856 
6866 
6840 
6856 
6823 
6743 
6843 
6869 
6848 
6870 
6858 
6826 
6817 
6888 
6888 
6842 
6865 
6858 
6834 
6782 
6844 
6870 
6852 
6836 
6823 
6839 
6863 
6860 
6840 
6830 
6850 
6850 
6844 
6824 
6832 
6810 
6801 
6850 
6856 
6820 
6798 
6813 
6779 
6754 
6785 
6881 
6881 
6865 
6835 
6835 
6836 
6849 
6835 
6839 
6893 
6910 
6922 
6944 
6906 
6921 
6877 
6810 
6860 
6817 
6806 
6767 
6781 
6767 
6754 
6746 
6773 
6813 
6769 
6727 
6716 
6740 
6750 
6774 
6771 
6833 
6965 
7155 
7293 
7382 
7230 
6954 
6701 
6569 
6615 
6706 
6754 
6821 
6822 
6784 
6756 
6748 
6753 
6756 
6736 
6763 
6715 
6725 
6712 
6716 
6733 
6732 
6711 
6739 
6716 
6735 
6750 
6704 
6726 
6719 
6763 
6760 
6742 
6668 
6711 
6699 
6748 
6766 
6777 
6728 
6677 
6690 
6768 
6739 
6720 
6743 
6803 
6829 
6807 
6819 
6869 
6825 
6796 
6830 
6862 
6893 
6872 
6834 
6826 
6862 
6812 
6861 
6939 
6847 
6787 
6769 
6748 
6779 
6761 
6723 
6743 
6696 
6652 
6601 
6627 
6648 
6657 
6635 
6607 
6595 
6552 
6541 
6560 
6568 
6575 
6565 
6626 
6621 
6582 
6541 
6552 
6571 
6591 
6585 
6576 
6542 
6562 
6579 
6498 
6564 
6586 
6629 
6593 
6567 
6563 
6564 
6553 
6537 
6541 
6549 
6524 
6546 
6526 
6539 
6534 
6494 
6463 
6525 
6483 
6489 
6465 
6448 
6494 
6549 
6528 
6537 
6540 
6526 
6533 
6564 
6555 
6514 
6517 
6523 
6544 
6599 
6574 
6555 
6620 
6597 
6529 
6541 
6549 
6506 
6464 
6463 
6462 
6430 
6468 
6506 
6514 
6516 
6502 
6460 
6416 
6401 
6465 
6465 
6449 
6542 
6677 
6884 
7009 
6935 
6711 
6430 
6262 
6223 
6266 
6308 
6331 
6373 
6445 
6455 
6451 
6443 
6479 
6445 
6459 
6434 
6427 
6409 
6450 
6501 
6475 
6522 
6492 
6447 
6442 
6452 
6460 
6491 
6527 
6496 
6480 
6509 
6543 
6505 
6483 
6541 
6555 
6542 
6521 
6536 
6589 
6590 
6550 
6578 
6600 
6560 
6593 
6619 
6646 
6638 
6670 
6669 
6638 
6674 
6682 
6696 
6712 
6720 
6676 
6678 
6718 
6687 
6637 
6627 
6621 
6639 
6588 
6545 
6584 
6594 
6544 
6488 
6513 
6544 
6504 
6475 
6517 
6490 
6474 
6497 
6508 
6521 
6468 
6435 
6479 
6488 
6483 
6475 
6473 
6479 
6421 
6425 
6468 
6468 
6493 
6482 
6500 
6507 
6507 
6466 
6479 
6508 
6507 
6468 
6470 
6457 
6523 
6525 
6480 
6476 
6527 
6517 
6517 
6498 
6484 
6501 
6544 
6486 
6473 
6522 
6544 
6537 
6512 
6523 
6519 
6562 
6536 
6521 
6520 
6543 
6621 
6603 
6599 
6591 
6602 
6617 
6585 
6608 
6533 
6489 
6494 
6487 
6446 
6451 
6446 
6537 
6513 
6511 
6469 
6434 
6423 
6404 
6448 
6474 
6498 
6529 
6601 
6758 
6994 
7049 
7020 
6801 
6476 
6345 
6331 
6418 
6494 
6518 
6517 
6486 
6449 
6429 
6415 
6401 
6448 
6461 
6461 
6443 
6474 
6430 
6463 
6481 
6426 
6420 
6445 
6474 
6467 
6465 
6451 
6448 
6413 
6448 
6504 
6517 
6475 
6487 
6472 
6471 
6503 
6499 
6519 
6537 
6512 
6506 
6508 
6523 
6547 
6541 
6549 
6571 
6639 
6674 
6640 
6612 
6630 
6678 
6678 
6657 
6693 
6707 
6694 
6675 
6653 
6667 
6645 
6646 
6624 
6661 
6588 
6532 
6564 
6567 
6542 
6525 
6535 
6533 
6481 
6511 
6509 
6501 
6523 
6530 
6497 
6470 
6469 
6488 
6497 
6441 
6496 
6512 
6484 
6532 
6529 
6487 
6475 
6493 
6493 
6474 
6487 
6531 
6540 
6527 
6490 
6469 
6480 
6537 
6561 
6522 
6473 
6500 
6546 
6542 
6503 
6460 
6491 
6514 
6481 
6488 
6530 
6536 
6509 
6439 
6474 
6501 
6496 
6539 
6543 
6513 
6529 
6532 
6523 
6549 
6556 
6516 
6562 
6597 
6600 
6616 
6611 
6597 
6577 
6519 
6527 
6522 
6436 
6501 
6493 
6494 
6501 
6502 
6513 
6484 
6452 
6452 
6453 
6451 
6470 
6500 
6496 
6573 
6705 
6906 
7080 
7147 
6997 
6722 
6485 
6397 
6382 
6483 
6567 
6518 
6530 
6492 
6512 
6487 
6449 
6449 
6447 
6427 
6472 
6481 
6436 
6439 
6437 
6436 
6495 
6501 
6462 
6436 
6472 
6468 
6425 
6468 
6450 
6495 
6502 
6464 
6474 
6448 
6455 
6498 
6511 
6518 
6541 
6532 
6527 
6488 
6491 
6551 
6565 
6516 
6530 
6535 
6538 
6597 
6589 
6576 
6600 
6631 
6617 
6592 
6629 
6642 
6673 
6634 
6571 
6586 
6579 
6574 
6540 
6526 
6492 
6481 
6487 
6424 
6368 
6384 
6404 
6381 
6346 
6337 
6364 
6361 
6373 
6357 
6323 
6338 
6341 
6341 
6320 
6316 
6431 
6389 
6382 
6360 
6347 
6345 
6338 
6324 
6344 
6332 
6346 
6290 
6286 
6278 
6295 
6303 
6350 
6323 
6312 
6316 
6297 
6260 
6269 
6315 
6282 
6277 
6332 
6314 
6249 
6232 
6350 
6330 
6307 
6286 
6195 
6260 
6288 
6303 
6262 
6234 
6294 
6297 
6237 
6244 
6204 
6264 
6312 
6322 
6335 
6326 
6353 
6337 
6268 
6257 
6258 
6255 
6193 
6128 
6156 
6168 
6139 
6102 
6111 
6163 
6141 
6139 
6120 
6110 
6134 
6094 
6089 
6115 
6124 
6201 
6336 
6509 
6678 
6700 
6527 
6241 
5941 
5867 
5924 
5971 
6080 
6172 
6155 
6122 
6040 
5969 
6012 
6040 
5990 
5989 
6036 
6021 
6000 
6001 
5986 
6030 
5978 
6009 
5966 
5963 
6003 
5966 
5972 
6017 
6006 
5957 
5961 
5950 
5927 
6031 
5963 
5951 
6009 
5965 
5991 
6031 
5958 
5977 
6021 
6012 
5992 
5922 
5966 
6001 
6031 
6015 
5984 
6008 
6057 
6086 
6048 
6017 
6020 
6071 
6074 
6023 
6002 
5965 
5947 
5908 
5926 
5892 
5856 
5815 
5785 
5797 
5768 
5753 
5715 
5696 
5730 
5753 
5719 
5664 
5651 
5631 
5659 
5644 
5663 
5613 
5607 
5625 
5588 
5592 
5621 
5604 
5580 
5582 
5590 
5522 
5534 
5588 
5543 
5513 
5549 
5551 
5540 
5557 
5532 
5494 
5544 
5516 
5467 
5486 
5454 
5463 
5472 
5481 
5447 
5415 
5416 
5398 
5325 
5303 
5354 
5389 
5404 
5362 
5348 
5338 
5350 
5308 
5372 
5388 
5379 
5353 
5307 
5308 
5410 
5441 
5379 
5281 
5277 
5304 
5247 
5214 
5195 
5207 
5196 
5130 
5158 
5169 
5200 
5195 
5195 
5138 
5103 
5113 
5125 
5161 
5233 
5350 
5522 
5624 
5551 
5329 
5049 
4851 
4811 
4886 
4965 
5017 
5041 
5051 
5023 
5004 
4983 
4948 
4920 
4916 
4988 
4954 
4981 
4986 
4937 
4884 
4850 
4898 
4943 
4910 
4870 
4890 
4903 
4854 
4805 
4829 
4863 
4829 
4818 
4865 
4825 
4797 
4778 
4835 
4823 
4785 
4794 
4808 
4800 
4801 
4768 
4749 
4844 
4895 
4837 
4792 
4792 
4832 
4855 
4853 
4864 
4869 
4858 
4805 
4782 
4826 
4826 
4755 
4722 
4693 
4696 
4669 
4706 
4642 
4597 
4570 
4567 
4592 
4553 
4511 
4512 
4436 
4451 
4469 
4497 
4473 
4455 
4403 
4381 
4412 
4378 
4462 
4434 
4378 
4382 
4439 
4442 
4396 
4408 
4372 
4377 
4341 
4364 
4404 
4365 
4326 
4354 
4328 
4299 
4335 
4320 
4320 
4290 
4278 
4344 
4322 
4313 
4308 
4279 
4258 
4236 
4270 
4268 
4225 
4222 
4242 
4224 
4231 
4280 
4290 
4292 
4261 
4233 
4246 
4190 
4238 
4237 
4288 
4307 
4262 
4241 
4260 
4228 
4242 
4222 
4121 
4108 
4124 
4075 
4072 
4086 
4125 
4111 
4065 
4029 
4029 
4043 
4018 
4021 
4020 
4060 
4106 
4191 
4335 
4475 
4621 
4606 
4428 
4175 
3942 
3865 
3922 
4028 
4073 
4038 
4041 
3985 
3995 
3997 
3986 
3982 
4008 
3968 
3948 
3936 
3967 
3973 
3979 
3969 
3958 
3986 
3994 
3932 
3976 
4008 
3998 
3947 
3914 
3938 
3956 
3935 
3921 
3936 
3943 
4027 
3989 
3983 
3948 
3968 
3954 
3974 
4021 
3992 
3983 
3996 
4014 
4035 
4040 
4034 
4028 
4019 
4019 
4042 
4088 
4062 
4069 
4088 
4083 
4059 
4098 
4077 
4002 
4030 
4002 
3941 
3961 
3949 
3871 
3816 
3852 
3816 
3835 
3801 
3761 
3802 
3828 
3835 
3853 
3818 
3791 
3795 
3765 
3822 
3887 
3799 
3776 
3809 
3787 
3783 
3800 
3796 
3793 
3783 
3805 
3777 
3814 
3781 
3778 
3789 
3796 
3802 
3806 
3782 
3750 
3800 
3800 
3769 
3770 
3786 
3775 
3733 
3742 
3756 
3757 
3759 
3753 
3755 
3796 
3833 
3749 
3781 
3772 
3726 
3715 
3716 
3812 
3824 
3786 
3799 
3807 
3792 
3784 
3806 
3844 
3838 
3796 
3859 
3911 
3899 
3848 
3839 
3864 
3815 
3810 
3784 
3730 
3738 
3739 
3755 
3771 
3763 
3751 
3700 
3764 
3793 
3768 
3735 
3709 
3719 
3730 
3868 
4063 
4228 
4369 
4411 
4231 
3957 
3798 
3703 
3715 
3840 
3882 
3888 
3858 
3814 
3750 
3772 
3798 
3738 
3783 
3759 
3727 
3791 
3809 
3836 
3756 
3769 
3798 
3807 
3801 
3792 
3782 
3782 
3804 
3814 
3799 
3781 
3785 
3814 
3832 
3865 
3811 
3805 
3818 
3846 
3870 
3872 
3875 
3890 
3889 
3903 
3889 
3923 
3998 
3969 
3960 
3941 
3991 
4017 
3993 
4018 
4056 
3982 
4011 
4046 
4050 
4079 
4035 
4003 
3987 
4019 
3996 
3953 
3876 
3928 
3902 
3928 
3891 
3840 
3847 
3860 
3869 
3851 
3839 
3818 
3802 
3863 
3865 
3864 
3878 
3884 
3808 
3826 
3862 
3886 
3832 
3830 
3870 
3853 
3945 
3884 
3855 
3866 
3879 
3900 
3888 
3872 
3855 
3918 
3867 
3870 
3869 
3891 
3886 
3889 
3913 
3917 
3872 
3895 
3899 
3882 
3857 
3855 
3847 
3897 
3919 
3949 
3925 
3862 
3827 
3875 
3903 
3909 
3921 
3946 
3939 
3953 
3913 
3910 
3919 
3892 
3916 
3936 
3948 
3942 
4008 
4018 
4037 
4029 
4020 
4014 
3987 
3942 
3967 
3939 
3910 
3921 
3937 
3965 
3953 
3941 
3936 
3932 
3859 
3873 
3923 
3935 
3922 
3928 
3967 
4080 
4220 
4358 
4446 
4450 
4288 
4040 
3833 
3764 
3809 
3830 
3934 
4042 
4026 
3969 
3962 
3955 
3945 
3978 
3991 
4050 
4064 
4034 
4031 
4016 
4012 
4049 
4084 
4056 
4010 
4065 
4133 
4138 
4111 
4103 
4123 
4106 
4106 
4058 
4084 
4190 
4228 
4175 
4172 
4106 
4142 
4165 
4172 
4227 
4225 
4198 
4209 
4230 
4280 
4272 
4301 
4338 
4333 
4307 
4257 
4312 
4351 
4350 
4372 
4357 
4332 
4346 
4312 
4295 
4331 
4363 
4297 
4257 
4327 
4328 
4283 
4218 
4225 
4185 
4223 
4167 
4221 
4208 
4145 
4131 
4209 
4230 
4200 
4195 
4151 
4162 
4179 
4196 
4251 
4213 
4181 
4223 
4196 
4202 
4236 
4233 
4242 
4257 
4279 
4216 
4178 
4204 
4267 
4331 
4308 
4278 
4267 
4249 
4199 
4201 
4314 
4315 
4289 
4251 
4252 
4250 
4248 
4253 
4239 
4278 
4247 
4271 
4276 
4292 
4307 
4331 
4354 
4353 
4334 
4326 
4324 
4312 
4376 
4361 
4338 
4381 
4440 
4399 
4363 
4387 
4371 
4312 
4269 
4283 
4324 
4283 
4305 
4318 
4373 
4378 
4299 
4300 
4260 
4293 
4322 
4338 
4328 
4391 
4587 
4704 
4771 
4763 
4660 
4415 
4232 
4135 
4176 
4238 
4300 
4386 
4427 
4393 
4372 
4386 
4388 
4371 
4382 
4424 
4417 
4409 
4412 
4422 
4411 
4412 
4453 
4448 
4403 
4443 
4442 
4485 
4494 
4486 
4478 
4522 
4491 
4474 
4473 
4514 
4544 
4496 
4562 
4567 
4535 
4518 
4623 
4631 
4646 
4631 
4607 
4630 
4658 
4622 
4712 
4685 
4742 
4742 
4712 
4680 
4772 
4797 
4774 
4745 
4754 
4783 
4781 
4732 
4723 
4729 
4743 
4662 
4664 
4642 
4636 
4578 
4652 
4645 
4619 
4600 
4547 
4571 
4582 
4592 
4593 
4594 
4624 
4593 
4580 
4610 
4596 
4634 
4611 
4563 
4592 
4608 
4598 
4631 
4654 
4641 
4622 
4643 
4663 
4646 
4645 
4617 
4620 
4633 
4673 
4684 
4668 
4719 
4713 
4706 
4691 
4676 
4714 
4651 
4715 
4741 
4713 
4716 
4699 
4746 
4719 
4718 
4735 
4717 
4700 
4740 
4712 
4769 
4789 
4770 
4773 
4778 
4743 
4763 
4743 
4745 
4834 
4896 
4904 
4881 
4909 
4847 
4828 
4858 
4866 
4833 
4825 
4796 
4782 
4790 
4801 
4815 
4817 
4795 
4754 
4765 
4784 
4808 
4796 
4791 
4827 
4929 
4997 
5083 
5288 
5439 
5364 
5195 
4969 
4775 
4735 
4843 
4834 
4890 
4945 
4932 
4872 
4858 
4888 
4922 
4901 
4924 
4861 
4890 
4903 
4900 
4884 
4931 
4943 
4912 
4902 
4890 
4902 
4955 
4991 
4984 
4969 
4966 
4965 
4983 
4974 
4970 
4957 
5005 
5018 
5011 
5047 
4998 
4994 
5026 
5061 
5116 
5127 
5095 
5118 
5139 
5159 
5139 
5122 
5172 
5185 
5233 
5239 
5250 
5201 
5205 
5241 
5280 
5243 
5261 
5277 
5171 
5187 
5175 
5164 
5177 
5164 
5118 
5044 
5065 
5063 
5089 
5086 
5112 
5155 
5106 
5057 
5072 
5093 
5119 
5100 
5103 
5138 
5116 
5126 
5103 
5056 
5118 
5138 
5099 
5124 
5091 
5128 
5146 
5147 
5127 
5133 
5174 
5158 
5172 
5169 
5145 
5149 
5164 
5177 
5162 
5136 
5181 
5215 
5214 
5184 
5158 
5192 
5210 
5211 
5226 
5243 
5275 
5191 
5185 
5236 
5237 
5165 
5211 
5262 
5252 
5251 
5248 
5243 
5238 
5249 
5263 
5294 
5317 
5291 
5308 
5325 
5319 
5304 
5316 
5333 
5324 
5409 
5396 
5388 
5411 
5414 
5419 
5349 
5359 
5367 
5321 
5295 
5293 
5340 
5377 
5352 
5300 
5277 
5295 
5293 
5305 
5309 
5296 
5293 
5343 
5436 
5559 
5707 
5881 
6020 
5921 
5704 
5420 
5304 
5307 
5338 
5439 
5459 
5433 
5440 
5400 
5377 
5401 
5414 
5368 
5380 
5400 
5383 
5338 
5385 
5412 
5418 
5428 
5421 
5414 
5440 
5428 
5417 
5434 
5487 
5467 
5420 
5416 
5403 
5443 
5442 
5468 
5515 
5473 
5442 
5474 
5518 
5525 
5520 
5494 
5514 
5542 
5585 
5593 
5601 
5640 
5654 
5636 
5619 
5639 
5640 
5692 
5669 
5731 
5737 
5674 
5658 
5689 
5729 
5674 
5631 
5678 
5663 
5584 
5528 
5615 
5643 
5647 
5583 
5564 
5541 
5523 
5536 
5552 
5546 
5540 
5587 
5587 
5563 
5562 
5554 
5561 
5562 
5547 
5537 
5533 
5633 
5615 
5609 
5577 
5529 
5596 
5610 
5622 
5644 
5605 
5612 
5637 
5639 
5610 
5575 
5617 
5610 
5630 
5639 
5643 
5609 
5579 
5610 
5597 
5596 
5666 
5682 
5669 
5614 
5601 
5670 
5683 
5660 
5655 
5629 
5656 
5624 
5616 
5687 
5670 
5649 
5721 
5742 
5688 
5673 
5710 
5738 
5682 
5700 
5772 
5777 
5722 
5747 
5787 
5847 
5832 
5840 
5787 
5735 
5695 
5677 
5669 
5650 
5702 
5747 
5668 
5693 
5727 
5701 
5670 
5708 
5708 
5730 
5732 
5767 
5752 
5766 
5864 
6048 
6253 
6270 
6122 
5886 
5631 
5532 
5559 
5648 
5714 
5736 
5737 
5716 
5651 
5605 
5511 
5437 
5447 
5480 
5463 
5490 
5565 
5692 
5730 
5754 
5740 
5775 
5838 
5825 
5840 
5832 
5806 
5812 
5839 
5863 
5861 
5807 
5784 
5879 
5877 
5847 
5896 
5935 
5911 
5876 
5905 
5932 
5882 
5953 
5978 
5998 
6019 
6037 
6020 
5995 
6028 
6072 
6015 
6032 
6101 
6101 
6100 
6094 
6073 
6124 
6133 
6098 
6084 
6061 
6032 
6036 
6025 
6008 
5963 
5960 
5969 
5960 
6004 
5940 
5884 
5910 
5966 
5986 
5906 
5897 
5926 
5939 
5925 
5975 
5936 
5931 
5938 
5981 
5999 
5985 
5960 
5977 
5995 
6014 
5986 
5980 
6008 
5998 
6005 
6009 
5982 
5962 
6020 
6006 
5966 
6045 
6068 
6030 
5980 
6001 
6065 
6034 
5989 
6025 
6021 
6033 
6007 
6020 
6012 
5988 
6024 
6056 
6084 
6117 
6137 
6108 
6066 
6080 
6104 
6129 
6132 
6177 
6157 
6119 
6176 
6193 
6144 
6184 
6146 
6127 
6133 
6100 
6096 
6100 
6110 
6102 
6080 
6116 
6095 
6110 
6089 
6041 
6072 
6141 
6165 
6155 
6278 
6437 
6577 
6659 
6661 
6422 
6159 
5995 
6023 
6031 
6170 
6260 
6240 
6209 
6150 
6176 
6223 
6214 
6202 
6185 
6213 
6216 
6174 
6206 
6239 
6218 
6191 
6223 
6256 
6257 
6196 
6148 
6219 
6272 
6217 
6222 
6256 
6313 
6278 
6279 
6311 
6315 
6303 
6320 
6351 
6356 
6307 
6300 
6349 
6358 
6337 
6370 
6386 
6418 
6481 
6420 
6429 
6437 
6475 
6550 
6543 
6549 
6546 
6496 
6484 
6544 
6522 
6504 
6495 
6479 
6480 
6445 
6416 
6416 
6398 
6400 
6378 
6343 
6314 
6323 
6315 
6349 
6352 
6341 
6338 
6332 
6321 
6383 
6348 
6309 
6318 
6290 
6345 
6344 
6334 
6346 
6339 
6354 
6349 
6317 
6305 
6341 
6356 
6385 
6411 
6370 
6381 
6394 
6353 
6313 
6414 
6443 
6426 
6419 
6410 
6388 
6343 
6317 
6305 
6386 
6398 
6372 
6358 
6355 
6430 
6409 
6361 
6396 
6372 
6382 
6363 
6396 
6404 
6443 
6415 
6400 
6389 
6384 
6397 
6469 
6480 
6454 
6437 
6479 
6438 
6455 
6507 
6548 
6466 
6460 
6431 
6391 
6399 
6400 
6424 
6397 
6402 
6386 
6362 
6366 
6357 
6386 
6413 
6428 
6386 
6394 
6471 
6632 
6800 
7045 
7092 
6874 
6634 
6407 
6336 
6319 
6440 
6500 
6532 
6507 
6418 
6406 
6429 
6460 
6431 
6407 
6423 
6458 
6458 
6423 
6387 
6391 
6406 
6455 
6483 
6479 
6398 
6411 
6441 
6467 
6426 
6446 
6476 
6452 
6447 
6481 
6490 
6450 
6508 
6462 
6485 
6554 
6549 
6546 
6490 
6480 
6531 
6616 
6614 
6597 
6605 
6602 
6593 
6625 
6662 
6621 
6682 
6730 
6699 
6678 
6686 
6679 
6708 
6724 
6644 
6665 
6672 
6635 
6607 
6577 
6562 
6548 
6530 
6559 
6511 
6499 
6504 
6486 
6500 
6511 
6515 
6466 
6489 
6475 
6525 
6507 
6506 
6513 
6485 
6472 
6498 
6506 
6498 
6529 
6514 
6540 
6524 
6486 
6503 
6535 
6599 
6544 
6583 
6561 
6521 
6550 
6552 
6518 
6508 
6515 
6556 
6601 
6572 
6524 
6505 
6481 
6587 
6580 
6559 
6581 
6537 
6517 
6567 
6557 
6591 
6566 
6605 
6591 
6569 
6577 
6602 
6588 
6606 
6593 
6595 
6570 
6613 
6631 
6655 
6677 
6702 
6680 
6640 
6698 
6688 
6673 
6632 
6578 
6572 
6571 
6547 
6571 
6602 
6592 
6589 
6609 
6619 
6591 
6558 
6562 
6580 
6645 
6688 
6705 
6865 
7094 
7204 
7195 
6956 
6650 
6441 
6482 
6593 
6654 
6663 
6644 
6687 
6631 
6620 
6653 
6660 
6650 
6623 
6634 
6618 
6571 
6639 
6639 
6620 
6660 
6676 
6697 
6653 
6677 
6687 
6693 
6652 
6661 
6695 
6684 
6675 
6658 
6643 
6713 
6733 
6735 
6706 
6703 
6729 
6756 
6762 
6708 
6740 
6797 
6774 
6812 
6837 
6822 
6836 
6855 
6872 
6886 
6902 
6884 
6928 
6935 
6854 
6860 
6935 
6978 
6907 
6888 
6892 
6887 
6853 
6824 
6838 
6826 
6812 
6812 
6812 
6808 
6755 
6744 
6754 
6752 
6662 
6587 
6669 
6757 
6751 
6725 
6753 
6755 
6762 
6764 
6753 
6792 
6821 
6763 
6728 
6755 
6804 
6828 
6790 
6775 
6746 
6819 
6811 
6772 
6840 
6833 
6842 
6808 
6799 
6801 
6825 
6870 
6837 
6804 
6801 
6848 
6865 
6853 
6814 
6748 
6663 
6582 
6587 
6560 
6619 
6688 
6697 
6744 
6777 
6847 
6879 
6935 
6921 
6939 
6940 
6960 
6948 
6941 
6971 
6984 
6958 
6911 
6865 
6883 
6928 
6922 
6840 
6853 
6893 
6923 
6939 
6938 
6867 
6868 
6914 
6911 
6913 
7049 
7146 
7310 
7428 
7394 
7215 
6927 
6768 
6686 
6748 
6834 
6899 
6951 
6947 
6949 
6958 
6956 
6966 
6954 
6970 
6958 
6994 
6975 
6991 
7006 
6992 
7028 
7033 
6989 
7004 
7001 
6983 
7014 
7015 
7023 
7071 
7120 
7101 
7112 
7123 
7112 
7079 
7114 
7129 
7099 
7178 
7163 
7175 
7224 
7223 
7188 
7211 
7270 
7252 
7222 
7259 
7262 
7276 
7281 
7323 
7318 
7280 
7326 
7377 
7352 
7403 
7385 
7317 
7311 
7347 
7331 
7260 
7261 
7260 
7246 
7211 
7215 
7263 
7190 
7144 
7193 
7237 
7209 
7172 
7172 
7169 
7187 
7200 
7195 
7210 
7202 
7165 
7142 
7183 
7236 
7221 
7227 
7210 
7260 
7228 
7230 
7232 
7256 
7263 
7225 
7277 
7300 
7232 
7237 
7276 
7326 
7282 
7297 
7314 
7295 
7304 
7280 
7253 
7268 
7293 
7294 
7292 
7267 
7321 
7328 
7323 
7364 
7361 
7349 
7314 
7355 
7397 
7399 
7393 
7382 
7373 
7418 
7425 
7434 
7441 
7424 
7395 
7337 
7322 
7348 
7366 
7379 
7350 
7328 
7337 
7299 
7344 
7348 
7346 
7331 
7341 
7418 
7415 
7427 
7488 
7709 
7960 
8034 
7913 
7607 
7349 
7241 
7288 
7390 
7462 
7471 
7476 
7485 
7402 
7369 
7375 
7441 
7495 
7493 
7420 
7460 
7483 
7448 
7447 
7440 
7483 
7457 
7447 
7482 
7466 
7503 
7529 
7471 
7457 
7482 
7485 
7485 
7496 
7569 
7586 
7594 
7571 
7558 
7606 
7518 
7521 
7617 
7619 
7615 
7648 
7659 
7629 
7673 
7711 
7681 
7719 
7746 
7740 
7745 
7763 
7778 
7787 
7784 
7802 
7776 
7757 
7739 
7781 
7752 
7712 
7710 
7663 
7649 
7598 
7603 
7627 
7671 
7610 
7557 
7646 
7638 
7586 
7567 
7590 
7660 
7619 
7599 
7585 
7574 
7635 
7642 
7610 
7625 
7635 
7618 
7605 
7617 
7623 
7664 
7657 
7673 
7644 
7663 
7685 
7735 
7690 
7635 
7682 
7681 
7696 
7703 
7619 
7677 
7789 
7715 
7648 
7702 
7762 
7726 
7683 
7728 
7733 
7705 
7683 
7699 
7729 
7744 
7768 
7775 
7800 
7767 
7773 
7799 
7841 
7846 
7867 
7804 
7814 
7871 
7923 
7888 
7822 
7798 
7790 
7794 
7737 
7788 
7815 
7804 
7777 
7763 
7741 
7814 
7822 
7770 
7761 
7799 
7837 
7904 
8009 
8169 
8312 
8400 
8360 
8173 
7925 
7748 
7733 
7803 
7887 
7930 
7882 
7903 
7886 
7844 
7825 
7793 
7848 
7794 
7822 
7904 
7880 
7838 
7863 
7855 
7836 
7850 
7880 
7854 
7820 
7813 
7851 
7912 
7897 
7914 
7852 
7888 
7927 
7900 
7880 
7827 
7921 
7939 
7942 
7954 
7939 
7935 
7930 
7963 
7958 
8000 
8000 
8028 
8010 
8020 
8095 
8110 
8112 
8077 
8095 
8125 
8112 
8122 
8100 
8132 
8132 
8169 
8101 
8077 
8056 
8039 
8025 
8005 
7991 
7963 
7977 
7996 
7933 
7906 
7952 
7985 
7980 
7983 
7970 
7964 
7981 
7979 
7990 
7997 
7972 
7985 
7990 
7958 
7959 
7990 
7993 
7983 
8004 
7995 
8054 
8018 
7985 
7982 
7977 
7989 
7997 
7999 
8012 
8001 
7962 
7969 
8077 
8074 
8030 
8022 
8033 
7996 
7980 
8030 
8030 
8039 
8028 
7996 
8034 
8070 
8057 
8052 
8033 
8011 
8032 
8072 
8084 
8088 
8069 
8115 
8119 
8091 
8093 
8112 
8127 
8128 
8173 
8167 
8157 
8184 
8082 
7983 
8000 
8098 
8059 
8053 
8020 
7969 
8059 
8122 
8048 
8011 
8004 
7992 
7989 
7991 
8056 
8181 
8281 
8431 
8518 
8588 
8504 
8218 
7970 
7843 
7868 
7907 
8032 
8094 
8059 
8057 
8078 
8077 
8093 
8062 
8030 
8053 
8033 
8083 
8074 
8017 
8006 
8072 
8038 
8058 
8052 
8026 
8047 
8058 
7986 
8067 
8086 
8047 
8096 
8123 
8095 
8054 
8089 
8117 
8048 
8107 
8129 
8140 
8119 
8066 
8063 
8138 
8120 
8100 
8106 
8066 
8065 
8049 
8046 
8162 
8213 
8148 
8188 
8274 
8325 
8312 
8279 
8279 
8268 
8271 
8210 
8215 
8244 
8183 
8202 
8171 
8114 
8176 
8166 
8123 
8106 
8091 
8055 
8097 
8054 
7931 
7873 
7826 
7875 
7916 
7962 
7936 
7985 
8089 
8091 
8082 
8047 
8052 
8102 
8154 
8166 
8128 
8130 
8051 
8072 
8092 
8071 
8041 
8051 
8090 
8116 
8098 
8099 
8116 
8116 
8084 
8095 
8156 
8097 
8065 
8046 
8058 
8129 
8103 
8117 
8099 
8104 
8104 
8109 
8125 
8105 
8120 
8134 
8152 
8181 
8157 
8137 
8103 
8114 
8137 
8179 
8202 
8159 
8133 
8053 
8036 
8116 
8142 
8095 
8083 
8071 
8060 
8061 
8032 
8046 
8053 
8097 
8053 
8051 
8066 
8071 
8206 
8332 
8479 
8629 
8559 
8342 
8078 
7896 
7839 
7923 
8029 
8040 
8076 
8142 
8133 
8118 
8058 
8023 
8050 
8091 
8060 
8003 
8025 
8043 
8092 
8069 
8085 
8122 
8103 
8029 
8041 
8146 
8072 
8064 
8103 
8101 
8097 
8052 
8029 
8073 
8132 
8134 
8093 
8108 
8130 
8145 
8157 
8164 
8151 
8122 
8114 
8169 
8193 
8186 
8180 
8207 
8236 
8239 
8229 
8262 
8242 
8240 
8291 
8306 
8285 
8266 
8235 
8221 
8196 
8158 
8180 
8177 
8184 
8156 
8091 
8041 
8062 
8078 
8071 
8038 
8029 
8078 
8067 
8048 
8031 
8043 
8007 
8014 
8011 
8016 
8059 
8026 
8038 
8105 
8023 
7985 
8014 
8037 
8050 
8031 
8031 
8016 
8032 
8048 
8017 
8000 
8009 
8013 
8036 
8032 
8025 
8009 
8010 
7982 
8024 
8032 
8043 
8000 
7961 
7971 
8036 
7999 
7973 
8001 
8045 
7992 
7966 
7982 
7971 
8023 
7967 
7942 
8003 
8002 
8031 
7991 
8033 
7997 
7992 
7997 
8006 
8027 
8059 
8060 
8082 
8089 
8021 
7990 
8031 
8062 
8053 
7987 
7947 
7924 
7910 
7919 
7986 
7942 
7931 
7914 
7930 
7919 
7893 
7874 
7885 
7944 
7974 
8059 
8209 
8365 
8511 
8496 
8297 
7997 
7830 
7793 
7814 
7888 
8009 
8001 
7992 
7962 
7933 
7893 
7887 
7870 
7921 
7921 
7903 
7923 
7919 
7910 
7893 
7874 
7877 
7883 
7925 
7895 
7944 
7912 
7905 
7980 
7913 
7916 
7939 
7924 
7955 
7946 
7957 
7982 
7967 
7956 
7983 
8002 
7966 
7984 
7980 
8029 
8053 
8064 
8065 
8018 
8086 
8125 
8137 
8097 
8108 
8147 
8202 
8183 
8177 
8184 
8188 
8164 
8160 
8173 
8155 
8155 
8085 
8061 
8075 
8044 
7980 
8064 
8095 
8046 
8006 
7983 
7999 
7998 
7957 
7913 
8003 
7961 
7950 
8016 
7998 
8010 
7972 
7958 
7971 
8005 
8037 
8001 
7963 
7963 
7983 
7985 
7996 
7969 
8039 
8004 
8014 
7991 
7985 
8050 
7991 
8013 
8008 
7971 
7978 
8018 
8044 
8049 
7985 
7973 
7963 
7997 
8008 
7962 
7975 
7958 
7967 
8029 
8019 
7998 
7965 
7974 
7931 
8000 
8023 
8003 
8027 
7987 
7988 
7968 
8003 
8002 
7972 
7995 
8019 
8022 
8044 
8056 
8050 
8087 
8059 
8032 
8073 
8083 
8125 
8076 
8134 
8129 
8097 
8082 
8054 
8065 
8057 
8007 
8004 
8006 
7980 
7973 
8003 
8009 
8021 
8019 
7979 
7942 
7958 
8036 
8053 
8056 
8132 
8292 
8398 
8574 
8600 
8499 
8189 
7922 
7889 
7972 
8049 
8106 
8096 
8067 
8021 
8026 
8017 
8012 
8046 
7979 
8008 
8037 
8053 
7984 
7957 
7959 
8036 
8042 
7999 
8003 
8027 
7988 
7973 
7977 
8048 
8021 
8008 
7997 
8065 
8076 
8064 
8068 
8081 
8083 
8051 
8073 
8051 
8110 
8093 
8135 
8157 
8145 
8116 
8122 
8170 
8198 
8171 
8182 
8172 
8202 
8226 
8206 
8258 
8324 
8275 
8290 
8281 
8230 
8226 
8238 
8214 
8217 
8212 
8128 
8148 
8135 
8106 
8092 
8101 
8081 
8070 
8064 
8057 
8074 
8061 
8032 
8026 
7989 
8034 
8089 
8042 
8045 
8081 
8032 
7998 
8028 
8038 
8079 
8054 
8067 
8050 
8054 
8043 
8017 
8018 
8040 
8063 
8052 
8045 
8047 
8035 
8062 
8047 
8025 
7984 
8013 
8074 
8074 
8047 
8037 
8060 
8078 
8063 
8022 
8037 
8057 
8014 
8043 
8022 
8069 
8077 
8077 
8036 
8010 
8062 
8067 
8061 
8079 
8036 
8046 
8040 
7991 
8079 
8051 
8031 
8048 
8086 
8115 
8124 
8127 
8067 
8083 
8142 
8103 
8116 
8140 
8142 
8136 
8157 
8153 
8120 
8169 
8138 
8046 
8003 
8028 
8082 
8054 
8043 
8056 
8052 
8076 
8037 
8021 
8041 
8046 
8088 
8081 
8087 
8195 
8344 
8479 
8608 
8594 
8420 
8089 
7924 
7906 
7909 
8016 
8081 
8110 
8116 
8118 
8110 
8059 
8076 
8103 
8082 
8033 
8099 
8124 
8145 
8102 
8109 
8113 
8051 
8094 
8123 
8133 
8120 
8129 
8084 
8077 
8134 
8128 
8131 
8167 
8135 
8056 
8095 
8140 
8182 
8158 
8143 
8146 
8142 
8192 
8199 
8209 
8239 
8254 
8210 
8235 
8245 
8252 
8286 
8339 
8301 
8266 
8284 
8341 
8326 
8266 
8273 
8248 
8241 
8295 
8298 
8243 
8309 
8318 
8254 
8220 
8185 
8219 
8234 
8174 
8184 
8162 
8155 
8184 
8173 
8217 
8169 
8195 
8185 
8175 
8167 
8204 
8207 
8179 
8163 
8206 
8174 
8154 
8171 
8207 
8131 
8004 
7884 
7768 
7721 
7730 
7755 
7759 
7821 
7897 
7976 
8052 
8047 
8133 
8165 
8200 
8189 
8193 
8203 
8256 
8267 
8249 
8249 
8271 
8221 
8246 
8273 
8270 
8305 
8248 
8246 
8297 
8302 
8285 
8278 
8306 
8307 
8248 
8261 
8313 
8286 
8294 
8256 
8089 
7924 
7815 
7641 
7544 
7455 
7369 
7374 
7411 
7536 
7676 
7713 
7765 
7883 
8010 
8042 
8054 
8159 
8224 
8234 
8253 
8262 
8243 
8253 
8293 
8286 
8335 
8345 
8425 
8534 
8653 
8752 
8710 
8560 
8302 
8108 
8103 
8132 
8201 
8274 
8313 
8359 
8319 
8310 
8323 
8334 
8359 
8329 
8297 
8289 
8351 
8388 
8344 
8310 
8327 
8408 
8376 
8326 
8381 
8420 
8397 
8368 
8403 
8392 
8355 
8346 
8383 
8374 
8408 
8412 
8437 
8416 
8404 
8419 
8436 
8459 
8516 
8459 
8494 
8540 
8576 
8575 
8551 
8558 
8543 
8586 
8579 
8587 
8587 
8626 
8634 
8668 
8668 
8660 
8667 
8629 
8611 
8597 
8595 
8589 
8622 
8586 
8535 
8509 
8481 
8535 
8532 
8489 
8479 
8490 
8499 
8456 
8502 
8463 
8512 
8449 
8503 
8488 
8506 
8455 
8467 
8470 
8483 
8461 
8500 
8577 
8559 
8535 
8512 
8485 
8520 
8550 
8517 
8537 
8529 
8548 
8496 
8576 
8561 
8558 
8532 
8522 
8550 
8499 
8529 
8544 
8529 
8605 
8615 
8579 
8533 
8552 
8525 
8517 
8567 
8610 
8532 
8538 
8579 
8560 
8590 
8621 
8601 
8569 
8549 
8577 
8644 
8673 
8665 
8656 
8626 
8659 
8643 
8649 
8622 
8640 
8675 
8601 
8564 
8655 
8560 
8588 
8605 
8572 
8579 
8566 
8601 
8584 
8566 
8597 
8598 
8590 
8656 
8730 
8900 
9021 
9115 
9081 
8859 
8632 
8446 
8467 
8516 
8568 
8646 
8683 
8694 
8681 
8651 
8594 
8650 
8713 
8692 
8663 
8666 
8649 
8674 
8692 
8683 
8660 
8694 
8700 
8731 
8710 
8680 
8751 
8731 
8724 
8729 
8767 
8746 
8734 
8746 
8756 
8763 
8790 
8791 
8812 
8810 
8763 
8826 
8843 
8823 
8874 
8895 
8888 
8910 
8940 
8945 
8893 
8889 
8987 
9004 
9005 
9001 
8999 
9046 
9026 
9039 
8980 
8998 
9023 
9008 
8997 
8923 
8906 
8916 
8920 
8916 
8865 
8938 
8917 
8851 
8846 
8856 
8850 
8885 
8875 
8819 
8784 
8867 
8911 
8881 
8891 
8867 
8890 
8847 
8879 
8919 
8916 
8892 
8895 
8929 
8979 
8948 
8907 
8935 
8942 
8990 
8951 
8955 
8947 
8964 
8932 
8939 
8972 
8991 
9010 
8965 
8943 
8951 
8987 
8982 
8969 
8966 
8954 
8995 
8986 
8981 
8972 
8989 
9002 
8988 
9004 
8970 
8968 
9007 
9003 
8996 
8984 
9020 
9068 
9021 
9057 
9079 
9051 
9055 
9093 
9059 
9045 
9025 
9069 
9106 
9117 
9134 
9072 
9008 
8956 
9023 
9050 
9018 
8989 
8992 
8945 
8951 
8997 
9061 
9007 
8970 
8946 
8966 
8998 
9119 
9248 
9440 
9489 
9558 
9477 
9190 
8946 
8890 
8875 
8939 
9014 
9037 
9084 
9037 
8971 
8960 
8991 
9066 
9028 
8929 
9026 
9073 
9000 
8981 
9027 
9018 
9038 
9013 
8941 
9004 
9076 
9056 
8972 
9010 
9021 
8959 
8985 
8979 
9006 
9035 
9061 
9072 
9047 
8991 
8963 
8973 
9021 
9053 
9058 
9078 
9071 
9071 
9081 
9099 
9102 
9084 
9077 
9113 
9159 
9128 
9142 
9168 
9137 
9164 
9219 
9205 
9114 
9137 
9132 
9084 
9115 
9071 
9031 
9026 
8983 
8965 
8951 
8926 
8910 
8970 
8995 
8967 
8910 
8914 
8978 
8920 
8901 
8901 
8895 
8897 
8890 
8949 
8946 
8872 
8849 
8897 
8951 
8897 
8879 
8885 
8916 
8931 
8927 
8951 
8928 
8875 
8919 
8913 
8844 
8886 
8892 
8863 
8879 
8909 
8870 
8885 
8912 
8884 
8879 
8901 
8899 
8855 
8873 
8895 
8861 
8850 
8853 
8891 
8893 
8853 
8862 
8808 
8762 
8871 
8938 
8883 
8828 
8851 
8856 
8897 
8879 
8901 
8903 
8921 
8883 
8922 
8935 
8959 
8901 
8920 
8882 
8895 
8926 
8934 
8922 
8901 
8832 
8780 
8839 
8822 
8840 
8861 
8862 
8832 
8854 
8858 
8788 
8795 
8832 
8874 
8919 
8936 
9050 
9201 
9339 
9430 
9330 
9065 
8850 
8769 
8769 
8834 
8883 
8949 
8953 
8905 
8893 
8868 
8873 
8885 
8864 
8866 
8902 
8858 
8862 
8903 
8902 
8909 
8913 
8908 
8905 
8910 
8909 
8900 
8940 
8977 
8951 
8933 
8902 
8915 
8966 
8939 
8940 
8943 
8981 
8971 
8979 
8978 
9002 
8985 
9053 
9064 
9061 
9033 
9072 
9096 
9113 
9117 
9142 
9162 
9151 
9177 
9191 
9171 
9193 
9193 
9137 
9218 
9239 
9152 
9146 
9181 
9171 
9146 
9102 
9094 
9103 
9087 
9032 
9070 
9071 
9002 
8973 
9019 
9063 
9028 
9050 
9064 
9044 
9034 
9065 
9062 
9090 
9055 
9028 
9002 
9060 
9075 
9072 
9118 
9117 
9095 
9085 
9042 
9073 
9111 
9069 
9069 
9022 
9083 
9142 
9129 
9055 
9028 
9081 
9081 
9116 
9134 
9112 
9058 
9043 
9098 
9148 
9147 
9106 
9041 
9107 
9170 
9148 
9096 
9101 
9113 
9085 
9063 
9082 
9158 
9160 
9106 
9120 
9124 
9128 
9131 
9147 
9169 
9190 
9111 
9146 
9184 
9164 
9197 
9162 
9175 
9184 
9179 
9219 
9252 
9267 
9240 
9164 
9158 
9171 
9158 
9081 
9102 
9123 
9069 
9110 
9157 
9179 
9126 
9092 
9104 
9119 
9161 
9166 
9120 
9251 
9386 
9537 
9701 
9692 
9487 
9226 
8988 
8943 
9006 
9093 
9124 
9191 
9223 
9216 
9140 
9063 
9035 
9131 
9193 
9201 
9122 
9122 
9154 
9163 
9165 
9156 
9089 
9129 
9189 
9189 
9150 
9116 
9105 
9224 
9249 
9217 
9164 
9222 
9211 
9152 
9146 
9178 
9255 
9219 
9230 
9225 
9208 
9196 
9237 
9301 
9310 
9319 
9325 
9310 
9325 
9334 
9394 
9383 
9395 
9429 
9419 
9410 
9368 
9388 
9465 
9454 
9443 
9402 
9407 
9407 
9390 
9382 
9313 
9320 
9305 
9223 
9129 
9115 
9239 
9267 
9198 
9220 
9263 
9241 
9244 
9236 
9277 
9251 
9235 
9251 
9291 
9277 
9257 
9270 
9252 
9244 
9214 
9265 
9327 
9321 
9248 
9207 
9248 
9300 
9286 
9273 
9283 
9295 
9286 
9260 
9249 
9232 
9322 
9255 
9209 
9229 
9228 
9221 
9107 
9012 
8922 
8872 
8911 
9023 
9055 
9137 
9157 
9117 
9200 
9222 
9249 
9223 
9237 
9244 
9236 
9230 
9246 
9284 
9293 
9261 
9277 
9285 
9288 
9325 
9324 
9311 
9257 
9206 
9184 
9182 
9208 
9165 
9111 
9154 
9184 
9194 
9133 
9139 
9162 
9089 
9071 
9140 
9215 
9134 
9173 
9345 
9526 
9600 
9575 
9373 
9146 
8972 
8883 
8912 
9004 
9106 
9164 
9122 
9108 
9119 
9129 
9105 
9153 
9160 
9116 
9108 
9165 
9152 
9151 
9086 
9059 
9142 
9138 
9153 
9113 
9173 
9183 
9139 
9137 
9145 
9132 
9152 
9210 
9204 
9180 
9146 
9147 
9129 
9146 
9141 
9194 
9241 
9204 
9202 
9211 
9219 
9240 
9214 
9202 
9305 
9331 
9294 
9285 
9264 
9316 
9303 
9272 
9333 
9351 
9341 
9306 
9281 
9309 
9310 
9268 
9236 
9211 
9238 
9195 
9145 
9165 
9150 
9178 
9106 
9081 
9112 
9122 
9093 
9043 
9068 
9053 
9108 
9114 
9076 
9069 
9083 
9128 
9140 
9128 
9093 
9061 
9087 
9084 
9095 
9089 
9093 
9130 
9053 
9042 
9082 
9084 
9094 
9138 
9065 
9056 
9068 
9082 
9108 
9088 
9079 
9070 
9047 
9105 
9057 
9026 
9026 
9039 
9004 
9042 
9054 
9060 
9081 
9102 
9101 
9052 
9044 
9052 
9114 
9109 
9096 
9110 
9121 
9049 
9096 
9090 
9107 
9082 
9067 
9010 
8957 
8963 
8966 
8986 
8988 
8988 
8968 
8988 
8959 
8920 
8916 
8935 
8917 
8925 
8964 
8998 
9044 
9191 
9306 
9442 
9449 
9312 
8999 
8801 
8718 
8798 
8912 
9013 
9029 
8977 
8977 
8953 
8924 
8968 
8947 
8935 
8966 
8993 
8967 
8922 
8934 
8942 
8996 
8982 
8989 
8988 
8965 
8954 
8981 
8979 
9026 
9033 
9028 
9020 
8989 
8950 
9022 
9042 
9032 
9043 
9033 
9031 
9050 
9054 
9056 
9086 
9142 
9137 
9091 
9130 
9187 
9179 
9156 
9178 
9206 
9215 
9231 
9254 
9253 
9223 
9225 
9229 
9258 
9265 
9214 
9220 
9178 
9179 
9149 
9124 
9096 
9093 
9054 
9003 
9030 
9048 
9025 
9015 
9038 
9041 
9042 
9018 
8986 
8964 
9083 
9055 
8965 
8990 
8979 
8975 
9009 
9006 
9022 
8986 
8993 
9009 
8972 
9029 
8994 
8985 
8982 
9032 
9011 
8987 
8981 
8987 
8989 
8971 
8963 
9009 
9015 
9007 
8980 
8955 
8931 
8940 
9004 
9003 
9015 
9001 
8986 
9019 
8925 
8934 
8916 
8944 
8999 
8998 
9026 
8966 
8926 
8934 
9002 
9000 
8962 
9029 
9045 
9015 
9017 
9038 
9004 
9008 
9038 
9044 
9019 
8951 
8907 
8926 
8955 
8980 
9003 
8926 
8878 
8873 
8870 
8877 
8854 
8880 
8909 
8931 
8898 
8997 
9125 
9242 
9388 
9546 
9379 
9109 
8908 
8792 
8823 
8918 
8967 
8991 
9014 
9005 
8973 
8952 
8947 
8955 
8905 
8885 
8892 
8921 
8948 
8920 
8959 
8935 
8853 
8959 
8957 
8959 
8956 
8950 
8924 
8990 
8993 
8960 
8951 
8986 
8967 
8998 
8956 
8974 
8989 
9008 
8952 
8950 
9038 
9079 
9075 
9066 
9051 
9041 
9048 
9051 
9116 
9158 
9134 
9163 
9185 
9167 
9171 
9197 
9193 
9222 
9229 
9224 
9186 
9201 
9194 
9167 
9133 
9084 
9090 
9055 
9044 
9050 
9046 
8984 
8961 
9024 
9025 
9046 
9085 
9066 
9067 
9046 
9063 
9056 
9030 
9045 
9012 
9029 
9034 
8998 
9007 
9002 
9036 
9015 
9078 
9068 
9001 
8987 
9000 
9043 
9016 
9070 
9063 
9033 
9043 
9053 
9078 
9029 
9067 
9062 
9017 
9002 
8944 
8981 
9058 
9060 
9037 
9071 
9061 
9105 
9026 
9023 
9029 
9001 
9013 
9059 
9045 
9033 
8995 
8997 
9041 
9017 
9011 
9067 
9091 
9104 
9093 
9009 
9026 
9094 
9113 
9149 
9166 
9092 
9067 
9117 
9184 
9190 
9179 
9137 
9134 
9100 
9083 
9041 
9052 
9060 
9040 
9023 
9060 
9047 
9013 
9049 
9039 
9024 
9098 
9050 
9054 
9090 
9220 
9360 
9489 
9687 
9686 
9501 
9226 
8987 
8956 
9005 
9051 
9143 
9149 
9125 
9064 
9070 
9097 
9064 
9083 
9103 
9073 
9095 
9084 
9027 
9103 
9127 
9065 
9061 
9041 
9069 
9096 
9098 
9123 
9098 
9076 
9050 
9080 
9128 
9126 
9133 
9127 
9129 
9120 
9144 
9145 
9123 
9141 
9149 
9126 
9163 
9224 
9217 
9202 
9251 
9261 
9236 
9224 
9238 
9298 
9320 
9294 
9256 
9297 
9322 
9323 
9329 
9324 
9295 
9299 
9273 
9303 
9281 
9232 
9190 
9186 
9217 
9166 
9149 
9191 
9116 
9104 
9111 
9102 
9144 
9152 
9128 
9080 
9087 
9125 
9091 
9075 
9096 
9111 
9109 
9105 
9101 
9110 
9103 
9100 
9068 
9082 
9106 
9075 
9126 
9114 
9105 
9128 
9154 
9144 
9049 
9082 
9131 
9138 
9158 
9110 
9081 
9169 
9164 
9180 
9124 
9082 
9119 
9132 
9127 
9116 
9136 
9080 
9096 
9140 
9139 
9095 
9099 
9134 
9121 
9134 
9111 
9139 
9175 
9140 
9099 
9125 
9170 
9135 
9109 
9141 
9166 
9128 
9120 
9155 
9223 
9243 
9186 
9116 
9199 
9202 
9228 
9209 
9211 
9244 
9235 
9232 
9223 
9187 
9081 
9103 
9157 
9123 
9143 
9104 
9085 
9120 
9129 
9144 
9089 
9120 
9145 
9145 
9121 
9170 
9311 
9475 
9626 
9680 
9659 
9432 
9110 
8963 
8954 
9033 
9112 
9109 
9103 
9145 
9163 
9140 
9165 
9144 
9150 
9173 
9147 
9190 
9163 
9142 
9130 
9198 
9249 
9183 
9193 
9145 
9146 
9205 
9209 
9194 
9179 
9198 
9248 
9265 
9266 
9245 
9233 
9248 
9264 
9235 
9259 
9268 
9270 
9255 
9184 
9141 
9155 
9158 
9208 
9255 
9299 
9274 
9298 
9341 
9393 
9380 
9411 
9440 
9432 
9400 
9420 
9420 
9483 
9447 
9474 
9422 
9302 
9355 
9384 
9294 
9317 
9290 
9281 
9231 
9274 
9266 
9245 
9222 
9265 
9281 
9224 
9227 
9222 
9211 
9138 
9084 
9051 
8993 
9088 
9110 
9104 
9222 
9231 
9238 
9257 
9270 
9248 
9264 
9237 
9252 
9283 
9305 
9260 
9295 
9299 
9264 
9278 
9235 
9257 
9296 
9263 
9269 
9247 
9258 
9264 
9268 
9318 
9311 
9282 
9286 
9262 
9243 
9280 
9302 
9272 
9341 
9330 
9295 
9266 
9269 
9326 
9357 
9311 
9341 
9351 
9329 
9330 
9357 
9368 
9372 
9370 
9397 
9410 
9399 
9298 
9329 
9380 
9364 
9319 
9275 
9309 
9294 
9239 
9252 
9297 
9316 
9308 
9269 
9295 
9358 
9389 
9361 
9468 
9627 
9731 
9789 
9803 
9588 
9297 
9072 
9085 
9234 
9294 
9260 
9325 
9410 
9400 
9359 
9344 
9360 
9341 
9315 
9348 
9383 
9415 
9380 
9376 
9383 
9368 
9338 
9349 
9404 
9464 
9413 
9340 
9379 
9421 
9413 
9389 
9429 
9430 
9423 
9431 
9438 
9462 
9461 
9450 
9454 
9488 
9472 
9470 
9470 
9539 
9581 
9544 
9561 
9581 
9566 
9563 
9565 
9662 
9661 
9629 
9604 
9654 
9668 
9645 
9633 
9585 
9674 
9664 
9567 
9555 
9582 
9539 
9554 
9540 
9487 
9457 
9483 
9500 
9425 
9468 
9486 
9431 
9437 
9459 
9442 
9436 
9436 
9456 
9475 
9445 
9433 
9437 
9440 
9437 
9392 
9453 
9487 
9480 
9498 
9468 
9509 
9491 
9479 
9450 
9473 
9558 
9512 
9497 
9488 
9515 
9498 
9478 
9476 
9508 
9473 
9498 
9516 
9484 
9485 
9496 
9484 
9509 
9498 
9451 
9484 
9505 
9481 
9445 
9429 
9502 
9505 
9496 
9542 
9521 
9520 
9461 
9420 
9513 
9552 
9497 
9466 
9511 
9512 
9560 
9575 
9568 
9560 
9570 
9562 
9569 
9576 
9612 
9561 
9554 
9517 
9453 
9446 
9470 
9521 
9490 
9474 
9502 
9517 
9468 
9421 
9398 
9475 
9497 
9531 
9582 
9679 
9883 
10023 
10085 
9994 
9731 
9542 
9400 
9390 
9511 
9586 
9589 
9538 
9513 
9491 
9495 
9521 
9520 
9522 
9495 
9454 
9440 
9434 
9528 
9537 
9515 
9523 
9512 
9498 
9550 
9534 
9469 
9528 
9530 
9533 
9537 
9498 
9532 
9563 
9607 
9544 
9497 
9515 
9586 
9583 
9545 
9571 
9560 
9561 
9595 
9628 
9618 
9631 
9615 
9624 
9610 
9656 
9700 
9712 
9735 
9722 
9662 
9655 
9725 
9755 
9715 
9672 
9685 
9675 
9630 
9587 
9595 
9649 
9584 
9547 
9557 
9551 
9526 
9514 
9521 
9484 
9464 
9477 
9474 
9452 
9431 
9454 
9474 
9483 
9461 
9515 
9474 
9451 
9447 
9457 
9469 
9453 
9441 
9415 
9438 
9458 
9488 
9464 
9430 
9433 
9462 
9449 
9500 
9490 
9460 
9448 
9450 
9434 
9446 
9500 
9444 
9446 
9437 
9440 
9409 
9378 
9348 
9408 
9384 
9404 
9448 
9460 
9403 
9360 
9451 
9463 
9443 
9470 
9409 
9432 
9451 
9359 
9379 
9432 
9373 
9285 
9247 
9261 
9293 
9371 
9387 
9380 
9427 
9400 
9394 
9350 
9318 
9408 
9400 
9415 
9390 
9364 
9366 
9341 
9397 
9300 
9170 
9056 
9043 
9077 
9113 
9178 
9321 
9514 
9586 
9549 
9321 
9102 
9065 
9156 
9200 
9299 
9370 
9402 
9413 
9476 
9451 
9421 
9419 
9421 
9438 
9436 
9445 
9454 
9454 
9479 
9469 
9466 
9451 
9424 
9450 
9430 
9426 
9455 
9437 
9446 
9431 
9473 
9469 
9464 
9505 
9505 
9462 
9496 
9463 
9442 
9478 
9530 
9532 
9555 
9516 
9512 
9506 
9502 
9543 
9557 
9559 
9612 
9660 
9645 
9614 
9614 
9610 
9597 
9633 
9649 
9566 
9595 
9628 
9596 
9581 
9565 
9549 
9481 
9505 
9459 
9380 
9417 
9425 
9418 
9414 
9393 
9363 
9427 
9430 
9368 
9403 
9392 
9321 
9341 
9421 
9394 
9396 
9404 
9380 
9367 
9383 
9395 
9395 
9386 
9340 
9345 
9367 
9387 
9383 
9403 
9373 
9354 
9391 
9421 
9362 
9361 
9384 
9359 
9342 
9375 
9402 
9398 
9399 
9403 
9391 
9407 
9399 
9400 
9432 
9399 
9320 
9357 
9420 
9453 
9397 
9416 
9439 
9448 
9463 
9454 
9480 
9490 
9476 
9448 
9436 
9420 
9366 
9345 
9383 
9387 
9374 
9340 
9369 
9399 
9357 
9325 
9283 
9316 
9356 
9340 
9383 
9401 
9501 
9663 
9795 
9914 
9886 
9724 
9428 
9212 
9208 
9245 
9308 
9438 
9505 
9422 
9374 
9455 
9453 
9417 
9399 
9418 
9382 
9337 
9394 
9460 
9475 
9430 
9384 
9415 
9435 
9406 
9408 
9424 
9460 
9476 
9448 
9450 
9411 
9424 
9442 
9473 
9511 
9461 
9443 
9385 
9460 
9531 
9547 
9567 
9479 
9476 
9565 
9554 
9546 
9563 
9573 
9584 
9559 
9548 
9601 
9638 
9638 
9633 
9609 
9600 
9598 
9679 
9683 
9659 
9603 
9561 
9568 
9546 
9513 
9523 
9522 
9537 
9454 
9399 
9414 
9408 
9355 
9394 
9409 
9452 
9409 
9370 
9370 
9379 
9398 
9401 
9409 
9340 
9363 
9399 
9343 
9361 
9375 
9345 
9362 
9393 
9359 
9380 
9362 
9342 
9388 
9405 
9392 
9388 
9386 
9398 
9385 
9328 
9363 
9406 
9385 
9427 
9396 
9322 
9329 
9350 
9354 
9368 
9385 
9386 
9390 
9323 
9314 
9310 
9357 
9380 
9349 
9346 
9373 
9393 
9361 
9330 
9398 
9411 
9367 
9352 
9360 
9322 
9344 
9427 
9420 
9559 
9498 
9366 
9283 
9320 
9353 
9288 
9251 
9298 
9280 
9247 
9217 
9211 
9217 
9225 
9196 
9250 
9298 
9286 
9344 
9461 
9674 
9807 
9823 
9585 
9304 
9100 
9074 
9117 
9186 
9246 
9262 
9211 
9184 
9207 
9161 
9140 
9240 
9192 
9192 
9237 
9254 
9212 
9201 
9138 
9163 
9185 
9188 
9208 
9223 
9208 
9203 
9191 
9174 
9200 
9242 
9233 
9210 
9251 
9261 
9189 
9187 
9236 
9213 
9238 
9205 
9250 
9253 
9219 
9177 
9255 
9259 
9278 
9274 
9273 
9339 
9350 
9377 
9398 
9401 
9375 
9273 
9146 
9214 
9266 
9333 
9382 
9373 
9308 
9283 
9207 
9243 
9193 
9176 
9249 
9197 
9062 
9069 
9174 
9217 
9137 
9165 
9139 
9115 
9128 
9131 
9116 
9118 
9085 
9121 
9079 
9058 
9123 
9184 
9120 
9087 
9103 
9147 
9156 
9097 
9091 
9094 
9112 
9094 
9131 
9125 
9087 
9102 
9038 
8994 
9046 
9097 
9022 
8980 
9082 
9050 
9004 
9022 
9038 
9022 
8985 
9035 
9001 
8957 
8924 
9040 
9052 
9020 
8973 
8941 
9043 
9048 
9031 
8982 
9049 
9040 
9088 
9129 
9105 
8988 
8853 
8842 
8764 
8719 
8686 
8675 
8758 
8880 
8891 
8888 
8963 
9049 
9036 
8997 
9000 
8904 
8866 
8972 
8968 
8941 
8974 
9042 
9251 
9371 
9372 
9104 
8563 
8030 
7628 
7433 
7374 
7352 
7394 
7423 
7441 
7532 
7700 
7824 
8046 
8210 
8350 
8529 
8611 
8636 
8783 
8866 
8869 
8886 
8911 
8915 
8940 
8997 
8998 
8939 
8876 
8872 
8778 
8575 
8303 
8071 
7900 
7728 
7611 
7525 
7565 
7752 
7851 
8034 
8189 
8398 
8537 
8682 
8773 
8821 
8903 
9052 
9023 
9045 
9050 
9093 
9169 
9117 
9142 
9199 
9186 
9176 
9169 
9142 
9182 
9196 
9177 
9136 
9065 
9077 
9053 
9107 
9071 
9064 
9015 
9024 
8953 
8893 
8990 
8935 
8908 
8957 
9058 
9031 
8981 
8933 
8940 
8982 
9000 
8894 
8935 
8965 
9031 
8958 
8975 
8948 
8955 
8903 
8977 
8973 
8968 
8962 
9006 
9002 
9011 
8941 
8805 
8759 
8631 
8406 
8324 
8352 
8455 
8528 
8544 
8538 
8603 
8573 
8607 
8619 
8675 
8788 
8831 
8854 
8928 
8896 
8853 
8912 
8883 
8941 
8966 
8998 
9002 
8993 
9003 
9041 
8946 
8864 
8851 
8872 
8930 
9017 
9035 
9049 
8994 
8894 
8817 
8894 
8984 
8850 
8788 
8703 
8719 
8789 
8841 
8836 
8741 
8777 
8809 
8798 
8776 
8794 
8849 
8958 
9021 
8982 
8910 
8768 
8343 
7784 
7379 
7204 
7160 
7113 
7025 
7160 
7344 
7579 
7731 
7821 
8034 
8120 
8197 
8133 
8189 
8301 
8402 
8382 
8397 
8371 
8495 
8600 
8596 
8509 
8464 
8459 
8595 
8584 
8464 
8466 
8483 
8461 
8294 
8068 
7816 
7494 
7235 
6935 
6490 
6013 
5701 
5475 
5257 
5207 
5227 
5266 
5392 
5626 
5913 
6220 
6583 
6846 
7203 
7497 
7658 
7859 
7982 
8013 
8134 
8318 
8399 
8391 
8358 
8371 
8503 
8461 
8389 
8378 
8299 
8194 
8169 
8203 
8106 
8064 
8012 
7957 
7917 
8028 
8120 
8118 
8077 
7988 
7849 
7794 
7757 
7694 
7726 
7751 
7761 
7793 
7749 
7697 
7704 
7874 
7874 
7852 
7844 
7795 
7808 
7730 
7757 
7756 
7648 
7626 
7671 
7711 
7607 
7545 
7625 
7751 
7726 
7682 
7628 
7619 
7621 
7526 
7538 
7556 
7567 
7685 
7587 
7517 
7467 
7584 
7665 
7672 
7617 
7586 
7578 
7668 
7661 
7644 
7598 
7540 
7511 
7555 
7542 
7604 
7541 
7456 
7423 
7371 
7397 
7308 
7340 
7370 
7368 
7422 
7407 
7387 
7368 
7344 
7360 
7393 
7360 
7339 
7370 
7386 
7613 
7819 
7980 
8008 
7831 
7510 
7307 
7373 
7390 
7432 
7441 
7435 
7431 
7300 
7266 
7251 
7303 
7281 
7264 
7273 
7233 
7281 
7277 
7258 
7287 
7273 
7276 
7236 
7191 
7173 
7238 
7266 
7225 
7220 
7235 
7229 
7213 
7159 
7267 
7353 
7324 
7295 
7225 
7243 
7278 
7293 
7331 
7340 
7285 
7260 
7285 
7296 
7287 
7343 
7372 
7338 
7347 
7299 
7310 
7389 
7479 
7469 
7472 
7436 
7420 
7420 
7335 
7392 
7446 
7396 
7355 
7351 
7340 
7302 
7262 
7251 
7209 
7230 
7217 
7157 
7132 
7149 
7145 
7194 
7162 
7132 
7126 
7170 
7171 
7145 
7181 
7158 
7119 
7114 
7148 
7113 
7146 
7180 
7143 
7108 
7123 
7106 
7142 
7116 
7143 
7143 
7116 
7136 
7188 
7133 
7115 
7111 
7008 
7028 
7036 
7100 
7052 
7010 
6974 
6934 
6994 
7052 
7096 
7130 
7141 
7117 
7127 
7178 
7131 
7123 
7152 
7137 
7098 
7063 
7043 
7092 
7129 
7184 
7106 
7116 
7131 
7091 
7081 
7011 
6987 
6909 
6885 
6943 
6915 
6817 
6838 
6767 
6779 
6821 
6778 
6707 
6774 
6820 
6737 
6733 
6777 
6785 
6915 
7044 
7196 
7242 
7133 
6900 
6614 
6485 
6526 
6593 
6633 
6610 
6598 
6554 
6582 
6573 
6515 
6464 
6514 
6471 
6430 
6295 
6223 
6274 
6244 
6202 
6266 
6332 
6318 
6334 
6361 
6357 
6318 
6248 
6309 
6336 
6280 
6366 
6358 
6326 
6324 
6304 
6251 
6305 
6360 
6336 
6258 
6263 
6266 
6230 
6255 
6268 
6227 
6275 
6283 
6266 
6226 
6220 
6206 
6162 
6219 
6246 
6181 
6151 
6155 
6204 
6140 
6093 
6055 
6001 
5990 
5991 
5953 
5939 
5853 
5800 
5789 
5724 
5666 
5720 
5705 
5668 
5603 
5603 
5616 
5621 
5593 
5511 
5518 
5556 
5526 
5497 
5481 
5467 
5469 
5472 
5383 
5356 
5410 
5413 
5347 
5393 
5410 
5336 
5277 
5256 
5281 
5263 
5252 
5182 
5190 
5187 
5132 
5025 
5039 
5130 
5124 
5075 
5104 
5079 
5050 
5042 
5030 
4974 
4955 
4903 
4900 
4951 
4966 
4928 
4910 
4929 
4934 
4896 
4944 
4913 
4912 
4921 
4850 
4806 
4788 
4736 
4675 
4632 
4570 
4555 
4644 
4643 
4639 
4600 
4568 
4545 
4486 
4522 
4544 
4559 
4661 
4790 
4997 
5084 
4961 
4572 
4236 
4167 
4294 
4386 
4362 
4345 
4373 
4377 
4303 
4236 
4222 
4207 
4177 
4226 
4208 
4105 
4029 
4090 
4166 
4182 
4138 
4055 
3932 
3992 
3987 
3979 
3952 
3951 
3992 
3952 
3924 
3914 
3875 
3851 
3864 
3926 
3863 
3822 
3810 
3795 
3790 
3833 
3857 
3786 
3744 
3748 
3776 
3848 
3866 
3855 
3835 
3823 
3798 
3738 
3779 
3760 
3799 
3774 
3732 
3693 
3684 
3646 
3667 
3650 
3593 
3525 
3422 
3395 
3436 
3429 
3385 
3363 
3309 
3234 
3218 
3245 
3217 
3210 
3192 
3173 
3091 
3070 
3113 
3090 
2988 
3032 
3029 
2965 
2939 
2980 
2978 
2984 
2969 
2928 
2861 
2897 
2870 
2889 
2859 
2867 
2870 
2855 
2817 
2750 
2693 
2681 
2758 
2757 
2609 
2408 
2246 
2121 
2025 
2005 
2120 
2256 
2312 
2381 
2406 
2476 
2481 
2475 
2427 
2451 
2473 
2535 
2541 
2519 
2519 
2495 
2538 
2554 
2532 
2516 
2478 
2459 
2428 
2420 
2315 
2309 
2293 
2304 
2280 
2261 
2248 
2216 
2212 
2171 
2246 
2221 
2214 
2220 
2221 
2306 
2460 
2598 
2752 
2703 
2453 
2110 
1879 
1922 
1979 
2019 
2160 
2163 
2062 
1946 
1895 
1899 
1950 
1898 
1798 
1792 
1827 
1894 
1844 
1824 
1803 
1736 
1699 
1732 
1721 
1770 
1837 
1750 
1772 
1742 
1696 
1725 
1729 
1725 
1669 
1645 
1660 
1610 
1595 
1592 
1605 
1660 
1616 
1626 
1594 
1670 
1715 
1682 
1677 
1640 
1578 
1587 
1633 
1622 
1611 
1613 
1611 
1596 
1613 
1593 
1557 
1539 
1589 
1533 
1487 
1442 
1465 
1386 
1285 
1287 
1300 
1250 
1242 
1291 
1188 
1134 
1109 
1159 
1184 
1178 
1145 
1079 
1025 
1070 
1163 
1111 
978 
989 
997 
995 
988 
1045 
1019 
969 
1076 
1041 
984 
921 
960 
946 
963 
973 
890 
842 
858 
829 
843 
883 
872 
792 
783 
772 
780 
802 
786 
795 
757 
706 
739 
795 
766 
706 
685 
618 
650 
706 
717 
734 
676 
649 
657 
648 
708 
735 
736 
647 
620 
539 
536 
505 
521 
525 
525 
456 
454 
448 
406 
330 
335 
379 
389 
364 
412 
490 
641 
792 
960 
1015 
827 
503 
324 
276 
245 
324 
345 
386 
370 
295 
242 
251 
208 
231 
247 
167 
137 
147 
193 
179 
94 
125 
201 
175 
161 
157 
137 
126 
145 
112 
132 
109 
83 
63 
75 
93 
74 
85 
68 
54 
69 
121 
118 
87 
74 
111 
153 
118 
69 
46 
103 
119 
120 
126 
101 
70 
48 
75 
117 
78 
9 
108 
97 
58 
38 
36 
-3 
-58 
-114 
-144 
-118 
-158 
-198 
-268 
-263 
-243 
-271 
-274 
-275 
-333 
-326 
-303 
-266 
-292 
-302 
-340 
-359 
-350 
-412 
-447 
-397 
-359 
-386 
-444 
-492 
-526 
-472 
-513 
-654 
-711 
-667 
-737 
-720 
-659 
-624 
-572 
-563 
-558 
-568 
-552 
-570 
-528 
-561 
-588 
-626 
-603 
-596 
-678 
-636 
-619 
-575 
-588 
-604 
-604 
-618 
-647 
-584 
-602 
-646 
-658 
-654 
-604 
-569 
-638 
-689 
-839 
-915 
-740 
-716 
-799 
-855 
-871 
-856 
-875 
-861 
-883 
-965 
-974 
-969 
-939 
-923 
-954 
-930 
-757 
-580 
-458 
-327 
-302 
-559 
-985 
-1147 
-1085 
-1007 
-957 
-1040 
-1047 
-1089 
-1178 
-1206 
-1175 
-1084 
-1019 
-1041 
-1108 
-1133 
-1144 
-1173 
-1189 
-1127 
-1059 
-1108 
-1156 
-1192 
-1156 
-1122 
-1167 
-1166 
-1227 
-1268 
-1204 
-1209 
-1188 
-1200 
-1251 
-1246 
-1190 
-1186 
-1212 
-1186 
-1199 
-1208 
-1180 
-1194 
-1226 
-1190 
-1191 
-1189 
-1154 
-1157 
-1157 
-1202 
-1182 
-1145 
-1131 
-1138 
-1136 
-1159 
-1210 
-1182 
-1276 
-1267 
-1283 
-1251 
-1233 
-1278 
-1343 
-1346 
-1404 
-1480 
-1569 
-1606 
-1652 
-1624 
-1678 
-1661 
-1693 
-1641 
-1473 
-1489 
-1552 
-1576 
-1657 
-1668 
-1643 
-1608 
-1581 
-1572 
-1642 
-1685 
-1650 
-1710 
-1688 
-1671 
-1694 
-1727 
-1750 
-1776 
-1782 
-1712 
-1727 
-1824 
-1834 
-1766 
-1736 
-1813 
-1811 
-1801 
-1788 
-1805 
-1896 
-1880 
-1895 
-1860 
-1882 
-1926 
-1905 
-1932 
-1966 
-1911 
-1885 
-1916 
-1938 
-1887 
-1911 
-1919 
-1977 
-1928 
-1989 
-2000 
-1974 
-1990 
-1967 
-2032 
-2100 
-2200 
-2209 
-2202 
-2186 
-2181 
-2187 
-2237 
-2271 
-2222 
-2205 
-2241 
-2294 
-2309 
-2334 
-2327 
-2263 
-2083 
-1886 
-1735 
-1590 
-1638 
-1922 
-2230 
-2369 
-2353 
-2230 
-2202 
-2241 
-2251 
-2306 
-2392 
-2365 
-2389 
-2417 
-2452 
-2420 
-2530 
-2495 
-2411 
-2462 
-2513 
-2521 
-2519 
-2548 
-2487 
-2476 
-2537 
-2612 
-2616 
-2608 
-2611 
-2604 
-2643 
-2628 
-2683 
-2706 
-2699 
-2697 
-2724 
-2680 
-2616 
-2671 
-2762 
-2770 
-2807 
-2684 
-2839 
-2935 
-2978 
-3089 
-3153 
-3070 
-2982 
-2887 
-2787 
-2763 
-2741 
-2747 
-2718 
-2704 
-2747 
-2776 
-2775 
-2734 
-2754 
-2802 
-2777 
-2821 
-2828 
-2851 
-2868 
-2889 
-2880 
-2915 
-2945 
-2931 
-2940 
-2970 
-2932 
-2966 
-3029 
-3038 
-3121 
-3095 
-2941 
-2889 
-2921 
-2970 
-3007 
-3055 
-3074 
-3011 
-2980 
-3000 
-3014 
-3054 
-3091 
-3086 
-3064 
-3018 
-3037 
-3065 
-3097 
-3084 
-3139 
-3120 
-3048 
-3119 
-3117 
-3135 
-3120 
-3095 
-3133 
-3126 
-3106 
-3081 
-3088 
-3124 
-3164 
-3142 
-3117 
-3131 
-3201 
-3136 
-3089 
-3133 
-3195 
-3078 
-3091 
-3123 
-3120 
-3192 
-3090 
-3096 
-3204 
-3267 
-3230 
-3211 
-3267 
-3257 
-3254 
-3305 
-3330 
-3335 
-3287 
-3265 
-3265 
-3252 
-3252 
-3255 
-3206 
-3016 
-2874 
-2632 
-2587 
-2777 
-3016 
-3279 
-3393 
-3319 
-3213 
-3185 
-3203 
-3227 
-3255 
-3300 
-3287 
-3338 
-3344 
-3286 
-3220 
-3279 
-3360 
-3334 
-3304 
-3379 
-3406 
-3397 
-3349 
-3374 
-3385 
-3417 
-3377 
-3345 
-3389 
-3371 
-3371 
-3418 
-3350 
-3385 
-3413 
-3387 
-3365 
-3401 
-3374 
-3399 
-3445 
-3435 
-3326 
-3322 
-3417 
-3433 
-3316 
-3331 
-3328 
-3258 
-3307 
-3296 
-3306 
-3352 
-3302 
-3296 
-3270 
-3285 
-3318 
-3369 
-3382 
-3392 
-3355 
-3367 
-3342 
-3415 
-3449 
-3379 
-3412 
-3460 
-3479 
-3549 
-3632 
-3555 
-3560 
-3529 
-3517 
-3533 
-3598 
-3612 
-3588 
-3516 
-3533 
-3558 
-3575 
-3568 
-3537 
-3511 
-3497 
-3583 
-3644 
-3634 
-3612 
-3603 
-3583 
-3567 
-3606 
-3614 
-3632 
-3651 
-3625 
-3653 
-3630 
-3598 
-3625 
-3704 
-3692 
-3693 
-3748 
-3835 
-3975 
-4072 
-4094 
-4025 
-4027 
-3982 
-3894 
-3909 
-3902 
-3833 
-3759 
-3634 
-3649 
-3708 
-3683 
-3678 
-3681 
-3662 
-3708 
-3744 
-3785 
-3813 
-3857 
-3858 
-3834 
-3851 
-3840 
-3848 
-3850 
-3860 
-3850 
-3792 
-3750 
-3786 
-3821 
-3939 
-3981 
-3975 
-3954 
-3881 
-3782 
-3658 
-3773 
-4069 
-4225 
-4180 
-4046 
-3860 
-3812 
-3809 
-3873 
-3910 
-3929 
-3994 
-3915 
-3943 
-4004 
-3969 
-4064 
-4058 
-4001 
-3977 
-3985 
-3960 
-3996 
-4019 
-4076 
-4099 
-4060 
-4012 
-4067 
-4052 
-4047 
-4029 
-4007 
-4020 
-4053 
-4024 
-4047 
-4110 
-4309 
-4444 
-4501 
-4553 
-4568 
-4412 
-4277 
-4173 
-4133 
-4125 
-4084 
-4053 
-3952 
-3985 
-3985 
-3931 
-3963 
-3932 
-3903 
-3916 
-3936 
-3959 
-3888 
-3984 
-3978 
-3963 
-3975 
-3955 
-4018 
-4036 
-4109 
-4166 
-4299 
-4404 
-4475 
-4522 
-4550 
-4505 
-4498 
-4407 
-4324 
-4308 
-4317 
-4338 
-4240 
-4212 
-4259 
-4269 
-4263 
-4233 
-4233 
-4235 
-4217 
-4271 
-4243 
-4250 
-4181 
-4188 
-4252 
-4207 
-4236 
-4260 
-4273 
-4264 
-4205 
-4225 
-4267 
-4284 
-4297 
-4279 
-4265 
-4278 
-4299 
-4227 
-4249 
-4259 
-4265 
-4311 
-4328 
-4260 
-4250 
-4233 
-4186 
-4192 
-4197 
-4217 
-4291 
-4319 
-4333 
-4311 
-4292 
-4295 
-4343 
-4367 
-4359 
-4288 
-4318 
-4362 
-4326 
-4306 
-4312 
-4349 
-4368 
-4343 
-4296 
-4172 
-4034 
-3860 
-3821 
-3989 
-4205 
-4441 
-4531 
-4469 
-4423 
-4310 
-4277 
-4298 
-4302 
-4366 
-4326 
-4338 
-4378 
-4371 
-4373 
-4367 
-4337 
-4332 
-4355 
-4391 
-4361 
-4315 
-4329 
-4316 
-4330 
-4359 
-4365 
-4402 
-4331 
-4308 
-4318 
-4330 
-4322 
-4305 
-4316 
-4331 
-4298 
-4260 
-4261 
-4279 
-4265 
-4272 
-4294 
-4303 
-4283 
-4201 
-4217 
-4191 
-4208 
-4197 
-4124 
-4131 
-4105 
-4132 
-4134 
-4097 
-4113 
-4137 
-4171 
-4144 
-4093 
-4095 
-4149 
-4219 
-4205 
-4238 
-4286 
-4305 
-4317 
-4316 
-4312 
-4331 
-4352 
-4295 
-4338 
-4387 
-4350 
-4340 
-4386 
-4447 
-4448 
-4449 
-4393 
-4388 
-4358 
-4442 
-4440 
-4389 
-4329 
-4375 
-4452 
-4457 
-4398 
-4373 
-4329 
-4422 
-4423 
-4409 
-4427 
-4392 
-4357 
-4352 
-4366 
-4356 
-4314 
-4326 
-4420 
-4462 
-4385 
-4327 
-4366 
-4411 
-4435 
-4382 
-4372 
-4412 
-4342 
-4330 
-4333 
-4291 
-4316 
-4359 
-4346 
-4318 
-4292 
-4319 
-4437 
-4461 
-4398 
-4277 
-4329 
-4401 
-4437 
-4424 
-4428 
-4420 
-4498 
-4478 
-4431 
-4412 
-4432 
-4445 
-4389 
-4267 
-4081 
-3912 
-3795 
-3743 
-3953 
-4248 
-4468 
-4500 
-4445 
-4333 
-4280 
-4325 
-4359 
-4354 
-4373 
-4315 
-4345 
-4345 
-4354 
-4418 
-4432 
-4363 
-4373 
-4326 
-4341 
-4346 
-4349 
-4337 
-4352 
-4375 
-4381 
-4342 
-4325 
-4310 
-4278 
-4303 
-4325 
-4390 
-4346 
-4279 
-4287 
-4323 
-4324 
-4315 
-4358 
-4390 
-4305 
-4260 
-4215 
-4216 
-4294 
-4274 
-4252 
-4233 
-4199 
-4189 
-4232 
-4276 
-4243 
-4196 
-4137 
-4282 
-4476 
-4657 
-4769 
-4765 
-4774 
-4800 
-4784 
-4721 
-4618 
-4584 
-4561 
-4505 
-4368 
-4371 
-4368 
-4367 
-4346 
-4326 
-4328 
-4313 
-4348 
-4400 
-4391 
-4374 
-4341 
-4376 
-4419 
-4344 
-4345 
-4465 
-4594 
-4729 
-4819 
-4847 
-4829 
-4892 
-4880 
-4857 
-4871 
-4789 
-4654 
-4554 
-4484 
-4457 
-4393 
-4385 
-4366 
-4363 
-4291 
-4252 
-4286 
-4269 
-4284 
-4296 
-4290 
-4241 
-4241 
-4235 
-4258 
-4201 
-4257 
-4237 
-4255 
-4288 
-4268 
-4173 
-4195 
-4364 
-4535 
-4669 
-4799 
-4839 
-4906 
-4844 
-4751 
-4659 
-4573 
-4492 
-4412 
-4338 
-4274 
-4280 
-4309 
-4303 
-4342 
-4278 
-4238 
-4226 
-4115 
-4061 
-3862 
-3703 
-3742 
-3919 
-4244 
-4435 
-4388 
-4275 
-4201 
-4186 
-4163 
-4199 
-4213 
-4174 
-4232 
-4246 
-4180 
-4133 
-4139 
-4147 
-4143 
-4173 
-4225 
-4215 
-4221 
-4185 
-4159 
-4212 
-4169 
-4174 
-4189 
-4115 
-4144 
-4133 
-4152 
-4124 
-4139 
-4142 
-4160 
-4181 
-4125 
-4132 
-4127 
-4084 
-4098 
-4107 
-4083 
-4074 
-4057 
-4060 
-4072 
-4029 
-4033 
-4021 
-4011 
-4017 
-4047 
-3999 
-4011 
-3979 
-3965 
-3983 
-3955 
-3995 
-4012 
-4039 
-4020 
-3993 
-4022 
-4033 
-4135 
-4163 
-4131 
-4117 
-4131 
-4163 
-4200 
-4133 
-4120 
-4142 
-4159 
-4197 
-4171 
-4186 
-4170 
-4156 
-4170 
-4160 
-4138 
-4132 
-4106 
-4154 
-4169 
-4157 
-4153 
-4198 
-4159 
-4108 
-4159 
-4181 
-4198 
-4209 
-4162 
-4188 
-4139 
-4153 
-4097 
-4134 
-4101 
-4127 
-4150 
-4172 
-4120 
-4083 
-4081 
-4128 
-4125 
-4118 
-4120 
-4117 
-4063 
-4075 
-4107 
-4070 
-4029 
-3956 
-3974 
-4023 
-4068 
-4080 
-4050 
-4071 
-4069 
-4093 
-4120 
-4146 
-4092 
-4121 
-4109 
-4117 
-4132 
-4135 
-4132 
-4102 
-4129 
-4175 
-4136 
-4181 
-4078 
-3855 
-3579 
-3395 
-3359 
-3587 
-3863 
-4064 
-4142 
-4067 
-4008 
-3973 
-3959 
-4012 
-4028 
-4057 
-4020 
-4033 
-3979 
-4012 
-4053 
-4045 
-3973 
-3987 
-3963 
-3915 
-3942 
-4012 
-4031 
-4002 
-3954 
-3931 
-3917 
-3919 
-3947 
-3916 
-3927 
-3950 
-3972 
-3926 
-3857 
-3863 
-3946 
-3948 
-3881 
-3843 
-3848 
-3835 
-3837 
-3850 
-3799 
-3752 
-3748 
-3748 
-3724 
-3754 
-3789 
-3766 
-3691 
-3717 
-3690 
-3591 
-3585 
-3620 
-3622 
-3634 
-3717 
-3711 
-3691 
-3695 
-3679 
-3738 
-3758 
-3772 
-3784 
-3812 
-3792 
-3860 
-3882 
-3874 
-3843 
-3878 
-3840 
-3757 
-3791 
-3822 
-3834 
-3816 
-3856 
-3851 
-3840 
-3795 
-3831 
-3815 
-3802 
-3848 
-3829 
-3810 
-3856 
-3895 
-3906 
-3819 
-3725 
-3751 
-3831 
-3882 
-3875 
-3790 
-3793 
-3779 
-3750 
-3810 
-3779 
-3801 
-3787 
-3800 
-3814 
-3847 
-3858 
-3810 
-3791 
-3779 
-3743 
-3753 
-3821 
-3787 
-3721 
-3761 
-3801 
-3807 
-3738 
-3681 
-3730 
-3757 
-3746 
-3788 
-3771 
-3768 
-3757 
-3714 
-3705 
-3669 
-3690 
-3685 
-3744 
-3720 
-3724 
-3773 
-3805 
-3804 
-3778 
-3811 
-3815 
-3811 
-3823 
-3764 
-3771 
-3870 
-3863 
-3796 
-3774 
-3778 
-3788 
-3795 
-3661 
-3427 
-3250 
-3119 
-3198 
-3470 
-3715 
-3837 
-3835 
-3738 
-3695 
-3742 
-3767 
-3784 
-3809 
-3797 
-3847 
-3869 
-3880 
-3924 
-3955 
-3948 
-3881 
-3897 
-3892 
-3920 
-3972 
-3993 
-3981 
-4009 
-3987 
-3948 
-3920 
-3972 
-3996 
-4020 
-3958 
-3961 
-3990 
-3971 
-3925 
-3961 
-3977 
-3971 
-3938 
-3953 
-3974 
-3998 
-4067 
-4062 
-4049 
-3977 
-3949 
-3953 
-3913 
-3917 
-3884 
-3904 
-3932 
-3966 
-3987 
-3948 
-3959 
-4013 
-3972 
-3970 
-3994 
-4030 
-4023 
-4060 
-4080 
-4108 
-4139 
-4201 
-4236 
-4265 
-4234 
-4238 
-4312 
-4313 
-4315 
-4290 
-4381 
-4362 
-4365 
-4387 
-4414 
-4525 
-4550 
-4581 
-4630 
-4679 
-4641 
-4479 
-4459 
-4514 
-4458 
-4473 
-4521 
-4560 
-4603 
-4579 
-4556 
-4557 
-4573 
-4565 
-4627 
-4657 
-4592 
-4602 
-4611 
-4657 
-4711 
-4659 
-4645 
-4707 
-4718 
-4751 
-4886 
-5008 
-5070 
-5072 
-5033 
-4934 
-4924 
-4888 
-4801 
-4811 
-4854 
-4894 
-4888 
-4893 
-4873 
-4912 
-4901 
-4876 
-4930 
-4899 
-4894 
-4927 
-4918 
-4970 
-4974 
-4961 
-4953 
-4946 
-4951 
-4938 
-5009 
-5019 
-4988 
-4986 
-5058 
-5188 
-5323 
-5338 
-5446 
-5454 
-5425 
-5432 
-5403 
-5340 
-5330 
-5337 
-5276 
-5301 
-5395 
-5355 
-5286 
-5224 
-5159 
-5075 
-4912 
-4773 
-4788 
-4997 
-5254 
-5430 
-5511 
-5522 
-5492 
-5426 
-5361 
-5401 
-5471 
-5479 
-5466 
-5490 
-5509 
-5537 
-5571 
-5614 
-5736 
-5931 
-6026 
-6110 
-6155 
-6182 
-6175 
-6118 
-6004 
-5933 
-5858 
-5806 
-5727 
-5664 
-5725 
-5826 
-5829 
-5736 
-5672 
-5679 
-5771 
-5775 
-5770 
-5746 
-5767 
-5725 
-5722 
-5712 
-5730 
-5768 
-5891 
-6024 
-6125 
-6143 
-6133 
-6111 
-6092 
-6065 
-6032 
-5926 
-5880 
-5855 
-5799 
-5795 
-5821 
-5868 
-5814 
-5826 
-5852 
-5903 
-5950 
-6007 
-6063 
-6101 
-6161 
-6285 
-6460 
-6564 
-6629 
-6702 
-6741 
-6664 
-6680 
-6645 
-6524 
-6450 
-6368 
-6344 
-6354 
-6323 
-6327 
-6286 
-6308 
-6382 
-6318 
-6325 
-6356 
-6370 
-6350 
-6377 
-6378 
-6391 
-6460 
-6405 
-6396 
-6366 
-6416 
-6429 
-6462 
-6477 
-6404 
-6443 
-6523 
-6515 
-6520 
-6525 
-6506 
-6510 
-6571 
-6640 
-6624 
-6608 
-6605 
-6619 
-6554 
-6528 
-6539 
-6614 
-6702 
-6689 
-6643 
-6649 
-6676 
-6692 
-6666 
-6643 
-6630 
-6637 
-6679 
-6723 
-6781 
-6824 
-6854 
-6836 
-6835 
-6873 
-6882 
-6880 
-6893 
-6942 
-6955 
-6924 
-6947 
-6997 
-6989 
-6996 
-7016 
-6960 
-6855 
-6721 
-6613 
-6554 
-6591 
-6797 
-7018 
-7209 
-7264 
-7167 
-7118 
-7118 
-7071 
-7071 
-7177 
-7219 
-7172 
-7132 
-7068 
-7132 
-7221 
-7225 
-7202 
-7153 
-7113 
-7145 
-7211 
-7221 
-7213 
-7221 
-7248 
-7245 
-7265 
-7268 
-7292 
-7243 
-7208 
-7235 
-7290 
-7292 
-7275 
-7241 
-7210 
-7224 
-7227 
-7260 
-7276 
-7250 
-7218 
-7219 
-7243 
-7238 
-7219 
-7210 
-7243 
-7243 
-7238 
-7274 
-7282 
-7245 
-7225 
-7212 
-7196 
-7176 
-7138 
-7205 
-7262 
-7190 
-7205 
-7264 
-7280 
-7315 
-7375 
-7382 
-7342 
-7344 
-7382 
-7441 
-7510 
-7518 
-7451 
-7418 
-7466 
-7464 
-7488 
-7551 
-7521 
-7538 
-7568 
-7582 
-7602 
-7597 
-7559 
-7587 
-7529 
-7563 
-7542 
-7588 
-7573 
-7570 
-7549 
-7541 
-7605 
-7601 
-7565 
-7612 
-7576 
-7549 
-7605 
-7643 
-7643 
-7685 
-7711 
-7662 
-7590 
-7649 
-7616 
-7601 
-7622 
-7630 
-7607 
-7591 
-7583 
-7616 
-7663 
-7635 
-7586 
-7648 
-7673 
-7639 
-7606 
-7628 
-7621 
-7647 
-7602 
-7559 
-7620 
-7652 
-7584 
-7595 
-7539 
-7539 
-7609 
-7644 
-7681 
-7699 
-7709 
-7731 
-7706 
-7695 
-7692 
-7690 
-7737 
-7792 
-7792 
-7769 
-7756 
-7695 
-7713 
-7650 
-7475 
-7320 
-7144 
-7085 
-7286 
-7523 
-7733 
-7864 
-7841 
-7721 
-7629 
-7626 
-7670 
-7659 
-7713 
-7718 
-7690 
-7704 
-7717 
-7731 
-7738 
-7678 
-7661 
-7658 
-7624 
-7686 
-7681 
-7629 
-7645 
-7644 
-7629 
-7638 
-7677 
-7609 
-7600 
-7675 
-7612 
-7619 
-7602 
-7606 
-7602 
-7607 
-7610 
-7564 
-7576 
-7613 
-7566 
-7550 
-7508 
-7500 
-7492 
-7491 
-7526 
-7557 
-7426 
-7341 
-7377 
-7413 
-7427 
-7389 
-7394 
-7383 
-7304 
-7302 
-7364 
-7402 
-7389 
-7457 
-7498 
-7427 
-7421 
-7422 
-7479 
-7511 
-7501 
-7524 
-7555 
-7523 
-7536 
-7540 
-7573 
-7596 
-7551 
-7548 
-7563 
-7543 
-7542 
-7560 
-7624 
-7571 
-7528 
-7548 
-7501 
-7525 
-7562 
-7537 
-7522 
-7492 
-7527 
-7505 
-7472 
-7514 
-7492 
-7475 
-7501 
-7576 
-7600 
-7538 
-7520 
-7496 
-7494 
-7499 
-7446 
-7445 
-7489 
-7475 
-7485 
-7517 
-7456 
-7453 
-7433 
-7425 
-7435 
-7449 
-7350 
-7439 
-7501 
-7482 
-7448 
-7415 
-7423 
-7469 
-7426 
-7398 
-7376 
-7400 
-7381 
-7348 
-7343 
-7344 
-7332 
-7288 
-7274 
-7297 
-7283 
-7319 
-7320 
-7315 
-7313 
-7323 
-7325 
-7298 
-7281 
-7279 
-7319 
-7350 
-7341 
-7329 
-7346 
-7357 
-7370 
-7405 
-7365 
-7373 
-7398 
-7361 
-7272 
-7044 
-6840 
-6741 
-6663 
-6759 
-6981 
-7267 
-7360 
-7276 
-7245 
-7176 
-7168 
-7202 
-7211 
-7260 
-7307 
-7305 
-7218 
-7201 
-7129 
-7136 
-7213 
-7222 
-7187 
-7097 
-7137 
-7178 
-7155 
-7146 
-7175 
-7169 
-7177 
-7134 
-7100 
-7107 
-7137 
-7117 
-7079 
-7072 
-7059 
-6991 
-6927 
-7021 
-7057 
-6999 
-6989 
-7001 
-6934 
-6921 
-6931 
-6901 
-6870 
-6855 
-6867 
-6838 
-6778 
-6741 
-6757 
-6715 
-6728 
-6721 
-6692 
-6627 
-6678 
-6698 
-6652 
-6635 
-6668 
-6697 
-6659 
-6696 
-6734 
-6695 
-6706 
-6719 
-6773 
-6770 
-6746 
-6760 
-6747 
-6707 
-6728 
-6749 
-6737 
-6752 
-6734 
-6700 
-6693 
-6750 
-6726 
-6741 
-6729 
-6652 
-6599 
-6617 
-6658 
-6667 
-6680 
-6636 
-6661 
-6669 
-6653 
-6642 
-6615 
-6579 
-6626 
-6664 
-6590 
-6594 
-6673 
-6644 
-6571 
-6549 
-6589 
-6551 
-6588 
-6602 
-6582 
-6616 
-6617 
-6582 
-6538 
-6494 
-6491 
-6485 
-6534 
-6558 
-6544 
-6546 
-6580 
-6601 
-6523 
-6436 
-6462 
-6512 
-6494 
-6508 
-6540 
-6547 
-6433 
-6417 
-6464 
-6474 
-6491 
-6501 
-6438 
-6372 
-6373 
-6416 
-6422 
-6391 
-6359 
-6396 
-6361 
-6362 
-6323 
-6290 
-6318 
-6317 
-6339 
-6460 
-6397 
-6342 
-6354 
-6381 
-6376 
-6371 
-6370 
-6367 
-6362 
-6386 
-6394 
-6371 
-6356 
-6396 
-6388 
-6338 
-6231 
-6092 
-5859 
-5713 
-5699 
-5877 
-6164 
-6384 
-6407 
-6285 
-6211 
-6200 
-6167 
-6207 
-6201 
-6228 
-6224 
-6218 
-6208 
-6215 
-6252 
-6230 
-6187 
-6234 
-6226 
-6255 
-6268 
-6188 
-6184 
-6189 
-6112 
-6105 
-6144 
-6147 
-6124 
-6107 
-6132 
-6184 
-6213 
-6160 
-6158 
-6220 
-6213 
-6131 
-6099 
-6096 
-6103 
-6061 
-6014 
-6026 
-6032 
-6027 
-6056 
-5999 
-5931 
-5893 
-5914 
-5893 
-5899 
-5853 
-5845 
-5861 
-5833 
-5841 
-5817 
-5838 
-5814 
-5842 
-5782 
-5836 
-5894 
-5892 
-5898 
-5866 
-5866 
-6008 
-6146 
-6251 
-6307 
-6269 
-6199 
-6166 
-6079 
-5975 
-5954 
-5930 
-5987 
-5930 
-5879 
-5854 
-5850 
-5851 
-5871 
-5902 
-5860 
-5754 
-5737 
-5797 
-5835 
-5830 
-5841 
-5733 
-5741 
-5736 
-5761 
-5779 
-5780 
-5722 
-5731 
-5751 
-5762 
-5682 
-5735 
-5778 
-5739 
-5741 
-5874 
-6014 
-6127 
-6159 
-6143 
-6165 
-6076 
-5901 
-5844 
-5849 
-5777 
-5689 
-5677 
-5629 
-5655 
-5678 
-5645 
-5649 
-5604 
-5610 
-5682 
-5647 
-5608 
-5560 
-5544 
-5522 
-5534 
-5544 
-5547 
-5538 
-5458 
-5517 
-5600 
-5660 
-5722 
-5740 
-5730 
-5706 
-5734 
-5705 
-5600 
-5537 
-5518 
-5525 
-5490 
-5532 
-5501 
-5464 
-5491 
-5496 
-5446 
-5443 
-5466 
-5471 
-5506 
-5481 
-5415 
-5329 
-5232 
-5094 
-4958 
-4934 
-4979 
-5205 
-5434 
-5539 
-5578 
-5495 
-5431 
-5407 
-5333 
-5310 
-5335 
-5340 
-5300 
-5336 
-5325 
-5296 
-5411 
-5505 
-5603 
-5677 
-5724 
-5748 
-5551 
-5411 
-5311 
-5323 
-5307 
-5269 
-5215 
-5206 
-5225 
-5206 
-5239 
-5169 
-5174 
-5146 
-5117 
-5139 
-5168 
-5182 
-5068 
-5038 
-5056 
-5065 
-5071 
-5086 
-5015 
-5004 
-4968 
-4928 
-4940 
-4948 
-4961 
-4966 
-4958 
-4955 
-4951 
-4878 
-4776 
-4783 
-4849 
-4833 
-4795 
-4811 
-4811 
-4838 
-4869 
-4915 
-4943 
-4933 
-4912 
-4911 
-4902 
-4934 
-4930 
-4965 
-4937 
-4909 
-4953 
-4960 
-4967 
-4920 
-4899 
-4951 
-4946 
-4879 
-4892 
-4891 
-4912 
-4924 
-4917 
-4868 
-4874 
-4910 
-4869 
-4805 
-4836 
-4836 
-4846 
-4800 
-4807 
-4821 
-4805 
-4841 
-4819 
-4779 
-4794 
-4808 
-4797 
-4807 
-4796 
-4749 
-4776 
-4728 
-4725 
-4809 
-4767 
-4718 
-4748 
-4736 
-4739 
-4685 
-4665 
-4668 
-4701 
-4679 
-4665 
-4657 
-4652 
-4671 
-4656 
-4638 
-4679 
-4606 
-4608 
-4536 
-4543 
-4587 
-4580 
-4547 
-4507 
-4521 
-4564 
-4519 
-4489 
-4571 
-4571 
-4569 
-4547 
-4546 
-4558 
-4546 
-4530 
-4525 
-4569 
-4603 
-4595 
-4574 
-4513 
-4524 
-4530 
-4417 
-4317 
-4167 
-4006 
-3982 
-4111 
-4416 
-4649 
-4684 
-4601 
-4524 
-4461 
-4433 
-4434 
-4441 
-4456 
-4467 
-4435 
-4408 
-4380 
-4390 
-4387 
-4383 
-4386 
-4372 
-4401 
-4383 
-4370 
-4329 
-4315 
-4318 
-4319 
-4347 
-4324 
-4291 
-4318 
-4316 
-4298 
-4301 
-4294 
-4258 
-4234 
-4225 
-4244 
-4213 
-4241 
-4240 
-4238 
-4239 
-4193 
-4189 
-4148 
-4130 
-4141 
-4118 
-4111 
-4049 
-4051 
-4042 
-4082 
-4110 
-4066 
-4010 
-3945 
-3975 
-4006 
-3969 
-4000 
-4027 
-4008 
-4014 
-3993 
-3991 
-4060 
-4057 
-4075 
-4078 
-4081 
-4100 
-4086 
-4142 
-4178 
-4161 
-4138 
-4063 
-4065 
-4067 
-4092 
-4104 
-4092 
-4064 
-4057 
-4032 
-4052 
-4049 
-4002 
-4021 
-4058 
-4033 
-3994 
-4020 
-4050 
-4081 
-4044 
-4014 
-3982 
-3958 
-3988 
-3988 
-3971 
-3977 
-4017 
-3992 
-3954 
-3946 
-3988 
-3958 
-3886 
-3872 
-3932 
-3948 
-3929 
-3926 
-3941 
-3936 
-3922 
-3916 
-3903 
-3928 
-3877 
-3853 
-3880 
-3851 
-3804 
-3856 
-3903 
-3845 
-3814 
-3839 
-3851 
-3883 
-3835 
-3789 
-3730 
-3739 
-3810 
-3799 
-3747 
-3776 
-3767 
-3738 
-3736 
-3719 
-3685 
-3695 
-3677 
-3741 
-3722 
-3755 
-3830 
-3790 
-3787 
-3776 
-3727 
-3704 
-3724 
-3756 
-3746 
-3722 
-3741 
-3732 
-3710 
-3693 
-3658 
-3571 
-3446 
-3247 
-3057 
-3057 
-3219 
-3460 
-3703 
-3797 
-3756 
-3660 
-3579 
-3519 
-3481 
-3538 
-3599 
-3610 
-3613 
-3622 
-3596 
-3597 
-3597 
-3570 
-3549 
-3558 
-3523 
-3488 
-3490 
-3429 
-3450 
-3486 
-3474 
-3477 
-3489 
-3467 
-3462 
-3452 
-3420 
-3416 
-3391 
-3376 
-3371 
-3374 
-3376 
-3388 
-3385 
-3384 
-3354 
-3317 
-3334 
-3290 
-3271 
-3290 
-3310 
-3300 
-3259 
-3195 
-3195 
-3187 
-3199 
-3147 
-3115 
-3143 
-3173 
-3157 
-3181 
-3184 
-3160 
-3135 
-3123 
-3139 
-3206 
-3261 
-3274 
-3251 
-3125 
-3143 
-3233 
-3260 
-3268 
-3283 
-3260 
-3273 
-3240 
-3230 
-3247 
-3229 
-3282 
-3296 
-3229 
-3162 
-3192 
-3205 
-3161 
-3136 
-3207 
-3194 
-3203 
-3187 
-3203 
-3138 
-3133 
-3182 
-3188 
-3179 
-3097 
-3110 
-3142 
-3086 
-3092 
-3109 
-3167 
-3111 
-3078 
-3083 
-3077 
-3108 
-3096 
-3066 
-3064 
-3042 
-3058 
-3083 
-3105 
-3133 
-3105 
-3099 
-3064 
-3036 
-3013 
-3024 
-3060 
-3010 
-3019 
-3040 
-3080 
-3117 
-3077 
-3001 
-3019 
-3018 
-2958 
-2955 
-2947 
-2978 
-2998 
-2981 
-2990 
-2970 
-2979 
-2978 
-2968 
-2939 
-2930 
-2861 
-2899 
-2928 
-2876 
-2849 
-2844 
-2808 
-2849 
-2899 
-2898 
-2870 
-2890 
-2932 
-2961 
-2979 
-2931 
-2938 
-2961 
-2933 
-2950 
-2958 
-2947 
-2919 
-2898 
-2896 
-2692 
-2526 
-2315 
-2244 
-2303 
-2560 
-2790 
-2966 
-2962 
-2853 
-2772 
-2743 
-2798 
-2865 
-2857 
-2873 
-2825 
-2797 
-2774 
-2812 
-2880 
-2839 
-2723 
-2756 
-2751 
-2700 
-2739 
-2755 
-2765 
-2794 
-2784 
-2763 
-2768 
-2775 
-2784 
-2682 
-2675 
-2686 
-2690 
-2663 
-2673 
-2656 
-2658 
-2647 
-2655 
-2671 
-2707 
-2716 
-2579 
-2588 
-2594 
-2534 
-2507 
-2537 
-2570 
-2526 
-2481 
-2498 
-2428 
-2374 
-2402 
-2447 
-2442 
-2410 
-2399 
-2395 
-2423 
-2410 
-2402 
-2402 
-2433 
-2465 
-2524 
-2543 
-2505 
-2500 
-2496 
-2511 
-2520 
-2548 
-2561 
-2564 
-2569 
-2507 
-2559 
-2562 
-2537 
-2555 
-2531 
-2534 
-2527 
-2524 
-2482 
-2514 
-2492 
-2442 
-2490 
-2535 
-2495 
-2477 
-2461 
-2468 
-2497 
-2417 
-2402 
-2424 
-2463 
-2458 
-2429 
-2408 
-2359 
-2415 
-2412 
-2383 
-2380 
-2373 
-2406 
-2404 
-2394 
-2368 
-2416 
-2354 
-2344 
-2368 
-2380 
-2409 
-2387 
-2326 
-2360 
-2367 
-2400 
-2342 
-2284 
-2251 
-2306 
-2318 
-2333 
-2295 
-2288 
-2287 
-2322 
-2315 
-2263 
-2296 
-2262 
-2243 
-2245 
-2170 
-2177 
-2224 
-2228 
-2216 
-2169 
-2144 
-2134 
-2149 
-2137 
-2140 
-2118 
-2137 
-2135 
-2118 
-2116 
-2141 
-2197 
-2206 
-2228 
-2202 
-2189 
-2173 
-2144 
-2221 
-2177 
-2104 
-2142 
-2166 
-2120 
-2131 
-2121 
-2054 
-1990 
-1821 
-1620 
-1512 
-1522 
-1683 
-1941 
-2100 
-2124 
-2083 
-2041 
-2003 
-1955 
-1954 
-1969 
-2020 
-2033 
-2047 
-2015 
-1993 
-2018 
-2008 
-1980 
-1975 
-2035 
-1994 
-1975 
-1996 
-1931 
-1905 
-1894 
-1928 
-1928 
-1936 
-1942 
-1939 
-1935 
-1883 
-1857 
-1859 
-1914 
-1873 
-1782 
-1791 
-1784 
-1799 
-1777 
-1833 
-1847 
-1770 
-1706 
-1711 
-1729 
-1742 
-1682 
-1681 
-1720 
-1650 
-1608 
-1600 
-1591 
-1603 
-1590 
-1552 
-1601 
-1667 
-1663 
-1621 
-1566 
-1558 
-1626 
-1602 
-1637 
-1646 
-1664 
-1666 
-1717 
-1716 
-1755 
-1775 
-1755 
-1776 
-1808 
-1744 
-1719 
-1753 
-1728 
-1783 
-1787 
-1722 
-1681 
-1667 
-1708 
-1695 
-1686 
-1705 
-1702 
-1693 
-1737 
-1718 
-1694 
-1721 
-1763 
-1751 
-1701 
-1707 
-1695 
-1695 
-1714 
-1716 
-1654 
-1680 
-1651 
-1644 
-1667 
-1639 
-1650 
-1644 
-1651 
-1639 
-1640 
-1655 
-1643 
-1648 
-1645 
-1605 
-1569 
-1581 
-1620 
-1632 
-1642 
-1545 
-1568 
-1597 
-1598 
-1555 
-1567 
-1570 
-1580 
-1544 
-1515 
-1504 
-1517 
-1574 
-1519 
-1470 
-1492 
-1507 
-1487 
-1458 
-1416 
-1431 
-1383 
-1449 
-1398 
-1390 
-1448 
-1441 
-1483 
-1486 
-1503 
-1535 
-1529 
-1547 
-1473 
-1500 
-1420 
-1495 
-1550 
-1504 
-1485 
-1437 
-1458 
-1424 
-1351 
-1221 
-1052 
-873 
-886 
-1070 
-1396 
-1627 
-1655 
-1586 
-1520 
-1434 
-1405 
-1348 
-1375 
-1411 
-1439 
-1430 
-1422 
-1375 
-1417 
-1416 
-1397 
-1432 
-1406 
-1350 
-1296 
-1316 
-1360 
-1312 
-1314 
-1346 
-1301 
-1308 
-1304 
-1333 
-1331 
-1320 
-1263 
-1318 
-1298 
-1240 
-1296 
-1434 
-1569 
-1664 
-1588 
-1534 
-1462 
-1362 
-1280 
-1245 
-1240 
-1241 
-1244 
-1154 
-1111 
-1099 
-1119 
-1072 
-1074 
-1062 
-1055 
-1032 
-1007 
-1041 
-1028 
-1034 
-1077 
-1019 
-1058 
-1119 
-1130 
-1143 
-1170 
-1176 
-1121 
-1081 
-1111 
-1173 
-1198 
-1199 
-1212 
-1201 
-1166 
-1158 
-1173 
-1238 
-1230 
-1165 
-1139 
-1166 
-1199 
-1192 
-1217 
-1158 
-1133 
-1109 
-1091 
-1058 
-1085 
-1111 
-1121 
-1154 
-1135 
-1116 
-1094 
-1084 
-1118 
-1079 
-1104 
-1103 
-1151 
-1164 
-1090 
-1088 
-1074 
-1100 
-1267 
-1460 
-1591 
-1623 
-1594 
-1515 
-1423 
-1327 
-1198 
-1160 
-1116 
-1084 
-1071 
-1032 
-1020 
-1013 
-1000 
-1002 
-1014 
-972 
-930 
-848 
-821 
-889 
-915 
-877 
-807 
-846 
-892 
-873 
-915 
-957 
-985 
-935 
-955 
-990 
-938 
-898 
-899 
-953 
-977 
-930 
-879 
-879 
-930 
-909 
-814 
-709 
-578 
-428 
-448 
-575 
-893 
-1165 
-1172 
-1111 
-978 
-870 
-840 
-826 
-783 
-872 
-934 
-892 
-848 
-887 
-906 
-855 
-807 
-872 
-881 
-892 
-887 
-854 
-808 
-785 
-807 
-799 
-773 
-808 
-792 
-780 
-775 
-788 
-809 
-820 
-796 
-791 
-831 
-772 
-750 
-769 
-702 
-668 
-717 
-747 
-760 
-722 
-654 
-629 
-594 
-616 
-575 
-582 
-607 
-547 
-568 
-607 
-654 
-619 
-535 
-508 
-483 
-509 
-602 
-618 
-601 
-563 
-602 
-677 
-661 
-630 
-698 
-725 
-647 
-698 
-725 
-717 
-696 
-724 
-713 
-721 
-671 
-623 
-668 
-662 
-672 
-672 
-654 
-692 
-743 
-668 
-621 
-652 
-644 
-607 
-621 
-629 
-648 
-628 
-583 
-604 
-620 
-574 
-545 
-594 
-579 
-542 
-495 
-574 
-543 
-573 
-598 
-600 
-590 
-566 
-545 
-512 
-526 
-523 
-525 
-517 
-473 
-532 
-518 
-507 
-483 
-466 
-468 
-438 
-414 
-412 
-455 
-448 
-413 
-370 
-377 
-345 
-337 
-328 
-315 
-311 
-327 
-295 
-309 
-340 
-335 
-357 
-359 
-383 
-389 
-343 
-371 
-416 
-333 
-308 
-327 
-359 
-385 
-345 
-357 
-377 
-332 
-167 
-32 
174 
292 
270 
47 
-264 
-455 
-438 
-352 
-297 
-212 
-205 
-211 
-233 
-283 
-224 
-250 
-245 
-261 
-254 
-288 
-259 
-283 
-223 
-172 
-194 
-210 
-198 
-127 
-185 
-210 
-218 
-203 
-194 
-206 
-203 
-130 
-125 
-149 
-171 
-200 
-129 
-85 
-112 
-112 
-58 
-1 
-40 
-48 
-52 
-33 
-14 
-2 
14 
9 
70 
78 
87 
102 
124 
106 
98 
107 
97 
85 
90 
148 
163 
118 
31 
44 
38 
52 
69 
18 
-33 
-86 
-4 
-26 
-19 
-88 
-72 
-8 
-26 
-28 
-19 
1 
-44 
-74 
-64 
-48 
-60 
-9 
13 
28 
25 
16 
15 
-16 
-4 
4 
32 
77 
54 
35 
23 
31 
20 
40 
25 
92 
80 
39 
35 
63 
92 
91 
105 
47 
63 
93 
108 
135 
111 
74 
27 
59 
91 
135 
127 
97 
64 
82 
127 
149 
138 
174 
338 
262 
192 
173 
245 
249 
224 
228 
220 
267 
245 
227 
214 
199 
136 
111 
130 
160 
144 
109 
126 
166 
189 
127 
126 
108 
124 
169 
175 
215 
323 
515 
620 
829 
869 
629 
320 
151 
47 
97 
190 
316 
332 
295 
260 
237 
226 
231 
250 
244 
285 
255 
199 
202 
242 
258 
235 
190 
183 
211 
223 
312 
331 
326 
325 
335 
302 
305 
300 
265 
329 
364 
359 
357 
353 
358 
367 
433 
440 
459 
441 
396 
391 
472 
482 
492 
509 
591 
620 
561 
413 
435 
528 
514 
532 
556 
551 
563 
590 
570 
534 
565 
516 
461 
443 
449 
443 
450 
464 
396 
394 
405 
395 
406 
373 
368 
402 
419 
440 
413 
436 
440 
427 
395 
434 
466 
430 
416 
402 
455 
462 
463 
433 
439 
458 
426 
383 
391 
413 
408 
399 
351 
359 
376 
396 
456 
412 
405 
441 
460 
413 
399 
379 
417 
389 
378 
359 
384 
364 
381 
354 
331 
359 
347 
357 
339 
347 
391 
415 
347 
334 
375 
407 
377 
395 
418 
407 
366 
398 
389 
318 
298 
287 
271 
248 
197 
192 
275 
266 
240 
210 
185 
167 
138 
96 
105 
125 
116 
204 
271 
369 
550 
603 
614 
458 
130 
-69 
-102 
-55 
10 
52 
60 
54 
-3 
-60 
-156 
-185 
-195 
-176 
-161 
-125 
-97 
-92 
-111 
-115 
-110 
-113 
-154 
-123 
-177 
-171 
-143 
-158 
-222 
-234 
-248 
-219 
-208 
-205 
-219 
-242 
-252 
-247 
-310 
-341 
-302 
-216 
-222 
-253 
-245 
-238 
-315 
-350 
-374 
-288 
-193 
-199 
-220 
-248 
-230 
-267 
-288 
-308 
-296 
-381 
-385 
-282 
-313 
-347 
-377 
-391 
-454 
-497 
-622 
-686 
-614 
-526 
-616 
-634 
-607 
-576 
-612 
-645 
-693 
-710 
-644 
-665 
-669 
-595 
-639 
-707 
-672 
-695 
-698 
-693 
-684 
-665 
-697 
-714 
-726 
-704 
-691 
-726 
-744 
-714 
-731 
-703 
-744 
-744 
-738 
-717 
-706 
-709 
-746 
-702 
-703 
-678 
-724 
-751 
-733 
-738 
-717 
-676 
-687 
-718 
-716 
-689 
-640 
-665 
-638 
-662 
-684 
-665 
-684 
-639 
-614 
-629 
-583 
-567 
-621 
-576 
-536 
-538 
-585 
-605 
-629 
-649 
-646 
-671 
-668 
-704 
-682 
-632 
-603 
-621 
-641 
-644 
-579 
-587 
-628 
-600 
-588 
-459 
-353 
-218 
-27 
30 
21 
-292 
-598 
-687 
-627 
-554 
-457 
-451 
-399 
-397 
-375 
-385 
-365 
-356 
-388 
-345 
-356 
-385 
-374 
-372 
-330 
-251 
-236 
-223 
-240 
-231 
-279 
-213 
-206 
-227 
-151 
-121 
-143 
-130 
-156 
-123 
-63 
-66 
-35 
-32 
-67 
-32 
-17 
27 
6 
18 
84 
106 
73 
101 
149 
187 
187 
164 
202 
222 
187 
270 
270 
259 
288 
314 
270 
262 
281 
320 
334 
293 
259 
243 
226 
167 
173 
213 
243 
248 
197 
213 
200 
209 
253 
207 
212 
218 
223 
268 
261 
258 
251 
288 
330 
318 
309 
338 
364 
369 
347 
344 
327 
325 
332 
353 
341 
379 
365 
365 
373 
427 
412 
411 
430 
394 
390 
457 
455 
484 
480 
457 
477 
432 
422 
496 
435 
454 
513 
520 
539 
536 
593 
589 
551 
544 
550 
592 
652 
640 
647 
722 
729 
686 
714 
781 
776 
782 
740 
783 
768 
750 
768 
723 
695 
679 
664 
701 
736 
758 
721 
723 
726 
722 
731 
793 
855 
831 
856 
971 
1173 
1359 
1450 
1415 
1160 
881 
748 
804 
908 
983 
950 
981 
996 
1034 
988 
911 
961 
992 
969 
993 
981 
959 
957 
1026 
1058 
976 
1032 
1070 
1095 
1066 
1092 
1100 
1075 
1102 
1082 
1088 
1100 
1078 
1121 
1144 
1168 
1167 
1173 
1177 
1177 
1201 
1197 
1237 
1275 
1316 
1319 
1308 
1321 
1293 
1306 
1355 
1369 
1316 
1382 
1443 
1444 
1416 
1436 
1460 
1454 
1439 
1463 
1439 
1347 
1294 
1259 
1244 
1251 
1214 
1246 
1230 
1246 
1226 
1203 
1238 
1292 
1270 
1288 
1348 
1290 
1213 
1240 
1252 
1300 
1328 
1305 
1270 
1337 
1309 
1269 
1294 
1308 
1307 
1296 
1307 
1340 
1343 
1336 
1332 
1363 
1341 
1314 
1291 
1337 
1316 
1326 
1316 
1278 
1302 
1350 
1331 
1317 
1359 
1360 
1382 
1356 
1335 
1362 
1394 
1403 
1379 
1381 
1323 
1333 
1382 
1375 
1368 
1343 
1340 
1398 
1435 
1352 
1393 
1397 
1418 
1424 
1423 
1430 
1470 
1488 
1492 
1542 
1509 
1517 
1488 
1489 
1539 
1548 
1497 
1470 
1438 
1464 
1419 
1410 
1498 
1488 
1468 
1424 
1408 
1405 
1437 
1468 
1408 
1377 
1385 
1442 
1564 
1697 
1910 
2082 
2141 
2028 
1765 
1538 
1445 
1478 
1525 
1566 
1589 
1639 
1590 
1561 
1531 
1529 
1552 
1538 
1479 
1493 
1541 
1576 
1559 
1565 
1589 
1555 
1557 
1512 
1521 
1614 
1595 
1614 
1603 
1577 
1586 
1592 
1618 
1573 
1611 
1635 
1647 
1620 
1637 
1689 
1714 
1695 
1654 
1668 
1724 
1775 
1747 
1769 
1786 
1737 
1732 
1798 
1831 
1841 
1853 
1857 
1841 
1840 
1846 
1809 
1862 
1868 
1896 
1851 
1877 
1855 
1828 
1817 
1820 
1801 
1768 
1733 
1707 
1722 
1713 
1684 
1704 
1739 
1731 
1760 
1734 
1722 
1751 
1709 
1641 
1686 
1746 
1739 
1702 
1729 
1746 
1737 
1695 
1665 
1654 
1684 
1712 
1676 
1693 
1761 
1768 
1769 
1818 
1807 
1793 
1749 
1728 
1707 
1682 
1726 
1773 
1783 
1732 
1705 
1671 
1686 
1692 
1753 
1780 
1785 
1730 
1687 
1674 
1718 
1729 
1697 
1689 
1664 
1665 
1714 
1759 
1738 
1752 
1771 
1712 
1669 
1684 
1700 
1762 
1796 
1769 
1767 
1736 
1707 
1793 
1827 
1780 
1767 
1831 
1832 
1832 
1830 
1841 
1830 
1748 
1711 
1773 
1758 
1751 
1735 
1708 
1678 
1657 
1736 
1745 
1714 
1684 
1693 
1704 
1726 
1723 
1722 
1758 
1875 
2031 
2141 
2232 
2380 
2264 
1926 
1669 
1551 
1600 
1710 
1788 
1822 
1872 
1821 
1764 
1777 
1796 
1768 
1751 
1743 
1722 
1729 
1746 
1728 
1795 
1798 
1746 
1752 
1808 
1781 
1770 
1784 
1768 
1718 
1737 
1793 
1822 
1829 
1800 
1811 
1805 
1778 
1792 
1832 
1798 
1758 
1682 
1718 
1757 
1797 
1831 
1824 
1873 
1908 
1943 
1964 
1925 
1937 
1922 
1968 
2030 
2034 
2027 
2004 
2008 
2009 
1991 
2019 
1993 
1979 
1954 
1920 
1925 
1930 
1953 
1915 
1847 
1796 
1839 
1860 
1831 
1833 
1854 
1868 
1854 
1788 
1777 
1790 
1869 
1917 
1906 
1886 
1891 
1880 
1867 
1918 
1929 
1872 
1872 
1863 
1881 
1850 
1885 
1877 
1872 
1882 
1856 
1740 
1646 
1525 
1502 
1482 
1502 
1525 
1605 
1675 
1731 
1723 
1807 
1928 
1922 
1905 
1932 
1931 
1913 
1873 
1892 
1898 
1943 
1948 
1952 
1947 
1961 
1857 
1738 
1657 
1603 
1620 
1635 
1618 
1652 
1785 
1872 
1884 
1897 
1956 
1952 
1940 
1961 
2037 
2043 
2003 
1966 
2012 
2066 
2020 
1946 
1936 
1977 
1991 
1916 
1891 
1889 
1914 
1885 
1944 
1980 
1971 
1956 
1926 
1941 
1902 
1963 
2157 
2327 
2464 
2475 
2307 
2100 
1871 
1776 
1803 
1863 
1856 
1862 
1947 
1995 
2040 
2002 
1956 
1936 
1950 
1989 
1965 
1991 
1993 
2023 
2032 
1939 
1927 
1946 
1984 
1959 
1979 
2018 
2036 
2005 
1969 
1997 
2011 
1970 
2008 
2074 
2054 
2055 
2031 
2075 
2079 
2104 
2053 
2047 
2096 
2112 
2101 
2087 
2127 
2139 
2145 
2118 
2174 
2169 
2149 
2198 
2239 
2233 
2227 
2255 
2222 
2146 
2128 
2177 
2216 
2172 
2131 
2070 
2035 
2077 
2061 
2054 
1994 
1979 
1980 
1958 
1933 
1966 
2018 
2006 
1992 
2011 
1973 
1941 
1969 
1964 
1939 
1921 
1942 
2018 
2015 
1999 
1992 
1967 
2014 
2025 
2004 
2049 
2044 
1995 
2013 
2029 
2031 
2038 
2018 
2002 
2037 
2027 
2023 
2032 
2003 
2010 
2028 
2023 
2069 
2037 
1975 
2007 
2040 
2068 
2084 
2022 
1996 
2059 
2018 
1995 
2035 
2049 
2050 
2076 
2055 
2061 
2089 
2103 
2101 
2095 
2071 
2062 
2051 
2103 
2067 
2058 
2143 
2151 
2140 
2169 
2181 
2179 
2110 
2067 
2074 
2122 
2084 
2054 
2033 
2053 
2067 
2088 
2056 
2014 
2011 
2014 
1972 
1979 
2019 
2006 
2060 
2180 
2403 
2551 
2673 
2591 
2375 
2097 
1872 
1856 
1964 
2046 
2077 
2093 
2142 
2146 
2081 
2015 
2044 
2095 
2083 
2056 
2048 
2039 
2043 
2048 
2023 
2071 
2066 
2092 
2069 
2057 
2091 
2110 
2108 
2116 
2100 
2107 
2093 
2062 
2071 
2096 
2139 
2167 
2158 
2135 
2110 
2137 
2148 
2100 
2101 
2155 
2178 
2134 
2192 
2241 
2266 
2289 
2299 
2272 
2292 
2317 
2275 
2242 
2312 
2338 
2342 
2309 
2264 
2284 
2305 
2280 
2209 
2205 
2186 
2160 
2131 
2106 
2131 
2118 
2069 
2087 
2094 
2110 
2071 
2035 
2077 
2102 
2141 
2100 
2082 
2064 
2084 
2089 
2069 
2066 
2078 
2039 
2004 
2083 
2112 
2107 
2107 
2109 
2076 
2082 
2083 
2131 
2139 
2125 
2090 
2064 
2027 
2064 
2163 
2140 
2108 
2108 
2133 
2111 
2090 
2118 
2065 
2092 
2101 
2093 
2099 
2079 
2115 
2158 
2129 
2108 
2129 
2123 
2145 
2135 
2132 
2156 
2143 
2091 
2117 
2147 
2193 
2178 
2196 
2229 
2196 
2151 
2155 
2203 
2214 
2186 
2177 
2236 
2252 
2232 
2266 
2293 
2314 
2286 
2293 
2262 
2249 
2206 
2172 
2146 
2167 
2187 
2202 
2158 
2120 
2123 
2146 
2115 
2126 
2142 
2149 
2175 
2178 
2210 
2298 
2431 
2637 
2767 
2727 
2535 
2318 
2103 
2036 
2121 
2212 
2250 
2246 
2236 
2169 
2165 
2186 
2163 
2151 
2192 
2159 
2098 
2158 
2169 
2179 
2201 
2194 
2193 
2171 
2188 
2105 
2121 
2174 
2170 
2198 
2249 
2260 
2225 
2172 
2200 
2206 
2182 
2195 
2214 
2268 
2226 
2197 
2198 
2266 
2282 
2303 
2310 
2295 
2301 
2298 
2329 
2395 
2381 
2364 
2431 
2389 
2348 
2377 
2398 
2441 
2454 
2448 
2406 
2386 
2350 
2378 
2350 
2284 
2284 
2244 
2222 
2262 
2244 
2216 
2193 
2171 
2212 
2211 
2214 
2185 
2206 
2175 
2190 
2213 
2200 
2204 
2160 
2124 
2175 
2194 
2146 
2182 
2186 
2159 
2226 
2186 
2198 
2265 
2230 
2165 
2166 
2180 
2164 
2198 
2182 
2226 
2225 
2184 
2164 
2184 
2203 
2200 
2163 
2182 
2206 
2195 
2158 
2143 
2172 
2176 
2140 
2145 
2169 
2201 
2156 
2139 
2121 
2212 
2174 
2154 
2160 
2173 
2201 
2154 
2154 
2151 
2184 
2184 
2167 
2177 
2188 
2190 
2189 
2163 
2215 
2226 
2258 
2255 
2244 
2218 
2241 
2278 
2257 
2238 
2237 
2246 
2236 
2187 
2156 
2136 
2130 
2162 
2154 
2122 
2115 
2102 
2120 
2133 
2136 
2143 
2127 
2175 
2171 
2140 
2267 
2436 
2488 
2386 
2115 
1709 
1403 
1323 
1343 
1479 
1633 
1678 
1695 
1637 
1577 
1516 
1472 
1475 
1572 
1649 
1690 
1742 
1841 
1936 
2010 
2026 
2050 
2143 
2163 
2207 
2243 
2288 
2278 
2274 
2222 
2261 
2296 
2299 
2257 
2254 
2293 
2308 
2293 
2300 
2321 
2304 
2272 
2257 
2199 
2055 
1932 
1833 
1805 
1795 
1900 
1943 
2005 
2062 
2085 
2045 
2056 
2092 
2016 
1961 
1892 
1827 
1816 
1830 
1881 
1982 
2097 
2184 
2215 
2266 
2294 
2297 
2311 
2288 
2325 
2355 
2374 
2383 
2352 
2329 
2317 
2311 
2338 
2319 
2262 
2357 
2377 
2330 
2337 
2338 
2288 
2325 
2361 
2344 
2337 
2317 
2349 
2375 
2346 
2347 
2317 
2309 
2336 
2385 
2366 
2325 
2339 
2273 
2303 
2333 
2344 
2347 
2331 
2379 
2341 
2321 
2351 
2356 
2370 
2331 
2295 
2334 
2283 
2268 
2339 
2323 
2324 
2384 
2389 
2317 
2361 
2366 
2352 
2316 
2292 
2308 
2352 
2388 
2364 
2376 
2382 
2383 
2408 
2419 
2392 
2386 
2313 
2263 
2277 
2246 
2296 
2295 
2280 
2263 
2242 
2244 
2242 
2260 
2253 
2234 
2223 
2252 
2320 
2412 
2579 
2699 
2787 
2728 
2504 
2244 
2031 
2065 
2114 
2175 
2191 
2231 
2245 
2339 
2308 
2231 
2245 
2204 
2221 
2261 
2269 
2256 
2247 
2235 
2219 
2202 
2275 
2282 
2297 
2244 
2205 
2211 
2252 
2241 
2230 
2224 
2267 
2288 
2281 
2269 
2276 
2290 
2268 
2256 
2271 
2284 
2257 
2291 
2315 
2317 
2298 
2311 
2306 
2343 
2383 
2384 
2391 
2409 
2409 
2414 
2414 
2421 
2432 
2431 
2456 
2361 
2342 
2369 
2358 
2316 
2329 
2280 
2242 
2229 
2233 
2241 
2197 
2205 
2196 
2160 
2224 
2243 
2213 
2156 
2180 
2175 
2189 
2161 
2160 
2206 
2200 
2164 
2155 
2159 
2129 
2161 
2206 
2198 
2183 
2210 
2181 
2164 
2199 
2138 
2159 
2188 
2183 
2229 
2216 
2144 
2196 
2234 
2225 
2200 
2161 
2198 
2187 
2215 
2182 
2151 
2212 
2209 
2240 
2250 
2175 
2168 
2198 
2209 
2190 
2223 
2188 
2219 
2221 
2219 
2220 
2225 
2212 
2190 
2186 
2203 
2178 
2252 
2262 
2230 
2271 
2329 
2281 
2300 
2292 
2269 
2284 
2344 
2333 
2297 
2323 
2308 
2259 
2193 
2220 
2211 
2187 
2226 
2201 
2207 
2211 
2187 
2141 
2196 
2211 
2197 
2188 
2252 
2356 
2542 
2688 
2824 
2877 
2647 
2344 
2120 
2076 
2166 
2228 
2285 
2319 
2306 
2268 
2194 
2195 
2186 
2250 
2281 
2231 
2228 
2225 
2193 
2230 
2269 
2228 
2237 
2248 
2260 
2271 
2243 
2263 
2295 
2251 
2228 
2285 
2279 
2294 
2311 
2305 
2332 
2319 
2294 
2285 
2342 
2339 
2362 
2348 
2380 
2399 
2370 
2380 
2379 
2390 
2462 
2483 
2427 
2461 
2458 
2471 
2439 
2455 
2484 
2465 
2509 
2532 
2523 
2498 
2446 
2427 
2448 
2377 
2378 
2378 
2374 
2299 
2257 
2306 
2314 
2298 
2296 
2299 
2291 
2307 
2295 
2276 
2281 
2251 
2250 
2292 
2307 
2313 
2317 
2311 
2292 
2308 
2317 
2301 
2291 
2335 
2331 
2296 
2352 
2351 
2346 
2337 
2274 
2295 
2305 
2369 
2371 
2381 
2368 
2372 
2331 
2315 
2316 
2302 
2335 
2348 
2386 
2373 
2346 
2300 
2288 
2281 
2322 
2333 
2347 
2353 
2317 
2331 
2353 
2339 
2364 
2387 
2379 
2342 
2358 
2314 
2323 
2393 
2389 
2381 
2400 
2369 
2388 
2357 
2336 
2367 
2397 
2336 
2334 
2399 
2452 
2424 
2443 
2467 
2426 
2390 
2384 
2350 
2351 
2360 
2338 
2348 
2338 
2292 
2292 
2290 
2250 
2354 
2299 
2330 
2367 
2383 
2479 
2556 
2714 
2884 
2972 
2846 
2589 
2295 
2191 
2253 
2315 
2366 
2433 
2414 
2413 
2356 
2316 
2372 
2375 
2391 
2343 
2319 
2312 
2372 
2358 
2349 
2415 
2428 
2392 
2338 
2403 
2404 
2427 
2432 
2419 
2432 
2408 
2394 
2439 
2470 
2432 
2449 
2500 
2529 
2531 
2504 
2495 
2515 
2550 
2560 
2516 
2537 
2594 
2579 
2560 
2588 
2601 
2613 
2658 
2645 
2684 
2684 
2662 
2500 
2376 
2377 
2387 
2391 
2471 
2522 
2554 
2545 
2553 
2587 
2574 
2589 
2614 
2583 
2592 
2563 
2523 
2480 
2503 
2549 
2500 
2519 
2589 
2552 
2513 
2511 
2520 
2531 
2556 
2547 
2481 
2483 
2533 
2538 
2494 
2532 
2521 
2531 
2564 
2565 
2520 
2466 
2530 
2566 
2528 
2552 
2564 
2553 
2552 
2512 
2498 
2500 
2524 
2510 
2513 
2497 
2483 
2541 
2548 
2560 
2515 
2505 
2520 
2519 
2540 
2514 
2495 
2466 
2452 
2515 
2537 
2570 
2489 
2479 
2490 
2497 
2533 
2514 
2515 
2535 
2517 
2524 
2419 
2244 
2173 
2152 
2115 
2196 
2239 
2327 
2396 
2460 
2521 
2568 
2516 
2506 
2510 
2511 
2492 
2476 
2450 
2523 
2489 
2481 
2554 
2523 
2557 
2486 
2443 
2504 
2604 
2583 
2697 
2851 
2962 
2966 
2888 
2670 
2401 
2283 
2334 
2429 
2508 
2580 
2534 
2528 
2526 
2505 
2520 
2555 
2541 
2444 
2230 
2130 
2128 
2121 
2100 
2212 
2322 
2386 
2510 
2504 
2501 
2547 
2594 
2600 
2609 
2618 
2597 
2570 
2649 
2685 
2663 
2685 
2688 
2665 
2676 
2691 
2746 
2753 
2745 
2773 
2798 
2821 
2853 
2827 
2795 
2777 
2801 
2911 
2877 
2884 
2907 
2897 
2844 
2886 
2905 
2921 
2906 
2889 
2886 
2855 
2853 
2783 
2781 
2804 
2845 
2816 
2753 
2756 
2734 
2711 
2728 
2712 
2744 
2735 
2804 
2780 
2744 
2711 
2750 
2798 
2773 
2715 
2708 
2710 
2749 
2743 
2722 
2734 
2700 
2748 
2777 
2782 
2753 
2763 
2769 
2738 
2759 
2808 
2791 
2794 
2727 
2741 
2746 
2750 
2776 
2721 
2725 
2770 
2711 
2741 
2767 
2747 
2793 
2798 
2751 
2735 
2738 
2741 
2736 
2694 
2719 
2778 
2741 
2737 
2750 
2747 
2746 
2740 
2789 
2794 
2805 
2837 
2853 
2828 
2818 
2784 
2778 
2754 
2652 
2655 
2693 
2713 
2691 
2664 
2653 
2673 
2628 
2637 
2669 
2661 
2679 
2610 
2590 
2626 
2709 
2736 
2834 
3023 
3114 
3091 
2964 
2701 
2514 
2417 
2460 
2546 
2598 
2618 
2635 
2633 
2625 
2604 
2592 
2581 
2574 
2626 
2644 
2593 
2565 
2603 
2617 
2604 
2601 
2554 
2547 
2558 
2562 
2519 
2562 
2583 
2576 
2585 
2525 
2582 
2591 
2585 
2557 
2554 
2502 
2589 
2617 
2592 
2604 
2598 
2592 
2620 
2622 
2637 
2603 
2616 
2675 
2650 
2690 
2726 
2668 
2681 
2686 
2650 
2700 
2735 
2727 
2696 
2653 
2629 
2675 
2658 
2613 
2591 
2584 
2555 
2519 
2482 
2470 
2518 
2483 
2434 
2442 
2412 
2405 
2449 
2459 
2468 
2445 
2442 
2432 
2415 
2468 
2462 
2471 
2511 
2508 
2474 
2455 
2468 
2465 
2467 
2447 
2489 
2497 
2498 
2455 
2464 
2491 
2400 
2434 
2534 
2534 
2521 
2505 
2471 
2503 
2530 
2517 
2504 
2522 
2482 
2492 
2467 
2425 
2451 
2462 
2468 
2451 
2477 
2470 
2474 
2468 
2437 
2440 
2461 
2465 
2491 
2531 
2540 
2537 
2530 
2514 
2513 
2515 
2542 
2569 
2530 
2539 
2594 
2587 
2557 
2583 
2624 
2628 
2577 
2507 
2507 
2538 
2553 
2538 
2511 
2490 
2538 
2543 
2528 
2552 
2545 
2494 
2496 
2514 
2537 
2602 
2649 
2760 
2930 
3087 
3147 
3063 
2864 
2619 
2455 
2541 
2592 
2666 
2713 
2700 
2679 
2678 
2651 
2608 
2626 
2654 
2635 
2618 
2621 
2623 
2617 
2644 
2718 
2766 
2735 
2713 
2695 
2711 
2682 
2717 
2740 
2717 
2757 
2772 
2778 
2766 
2781 
2780 
2763 
2824 
2871 
2890 
2855 
2886 
2885 
2926 
2914 
2946 
2948 
3023 
3014 
2995 
2979 
3025 
3097 
3097 
3072 
3073 
3075 
3068 
3090 
3146 
3110 
3078 
3082 
3089 
3055 
3044 
3061 
3049 
3041 
3006 
2976 
2982 
2942 
2919 
3004 
2984 
2985 
2982 
2955 
2973 
2971 
2966 
2944 
2971 
2960 
2981 
2984 
3028 
3041 
3004 
3026 
3070 
3056 
3047 
3034 
3088 
3096 
3055 
3066 
3052 
3063 
3067 
3062 
3020 
3074 
3085 
3071 
3026 
3100 
3112 
3090 
3088 
3084 
3088 
3069 
3056 
3039 
3053 
3045 
2992 
3024 
3059 
3121 
3104 
3076 
3057 
3014 
2986 
3104 
3089 
3110 
3103 
3062 
3084 
3112 
3062 
3060 
3058 
3072 
3082 
3063 
3098 
3143 
3153 
3089 
3145 
3191 
3161 
3171 
3152 
3164 
3183 
3164 
3224 
3193 
3170 
3172 
3166 
3088 
3067 
3035 
3030 
3095 
3083 
3077 
3121 
3118 
3120 
3081 
3108 
3129 
3123 
3074 
3075 
3148 
3283 
3418 
3591 
3706 
3645 
3464 
3219 
3027 
3033 
3063 
3144 
3161 
3224 
3175 
3163 
3173 
3184 
3186 
3170 
3144 
3167 
3129 
3125 
3186 
3229 
3234 
3248 
3198 
3178 
3152 
3161 
3195 
3233 
3235 
3219 
3273 
3287 
3260 
3234 
3255 
3238 
3223 
3243 
3263 
3279 
3293 
3314 
3299 
3279 
3341 
3334 
3332 
3306 
3314 
3375 
3403 
3388 
3423 
3505 
3458 
3397 
3397 
3476 
3489 
3446 
3474 
3452 
3464 
3444 
3407 
3397 
3385 
3386 
3337 
3319 
3305 
3311 
3295 
3258 
3214 
3156 
3234 
3283 
3277 
3260 
3220 
3267 
3265 
3230 
3253 
3237 
3250 
3282 
3260 
3260 
3255 
3205 
3238 
3241 
3211 
3264 
3267 
3208 
3232 
3284 
3246 
3235 
3258 
3297 
3248 
3246 
3284 
3229 
3188 
3209 
3238 
3278 
3276 
3240 
3196 
3217 
3215 
3227 
3250 
3247 
3202 
3215 
3205 
3169 
3188 
3221 
3265 
3226 
3248 
3277 
3273 
3295 
3291 
3258 
3249 
3246 
3276 
3256 
3253 
3244 
3228 
3259 
3310 
3296 
3300 
3266 
3301 
3280 
3251 
3305 
3331 
3291 
3321 
3340 
3322 
3357 
3355 
3339 
3323 
3372 
3405 
3366 
3403 
3376 
3318 
3307 
3273 
3277 
3240 
3258 
3277 
3273 
3256 
3205 
3171 
3234 
3255 
3243 
3231 
3201 
3337 
3468 
3644 
3854 
3932 
3749 
3460 
3193 
3118 
3148 
3258 
3354 
3334 
3319 
3284 
3281 
3287 
3274 
3262 
3260 
3294 
3255 
3270 
3225 
3225 
3239 
3261 
3331 
3311 
3254 
3260 
3263 
3287 
3339 
3308 
3315 
3308 
3336 
3337 
3327 
3358 
3333 
3304 
3267 
3284 
3344 
3379 
3347 
3364 
3367 
3335 
3350 
3362 
3444 
3431 
3343 
3340 
3393 
3404 
3434 
3468 
3491 
3479 
3416 
3425 
3499 
3536 
3530 
3518 
3511 
3467 
3454 
3428 
3407 
3440 
3405 
3370 
3287 
3325 
3360 
3313 
3334 
3356 
3347 
3291 
3246 
3268 
3305 
3271 
3296 
3364 
3356 
3333 
3294 
3297 
3338 
3288 
3293 
3330 
3294 
3317 
3304 
3262 
3309 
3279 
3291 
3348 
3364 
3346 
3285 
3256 
3324 
3387 
3324 
3169 
3152 
3101 
3138 
3190 
3182 
3224 
3254 
3283 
3269 
3301 
3343 
3303 
3285 
3284 
3327 
3316 
3295 
3293 
3324 
3309 
3294 
3329 
3397 
3350 
3314 
3339 
3284 
3297 
3309 
3310 
3316 
3306 
3311 
3389 
3380 
3355 
3340 
3332 
3347 
3338 
3322 
3384 
3392 
3433 
3405 
3374 
3395 
3340 
3325 
3310 
3306 
3363 
3300 
3241 
3252 
3243 
3246 
3296 
3282 
3296 
3279 
3264 
3237 
3260 
3325 
3329 
3439 
3538 
3648 
3732 
3700 
3484 
3263 
3049 
3030 
3127 
3237 
3274 
3246 
3298 
3291 
3284 
3306 
3302 
3259 
3241 
3254 
3324 
3318 
3326 
3352 
3327 
3366 
3341 
3319 
3323 
3337 
3305 
3312 
3304 
3297 
3385 
3403 
3381 
3372 
3371 
3347 
3373 
3357 
3319 
3369 
3382 
3424 
3456 
3448 
3413 
3413 
3404 
3435 
3436 
3485 
3510 
3496 
3517 
3539 
3587 
3568 
3552 
3535 
3581 
3572 
3580 
3563 
3554 
3559 
3536 
3493 
3500 
3474 
3430 
3455 
3451 
3412 
3426 
3398 
3409 
3395 
3415 
3400 
3449 
3437 
3452 
3437 
3384 
3402 
3393 
3418 
3413 
3410 
3449 
3435 
3468 
3449 
3446 
3464 
3464 
3456 
3475 
3450 
3440 
3494 
3478 
3469 
3462 
3468 
3505 
3440 
3418 
3446 
3520 
3516 
3501 
3441 
3417 
3412 
3464 
3503 
3520 
3472 
3453 
3474 
3458 
3477 
3468 
3472 
3485 
3479 
3474 
3467 
3418 
3423 
3456 
3482 
3471 
3498 
3458 
3455 
3471 
3503 
3469 
3392 
3447 
3526 
3505 
3497 
3512 
3518 
3529 
3539 
3515 
3508 
3520 
3509 
3499 
3498 
3557 
3566 
3563 
3588 
3616 
3613 
3578 
3523 
3497 
3511 
3473 
3457 
3491 
3477 
3474 
3517 
3515 
3495 
3502 
3510 
3498 
3517 
3546 
3550 
3601 
3759 
3975 
4089 
4135 
3971 
3658 
3464 
3392 
3447 
3486 
3575 
3649 
3642 
3599 
3566 
3510 
3503 
3503 
3544 
3535 
3539 
3566 
3606 
3586 
3572 
3563 
3564 
3570 
3562 
3574 
3578 
3570 
3558 
3581 
3623 
3625 
3618 
3630 
3635 
3639 
3574 
3609 
3657 
3656 
3664 
3640 
3603 
3661 
3698 
3695 
3716 
3716 
3707 
3694 
3770 
3783 
3743 
3746 
3795 
3778 
3768 
3834 
3849 
3841 
3842 
3784 
3774 
3832 
3838 
3803 
3762 
3755 
3737 
3691 
3697 
3666 
3649 
3646 
3633 
3629 
3620 
3650 
3616 
3635 
3624 
3625 
3605 
3594 
3626 
3635 
3594 
3610 
3672 
3631 
3621 
3632 
3635 
3633 
3593 
3632 
3615 
3619 
3665 
3670 
3667 
3653 
3602 
3588 
3662 
3666 
3653 
3648 
3624 
3668 
3659 
3668 
3658 
3656 
3679 
3662 
3624 
3619 
3608 
3629 
3691 
3686 
3657 
3619 
3585 
3663 
3708 
3656 
3598 
3695 
3695 
3684 
3671 
3720 
3688 
3664 
3649 
3634 
3657 
3665 
3637 
3601 
3640 
3689 
3649 
3649 
3694 
3754 
3712 
3629 
3717 
3752 
3717 
3741 
3760 
3734 
3749 
3742 
3748 
3762 
3773 
3760 
3771 
3813 
3807 
3805 
3743 
3709 
3702 
3701 
3719 
3687 
3633 
3692 
3677 
3659 
3659 
3696 
3690 
3674 
3674 
3723 
3706 
3820 
4018 
4206 
4354 
4303 
4104 
3852 
3593 
3537 
3656 
3801 
3855 
3818 
3820 
3734 
3738 
3783 
3808 
3782 
3740 
3748 
3760 
3724 
3782 
3793 
3810 
3802 
3822 
3815 
3790 
3799 
3792 
3824 
3776 
3823 
3831 
3845 
3813 
3836 
3864 
3850 
3862 
3859 
3899 
3880 
3867 
3875 
3904 
3912 
3919 
3951 
3887 
3911 
3971 
4028 
4013 
4025 
4052 
4075 
4099 
4098 
4077 
4040 
4089 
4101 
4079 
4041 
4069 
4134 
4087 
4061 
4021 
3976 
3947 
3938 
3976 
3960 
3901 
3893 
3931 
3907 
3877 
3842 
3854 
3863 
3864 
3896 
3860 
3880 
3900 
3880 
3865 
3851 
3904 
3906 
3900 
3887 
3888 
3928 
3890 
3876 
3918 
3913 
3894 
3904 
3910 
3929 
3880 
3875 
3934 
3940 
3924 
3923 
3904 
3882 
3911 
3909 
3912 
3958 
3955 
3986 
3946 
3945 
3935 
3946 
3961 
3878 
3909 
3954 
3945 
3932 
3965 
3942 
3899 
3908 
3943 
3920 
3893 
3914 
3980 
3998 
3968 
3974 
3925 
3944 
3947 
3957 
3944 
3967 
3963 
3977 
3972 
4004 
4014 
3987 
3948 
3979 
3983 
4011 
4017 
3990 
4009 
3991 
4021 
4017 
4022 
4044 
4049 
4057 
4072 
4051 
4055 
4088 
4060 
4021 
4021 
4001 
4007 
4007 
3970 
3986 
3976 
3957 
3927 
3944 
3943 
3977 
4036 
4046 
4092 
4186 
4326 
4509 
4563 
4389 
4093 
3870 
3800 
3862 
3926 
3987 
4056 
4079 
4055 
4016 
4055 
4030 
4020 
4023 
4023 
4054 
4065 
4080 
4051 
4054 
4052 
4057 
4082 
4083 
4101 
4091 
4062 
4051 
4090 
4075 
4107 
4170 
4154 
4136 
4139 
4153 
4151 
4116 
4170 
4163 
4150 
4080 
3929 
3891 
3907 
3958 
3994 
4120 
4171 
4214 
4252 
4226 
4261 
4348 
4334 
4343 
4371 
4393 
4360 
4351 
4392 
4408 
4318 
4298 
4272 
4337 
4311 
4311 
4289 
4292 
4271 
4203 
4184 
4192 
4207 
4178 
4194 
4193 
4183 
4224 
4221 
4215 
4146 
4195 
4229 
4202 
4167 
4185 
4221 
4200 
4209 
4210 
4203 
4219 
4220 
4182 
4105 
3982 
3877 
3857 
3837 
3935 
3999 
4047 
4118 
4145 
4157 
4198 
4222 
4216 
4205 
4174 
4213 
4242 
4223 
4229 
4216 
4250 
4246 
4198 
4205 
4215 
4277 
4316 
4271 
4226 
4149 
4180 
4224 
4280 
4317 
4284 
4278 
4226 
4193 
4268 
4247 
4238 
4250 
4315 
4315 
4267 
4248 
4273 
4261 
4290 
4323 
4313 
4362 
4365 
4352 
4323 
4287 
4302 
4296 
4242 
4228 
4214 
4256 
4272 
4239 
4275 
4230 
4220 
4213 
4209 
4209 
4197 
4255 
4283 
4325 
4449 
4573 
4716 
4737 
4579 
4333 
4085 
3987 
3974 
4101 
4227 
4296 
4288 
4277 
4243 
4237 
4287 
4243 
4237 
4263 
4273 
4259 
4235 
4273 
4320 
4295 
4285 
4260 
4252 
4254 
4294 
4308 
4358 
4334 
4341 
4355 
4348 
4339 
4354 
4358 
4353 
4343 
4338 
4348 
4318 
4358 
4367 
4389 
4386 
4391 
4408 
4455 
4434 
4432 
4455 
4468 
4484 
4512 
4564 
4512 
4480 
4485 
4549 
4586 
4588 
4579 
4554 
4515 
4499 
4523 
4472 
4427 
4446 
4440 
4407 
4381 
4380 
4359 
4392 
4361 
4307 
4316 
4302 
4306 
4364 
4335 
4328 
4338 
4326 
4339 
4346 
4339 
4346 
4316 
4289 
4414 
4386 
4389 
4420 
4361 
4350 
4331 
4353 
4347 
4332 
4356 
4388 
4394 
4390 
4405 
4375 
4376 
4338 
4346 
4383 
4422 
4440 
4396 
4405 
4397 
4380 
4387 
4377 
4342 
4375 
4406 
4443 
4452 
4396 
4347 
4365 
4420 
4383 
4409 
4433 
4444 
4413 
4380 
4402 
4378 
4355 
4359 
4389 
4443 
4442 
4472 
4457 
4422 
4420 
4442 
4451 
4407 
4451 
4499 
4485 
4487 
4512 
4477 
4465 
4460 
4466 
4499 
4450 
4408 
4423 
4384 
4409 
4410 
4428 
4442 
4414 
4418 
4405 
4405 
4435 
4409 
4404 
4558 
4773 
4928 
5074 
5030 
4799 
4493 
4322 
4282 
4365 
4476 
4528 
4511 
4497 
4463 
4469 
4472 
4454 
4442 
4417 
4446 
4474 
4457 
4452 
4450 
4479 
4521 
4476 
4449 
4500 
4536 
4529 
4474 
4498 
4538 
4485 
4490 
4462 
4531 
4563 
4518 
4464 
4505 
4531 
4525 
4573 
4605 
4582 
4580 
4570 
4581 
4621 
4615 
4663 
4689 
4686 
4659 
4714 
4743 
4728 
4689 
4729 
4761 
4759 
4777 
4760 
4716 
4700 
4705 
4660 
4666 
4625 
4611 
4631 
4661 
4617 
4578 
4543 
4521 
4506 
4518 
4588 
4568 
4542 
4528 
4529 
4515 
4520 
4549 
4524 
4542 
4571 
4585 
4564 
4548 
4556 
4557 
4559 
4557 
4534 
4501 
4528 
4576 
4559 
4561 
4591 
4565 
4519 
4558 
4586 
4572 
4555 
4572 
4599 
4602 
4592 
4606 
4571 
4600 
4602 
4582 
4560 
4558 
4559 
4568 
4598 
4626 
4605 
4602 
4605 
4601 
4587 
4645 
4607 
4568 
4557 
4573 
4624 
4627 
4641 
4596 
4603 
4644 
4628 
4604 
4644 
4633 
4621 
4606 
4622 
4654 
4656 
4643 
4627 
4671 
4691 
4751 
4771 
4740 
4737 
4700 
4668 
4728 
4717 
4666 
4569 
4603 
4679 
4661 
4647 
4633 
4623 
4621 
4616 
4639 
4648 
4600 
4561 
4620 
4693 
4719 
4762 
4863 
5053 
5209 
5251 
5186 
4884 
4655 
4531 
4550 
4648 
4727 
4739 
4705 
4712 
4635 
4678 
4762 
4680 
4663 
4691 
4640 
4650 
4691 
4691 
4703 
4696 
4746 
4717 
4688 
4683 
4720 
4770 
4702 
4665 
4733 
4741 
4787 
4780 
4734 
4742 
4769 
4778 
4744 
4805 
4845 
4859 
4840 
4843 
4870 
4847 
4830 
4825 
4862 
4886 
4860 
4907 
4923 
4933 
5005 
4994 
4962 
4987 
4972 
4976 
4992 
4980 
5033 
4995 
4943 
4914 
4952 
4894 
4860 
4850 
4823 
4812 
4849 
4827 
4775 
4777 
4768 
4783 
4820 
4828 
4788 
4809 
4811 
4753 
4754 
4784 
4766 
4774 
4793 
4777 
4828 
4799 
4799 
4833 
4811 
4843 
4811 
4833 
4865 
4845 
4843 
4831 
4839 
4845 
4801 
4857 
4842 
4790 
4793 
4820 
4882 
4858 
4831 
4821 
4859 
4841 
4835 
4839 
4902 
4900 
4874 
4852 
4848 
4876 
4871 
4874 
4899 
4919 
4898 
4894 
4895 
4918 
4889 
4890 
4902 
4899 
4947 
4954 
4917 
4900 
4877 
4908 
4908 
4925 
4953 
4905 
4890 
4914 
4920 
4971 
4958 
4930 
4956 
4959 
4971 
4999 
5034 
5037 
5039 
4997 
4992 
4956 
4976 
4915 
4907 
4925 
4853 
4869 
4937 
4942 
4915 
4944 
4927 
4876 
4894 
4921 
4915 
4911 
4950 
5098 
5292 
5445 
5471 
5385 
5049 
4851 
4771 
4722 
4759 
4909 
5004 
5033 
4983 
4974 
4956 
4970 
4986 
4963 
4949 
4936 
4893 
4897 
4963 
4978 
4923 
4947 
4988 
4951 
4959 
4966 
4948 
5015 
5021 
5010 
4976 
4968 
4987 
5004 
5002 
4995 
5001 
4964 
4950 
4943 
4996 
5038 
5058 
5046 
5069 
5064 
5038 
5095 
5137 
5107 
5038 
5138 
5145 
5128 
5123 
5098 
5087 
5070 
5015 
5014 
5046 
5040 
5050 
5108 
5085 
5063 
5035 
5020 
5007 
5005 
5001 
4972 
4991 
5006 
4946 
4921 
5000 
4939 
4904 
4918 
4902 
4898 
4873 
4921 
4958 
4929 
4904 
4904 
4913 
4884 
4877 
4892 
4910 
4913 
4893 
4848 
4859 
4853 
4923 
4971 
4963 
4913 
4836 
4883 
4883 
4907 
4887 
4882 
4866 
4897 
4888 
4864 
4854 
4824 
4850 
4861 
4859 
4863 
4846 
4832 
4819 
4815 
4856 
4886 
4883 
4871 
4907 
4813 
4795 
4852 
4818 
4751 
4554 
4405 
4397 
4429 
4496 
4584 
4654 
4685 
4689 
4769 
4773 
4810 
4884 
4905 
4888 
4901 
4944 
4922 
4881 
4836 
4828 
4848 
4798 
4754 
4853 
4846 
4840 
4801 
4786 
4739 
4766 
4758 
4770 
4766 
4778 
4822 
4841 
4911 
5020 
5218 
5326 
5224 
5009 
4734 
4522 
4516 
4621 
4665 
4722 
4800 
4837 
4825 
4816 
4829 
4784 
4748 
4784 
4807 
4821 
4808 
4795 
4806 
4867 
4837 
4829 
4811 
4803 
4803 
4793 
4839 
4878 
4840 
4805 
4832 
4878 
4858 
4850 
4839 
4833 
4841 
4831 
4846 
4905 
4917 
4851 
4888 
4929 
4945 
4900 
4855 
4901 
4965 
4977 
4976 
5030 
5050 
5036 
5005 
4979 
4995 
5026 
5039 
4998 
5025 
5045 
5014 
5000 
4984 
4910 
4871 
4845 
4859 
4860 
4858 
4843 
4856 
4815 
4787 
4826 
4812 
4770 
4758 
4782 
4794 
4790 
4738 
4770 
4785 
4801 
4778 
4771 
4778 
4740 
4747 
4780 
4783 
4805 
4780 
4716 
4756 
4835 
4815 
4821 
4822 
4806 
4779 
4776 
4775 
4784 
4801 
4764 
4768 
4743 
4799 
4823 
4807 
4810 
4785 
4772 
4767 
4730 
4763 
4793 
4763 
4706 
4760 
4828 
4813 
4738 
4772 
4782 
4774 
4809 
4793 
4808 
4778 
4802 
4784 
4751 
4788 
4781 
4778 
4858 
4824 
4777 
4743 
4779 
4813 
4837 
4865 
4872 
4850 
4809 
4814 
4877 
4894 
4856 
4800 
4792 
4767 
4769 
4818 
4794 
4770 
4781 
4771 
4754 
4737 
4718 
4699 
4725 
4756 
4798 
4819 
4826 
4993 
5135 
5313 
5392 
5308 
5058 
4793 
4702 
4721 
4803 
4844 
4839 
4856 
4829 
4795 
4788 
4780 
4790 
4802 
4806 
4826 
4818 
4784 
4765 
4837 
4829 
4841 
4829 
4809 
4841 
4855 
4855 
4838 
4861 
4885 
4835 
4813 
4832 
4872 
4897 
4877 
4856 
4862 
4888 
4904 
4851 
4839 
4913 
4940 
4949 
4947 
4997 
4999 
4984 
5018 
5041 
5037 
5026 
5017 
5006 
5037 
5056 
5010 
5073 
5089 
5097 
5112 
5068 
5058 
5032 
4995 
4973 
5001 
4958 
4919 
4900 
4890 
4862 
4852 
4907 
4889 
4843 
4828 
4849 
4863 
4861 
4815 
4831 
4858 
4811 
4809 
4842 
4871 
4887 
4900 
4885 
4850 
4886 
4895 
4858 
4843 
4834 
4861 
4878 
4863 
4901 
4870 
4876 
4841 
4857 
4886 
4922 
4901 
4868 
4827 
4814 
4771 
4831 
4943 
4980 
4897 
4916 
4912 
4914 
4877 
4866 
4906 
4897 
4858 
4859 
4907 
4914 
4857 
4849 
4890 
4876 
4859 
4900 
4869 
4885 
4909 
4916 
4924 
4924 
4921 
4908 
4902 
4921 
4917 
4860 
4875 
4941 
4966 
4970 
4956 
4887 
4915 
4950 
4988 
4990 
5006 
4998 
5053 
5049 
5013 
5009 
4963 
4911 
4912 
4904 
4900 
4912 
4939 
4906 
4884 
4879 
4862 
4874 
4904 
4896 
4908 
4921 
4933 
5045 
5240 
5419 
5555 
5513 
5319 
5103 
4857 
4826 
4889 
4997 
5040 
5022 
5003 
4966 
4922 
4950 
4958 
4942 
4905 
4890 
4929 
4964 
4982 
4948 
4961 
4972 
4981 
4967 
4998 
5039 
5007 
4997 
4948 
4958 
4957 
4944 
5018 
5053 
5033 
5011 
4977 
4998 
5017 
5022 
5045 
5084 
5100 
5087 
5027 
5045 
5109 
5118 
5114 
5132 
5124 
5124 
5105 
5142 
5184 
5230 
5232 
5215 
5222 
5226 
5185 
5103 
5161 
5247 
5189 
5161 
5137 
5131 
5036 
5071 
5080 
5077 
5035 
4963 
4944 
4989 
5006 
5027 
5026 
4986 
4993 
5042 
4998 
4975 
4987 
5024 
4964 
4965 
4940 
5037 
5014 
4967 
4967 
4985 
5025 
5028 
5001 
4993 
5009 
5041 
5081 
5069 
5013 
5031 
5061 
5042 
5025 
5031 
5049 
5008 
5021 
5032 
5027 
5097 
5057 
5047 
5012 
4986 
4979 
4962 
5006 
5022 
5024 
5050 
5057 
5065 
5051 
5002 
5022 
5053 
5047 
5066 
5049 
5016 
5020 
5031 
5060 
5014 
4994 
5025 
5020 
5033 
5031 
5064 
5096 
5134 
5076 
5071 
5089 
5086 
5120 
5102 
5051 
5034 
5138 
5143 
5128 
5132 
5154 
5158 
5152 
5132 
5075 
5026 
5006 
5017 
5102 
5147 
5115 
5021 
5043 
5054 
5086 
5029 
5076 
5073 
5007 
5053 
5087 
5168 
5275 
5450 
5610 
5564 
5394 
5121 
4883 
4803 
4895 
5016 
5004 
5048 
5129 
5102 
5062 
5041 
4957 
4831 
4784 
4801 
4874 
4897 
4917 
4991 
5104 
5082 
5098 
5035 
5044 
5095 
5070 
5101 
5085 
5113 
5173 
5155 
5144 
5156 
5172 
5164 
5153 
5178 
5185 
5233 
5197 
5182 
5188 
5183 
5236 
5251 
5198 
5174 
5233 
5281 
5290 
5333 
5308 
5278 
5350 
5364 
5385 
5377 
5372 
5323 
5333 
5369 
5346 
5374 
5364 
5321 
5278 
5264 
5270 
5249 
5258 
5251 
5231 
5160 
5179 
5223 
5180 
5148 
5147 
5215 
5268 
5219 
5145 
5182 
5143 
5141 
5167 
5180 
5198 
5191 
5193 
5239 
5236 
5200 
5187 
5184 
5193 
5225 
5213 
5200 
5171 
5210 
5243 
5254 
5270 
5259 
5221 
5234 
5208 
5180 
5240 
5242 
5231 
5230 
5233 
5255 
5288 
5228 
5215 
5198 
5201 
5159 
5250 
5239 
5191 
5256 
5262 
5268 
5259 
5229 
5282 
5265 
5252 
5257 
5281 
5276 
5271 
5272 
5251 
5297 
5290 
5294 
5294 
5308 
5314 
5304 
5305 
5318 
5349 
5320 
5272 
5236 
5222 
5285 
5300 
5290 
5263 
5265 
5260 
5238 
5217 
5195 
5243 
5215 
5201 
5226 
5288 
5379 
5466 
5592 
5734 
5821 
5707 
5467 
5198 
5065 
5075 
5178 
5301 
5300 
5335 
5326 
5296 
5293 
5302 
5317 
5244 
5264 
5282 
5286 
5277 
5226 
5252 
5304 
5299 
5329 
5315 
5308 
5286 
5306 
5354 
5345 
5345 
5346 
5328 
5330 
5326 
5289 
5323 
5324 
5314 
5324 
5336 
5366 
5330 
5328 
5366 
5388 
5409 
5375 
5400 
5444 
5459 
5445 
5453 
5447 
5446 
5488 
5518 
5509 
5442 
5499 
5541 
5529 
5491 
5473 
5476 
5468 
5400 
5425 
5413 
5352 
5366 
5317 
5287 
5305 
5285 
5282 
5268 
5287 
5256 
5277 
5257 
5256 
5298 
5280 
5243 
5189 
5235 
5293 
5309 
5246 
5257 
5231 
5273 
5324 
5363 
5289 
5233 
5231 
5291 
5346 
5285 
5265 
5269 
5274 
5292 
5284 
5321 
5308 
5316 
5287 
5275 
5315 
5295 
5345 
5334 
5308 
5264 
5314 
5315 
5324 
5327 
5305 
5285 
5351 
5351 
5307 
5273 
5314 
5331 
5288 
5323 
5361 
5343 
5309 
5319 
5333 
5346 
5323 
5344 
5334 
5414 
5381 
5340 
5352 
5374 
5377 
5412 
5435 
5473 
5528 
5523 
5515 
5494 
5457 
5488 
5475 
5476 
5471 
5417 
5378 
5398 
5443 
5428 
5377 
5423 
5427 
5455 
5457 
5436 
5398 
5449 
5493 
5520 
5483 
5594 
5774 
5973 
6104 
6092 
5952 
5695 
5474 
5475 
5503 
5538 
5595 
5615 
5590 
5513 
5516 
5602 
5573 
5565 
5581 
5576 
5556 
5577 
5594 
5605 
5587 
5584 
5620 
5602 
5643 
5647 
5661 
5636 
5632 
5619 
5653 
5642 
5687 
5715 
5733 
5730 
5761 
5761 
5712 
5747 
5720 
5752 
5765 
5754 
5748 
5814 
5840 
5843 
5837 
5860 
5870 
5841 
5901 
5954 
5975 
6025 
6011 
6028 
6004 
6001 
5983 
5997 
6005 
5988 
5959 
5941 
5966 
5934 
5886 
5856 
5871 
5881 
5869 
5861 
5866 
5901 
5850 
5840 
5812 
5832 
5846 
5881 
5884 
5873 
5841 
5858 
5845 
5821 
5825 
5882 
5858 
5871 
5930 
5914 
5882 
5885 
5926 
5920 
5885 
5887 
5895 
5901 
5920 
5906 
5903 
5909 
5934 
5923 
5921 
5980 
5942 
5906 
5904 
5926 
5915 
5891 
5956 
5940 
5947 
5955 
5959 
5967 
5955 
5946 
5897 
5924 
5927 
5954 
5946 
5946 
5962 
5942 
5925 
5969 
5966 
5953 
6007 
6069 
6077 
5989 
5971 
5982 
5962 
5945 
5975 
6051 
6038 
6020 
6037 
6042 
6049 
6016 
6007 
6044 
6070 
6080 
6136 
6140 
6099 
6045 
6000 
5991 
6023 
6039 
5994 
5951 
6014 
5992 
5969 
5977 
5962 
6021 
6002 
5949 
5979 
6004 
6012 
6049 
6241 
6380 
6484 
6560 
6447 
6226 
5987 
5829 
5828 
5949 
6034 
6016 
6040 
6045 
5999 
5994 
5973 
5959 
5958 
5999 
6022 
6044 
6039 
6013 
5932 
5943 
6038 
6018 
6004 
5966 
5954 
5947 
5974 
6016 
6030 
6024 
5987 
5968 
5988 
6023 
5982 
5939 
6029 
6102 
6081 
6088 
6079 
5993 
6053 
6041 
6043 
6038 
5907 
5907 
5941 
5978 
6019 
6056 
6083 
6072 
6086 
6116 
6146 
6162 
6164 
6152 
6160 
6089 
6087 
6119 
6093 
6059 
6013 
5995 
6002 
5932 
5943 
5932 
5950 
5968 
5941 
5894 
5869 
5907 
5922 
5923 
5945 
5894 
5903 
5923 
5910 
5882 
5896 
5928 
5893 
5832 
5788 
5829 
5893 
5922 
5903 
5875 
5880 
5869 
5886 
5858 
5888 
5908 
5853 
5844 
5855 
5861 
5844 
5690 
5508 
5438 
5467 
5525 
5594 
5643 
5676 
5752 
5805 
5830 
5814 
5839 
5832 
5872 
5975 
5947 
5860 
5829 
5836 
5895 
5883 
5864 
5894 
5868 
5844 
5830 
5836 
5839 
5877 
5883 
5818 
5799 
5775 
5922 
5954 
5892 
5898 
5930 
5920 
5877 
5880 
5907 
5927 
5867 
5809 
5834 
5789 
5790 
5786 
5767 
5752 
5725 
5723 
5808 
5840 
5826 
5794 
5781 
5793 
5789 
5835 
5954 
6114 
6241 
6299 
6197 
5884 
5628 
5521 
5554 
5659 
5749 
5799 
5799 
5740 
5753 
5778 
5760 
5787 
5771 
5785 
5833 
5772 
5784 
5785 
5794 
5803 
5791 
5767 
5751 
5769 
5791 
5752 
5725 
5746 
5740 
5748 
5809 
5836 
5870 
5822 
5786 
5808 
5835 
5845 
5837 
5806 
5842 
5833 
5832 
5830 
5793 
5861 
5873 
5883 
5939 
5904 
5947 
5945 
5982 
5980 
5871 
5801 
5866 
5934 
5936 
5990 
6014 
5952 
5932 
5943 
5881 
5857 
5876 
5840 
5803 
5789 
5803 
5766 
5775 
5776 
5761 
5707 
5728 
5785 
5766 
5762 
5745 
5787 
5760 
5796 
5803 
5808 
5805 
5782 
5776 
5795 
5791 
5761 
5738 
5752 
5772 
5762 
5731 
5745 
5783 
5756 
5751 
5760 
5757 
5809 
5819 
5797 
5814 
5795 
5763 
5792 
5771 
5804 
5798 
5819 
5779 
5735 
5771 
5768 
5742 
5761 
5766 
5745 
5765 
5795 
5796 
5754 
5731 
5770 
5770 
5781 
5767 
5746 
5737 
5778 
5807 
5795 
5798 
5801 
5753 
5755 
5763 
5785 
5811 
5826 
5850 
5851 
5838 
5865 
5866 
5882 
5866 
5855 
5794 
5841 
5855 
5800 
5791 
5753 
5738 
5772 
5758 
5744 
5739 
5780 
5783 
5745 
5710 
5734 
5793 
5789 
5779 
5855 
6052 
6240 
6367 
6360 
6172 
5835 
5641 
5647 
5693 
5712 
5793 
5844 
5801 
5767 
5761 
5768 
5738 
5750 
5770 
5737 
5716 
5696 
5731 
5758 
5759 
5730 
5722 
5780 
5763 
5682 
5701 
5764 
5731 
5706 
5710 
5760 
5743 
5736 
5751 
5784 
5730 
5760 
5765 
5741 
5775 
5778 
5751 
5783 
5771 
5789 
5771 
5797 
5907 
5887 
5852 
5847 
5844 
5890 
5924 
5923 
5933 
5913 
5908 
5891 
5893 
5905 
5886 
5874 
5862 
5808 
5759 
5762 
5781 
5804 
5797 
5760 
5725 
5705 
5658 
5663 
5666 
5657 
5658 
5638 
5636 
5625 
5613 
5624 
5593 
5575 
5529 
5557 
5611 
5617 
5624 
5623 
5587 
5564 
5510 
5570 
5606 
5561 
5584 
5573 
5565 
5570 
5569 
5594 
5601 
5557 
5583 
5577 
5561 
5517 
5533 
5570 
5545 
5535 
5526 
5549 
5504 
5510 
5510 
5541 
5508 
5519 
5526 
5509 
5507 
5503 
5518 
5521 
5523 
5533 
5494 
5431 
5441 
5467 
5462 
5516 
5492 
5444 
5444 
5504 
5506 
5496 
5493 
5459 
5417 
5489 
5530 
5531 
5528 
5520 
5563 
5531 
5532 
5548 
5551 
5545 
5523 
5497 
5424 
5405 
5457 
5468 
5430 
5406 
5395 
5437 
5399 
5371 
5373 
5392 
5339 
5390 
5428 
5473 
5606 
5741 
5900 
6051 
6019 
5776 
5434 
5292 
5322 
5392 
5396 
5504 
5518 
5481 
5437 
5417 
5400 
5392 
5429 
5401 
5391 
5440 
5395 
5364 
5366 
5378 
5398 
5406 
5445 
5441 
5398 
5395 
5401 
5413 
5390 
5389 
5392 
5420 
5443 
5454 
5458 
5451 
5427 
5448 
5485 
5420 
5428 
5485 
5468 
5455 
5477 
5493 
5557 
5582 
5519 
5508 
5545 
5556 
5583 
5555 
5574 
5589 
5644 
5605 
5633 
5623 
5615 
5579 
5546 
5577 
5543 
5494 
5495 
5481 
5458 
5482 
5454 
5416 
5458 
5463 
5444 
5423 
5382 
5395 
5403 
5428 
5450 
5433 
5377 
5374 
5371 
5357 
5451 
5429 
5382 
5409 
5419 
5390 
5410 
5435 
5437 
5400 
5365 
5402 
5435 
5473 
5455 
5415 
5422 
5406 
5366 
5412 
5426 
5432 
5431 
5401 
5398 
5465 
5460 
5433 
5294 
5295 
5267 
5265 
5305 
5356 
5331 
5353 
5411 
5388 
5377 
5348 
5353 
5415 
5435 
5449 
5444 
5438 
5465 
5423 
5420 
5405 
5430 
5412 
5396 
5404 
5441 
5404 
5417 
5522 
5547 
5500 
5471 
5488 
5573 
5518 
5470 
5478 
5419 
5376 
5332 
5394 
5435 
5382 
5371 
5371 
5397 
5410 
5407 
5409 
5359 
5349 
5365 
5392 
5448 
5555 
5681 
5836 
5918 
5855 
5591 
5331 
5149 
5127 
5254 
5346 
5350 
5400 
5420 
5371 
5351 
5429 
5434 
5390 
5403 
5386 
5391 
5372 
5350 
5335 
5351 
5367 
5427 
5437 
5464 
5451 
5417 
5448 
5433 
5401 
5409 
5445 
5456 
5441 
5428 
5422 
5423 
5445 
5492 
5446 
5467 
5516 
5517 
5543 
5583 
5539 
5511 
5580 
5569 
5567 
5605 
5593 
5613 
5605 
5605 
5630 
5662 
5682 
5688 
5663 
5652 
5670 
5659 
5596 
5520 
5601 
5665 
5613 
5558 
5537 
5482 
5483 
5489 
5471 
5473 
5510 
5444 
5414 
5455 
5474 
5449 
5397 
5454 
5489 
5429 
5412 
5457 
5435 
5422 
5418 
5425 
5461 
5465 
5435 
5445 
5459 
5440 
5420 
5450 
5436 
5464 
5475 
5450 
5464 
5467 
5462 
5404 
5443 
5496 
5501 
5469 
5488 
5489 
5462 
5462 
5466 
5454 
5479 
5453 
5406 
5493 
5494 
5449 
5458 
5511 
5452 
5440 
5473 
5464 
5504 
5536 
5502 
5481 
5497 
5513 
5528 
5570 
5574 
5571 
5581 
5575 
5561 
5596 
5568 
5603 
5642 
5639 
5639 
5657 
5716 
5698 
5656 
5653 
5691 
5663 
5570 
5530 
5561 
5586 
5543 
5540 
5596 
5631 
5641 
5597 
5595 
5576 
5522 
5504 
5543 
5611 
5650 
5809 
5977 
6135 
6244 
6085 
5804 
5577 
5488 
5502 
5561 
5599 
5632 
5636 
5596 
5600 
5607 
5601 
5581 
5564 
5531 
5533 
5584 
5572 
5543 
5506 
5531 
5546 
5583 
5611 
5578 
5526 
5542 
5537 
5571 
5580 
5605 
5602 
5637 
5588 
5561 
5610 
5577 
5490 
5563 
5595 
5589 
5595 
5601 
5600 
5629 
5652 
5674 
5678 
5683 
5669 
5655 
5646 
5722 
5754 
5758 
5732 
5707 
5687 
5684 
5714 
5748 
5732 
5709 
5670 
5644 
5660 
5642 
5531 
5518 
5552 
5530 
5507 
5509 
5510 
5483 
5430 
5442 
5446 
5429 
5435 
5428 
5419 
5411 
5430 
5409 
5390 
5381 
5350 
5334 
5392 
5392 
5363 
5369 
5375 
5348 
5333 
5364 
5332 
5319 
5365 
5339 
5329 
5357 
5337 
5367 
5306 
5290 
5277 
5283 
5329 
5326 
5297 
5258 
5228 
5220 
5271 
5301 
5249 
5242 
5290 
5262 
5222 
5215 
5177 
5183 
5207 
5206 
5187 
5193 
5167 
5141 
5174 
5149 
5179 
5170 
5162 
5147 
5189 
5181 
5188 
5173 
5152 
5196 
5213 
5165 
5129 
5192 
5210 
5192 
5202 
5196 
5232 
5228 
5258 
5236 
5208 
5194 
5141 
5118 
5096 
5124 
5109 
5091 
5067 
5074 
5071 
5064 
5055 
5046 
5035 
5017 
5045 
5098 
5121 
5180 
5288 
5519 
5740 
5755 
5569 
5256 
5024 
4936 
4947 
5047 
5154 
5178 
5149 
5110 
5068 
5056 
5079 
5090 
5091 
5062 
5040 
5089 
5130 
5108 
5120 
5102 
5059 
5079 
5119 
5126 
5102 
5110 
5078 
5062 
5124 
5137 
5141 
5145 
5186 
5187 
5210 
5199 
5215 
5218 
5269 
5303 
5265 
5232 
5267 
5311 
5283 
5313 
5359 
5385 
5404 
5396 
5392 
5399 
5412 
5495 
5541 
5530 
5529 
5524 
5531 
5544 
5538 
5509 
5542 
5559 
5556 
5510 
5487 
5520 
5528 
5505 
5492 
5495 
5501 
5460 
5464 
5514 
5557 
5543 
5546 
5551 
5608 
5556 
5563 
5618 
5643 
5620 
5590 
5582 
5545 
5578 
5627 
5652 
5693 
5670 
5658 
5691 
5699 
5720 
5747 
5729 
5755 
5780 
5751 
5743 
5778 
5766 
5796 
5772 
5820 
5843 
5845 
5859 
5862 
5848 
5821 
5860 
5890 
5852 
5858 
5858 
5911 
5891 
5889 
5891 
5906 
5919 
5953 
5960 
5929 
6001 
6009 
6015 
5999 
6014 
6051 
6051 
6029 
6054 
6076 
6053 
6063 
6029 
6060 
6104 
6138 
6147 
6158 
6147 
6127 
6147 
6094 
6094 
6046 
6039 
6075 
6094 
6085 
6075 
6092 
6097 
6104 
6083 
6067 
6076 
6132 
6210 
6287 
6394 
6546 
6695 
6649 
6454 
6101 
5907 
5875 
5972 
6063 
6129 
6214 
6197 
6200 
6161 
6150 
6134 
6141 
6156 
6130 
6150 
6226 
6225 
6201 
6228 
6214 
6221 
6159 
6169 
6206 
6232 
6230 
6186 
6181 
6201 
6193 
6215 
6237 
6230 
6241 
6220 
6246 
6300 
6268 
6215 
6204 
6257 
6268 
6273 
6286 
6296 
6307 
6315 
6320 
6397 
6395 
6371 
6380 
6384 
6400 
6393 
6422 
6483 
6436 
6333 
6329 
6407 
6396 
6403 
6404 
6349 
6289 
6310 
6329 
6335 
6287 
6252 
6251 
6234 
6235 
6189 
6225 
6223 
6215 
6189 
6149 
6186 
6213 
6222 
6265 
6264 
6271 
6255 
6257 
6260 
6277 
6276 
6304 
6303 
6296 
6277 
6229 
6236 
6286 
6276 
6281 
6256 
6199 
6225 
6255 
6234 
6247 
6240 
6202 
6202 
6227 
6192 
6175 
6179 
6226 
6257 
6177 
6199 
6188 
6162 
6129 
6145 
6122 
6173 
6218 
6181 
6118 
6103 
6132 
6150 
6169 
6137 
6140 
6167 
6145 
6144 
6139 
6175 
6154 
6155 
6154 
6129 
6122 
6140 
6153 
6076 
6004 
6031 
6048 
6055 
6020 
5984 
5982 
6031 
6052 
6023 
5974 
5971 
5934 
5968 
5956 
5993 
6067 
6187 
6367 
6532 
6555 
6358 
6101 
5876 
5794 
5850 
5904 
5956 
6007 
5986 
5995 
5955 
5956 
5933 
5931 
5885 
5908 
5929 
5922 
5914 
5921 
5929 
5960 
5954 
5918 
5904 
5941 
5923 
5921 
5896 
5898 
5962 
5956 
5940 
5931 
5930 
5914 
5964 
5975 
5928 
5983 
5994 
5964 
5969 
5965 
5999 
5964 
5987 
6005 
6022 
6056 
6073 
6061 
6096 
6046 
6012 
6057 
6106 
6104 
6065 
6074 
6094 
6052 
5993 
6007 
6063 
6065 
6046 
5994 
5973 
5944 
5880 
5814 
5818 
5856 
5901 
5904 
5838 
5835 
5816 
5792 
5792 
5788 
5839 
5849 
5814 
5802 
5814 
5816 
5822 
5851 
5850 
5806 
5758 
5773 
5837 
5804 
5772 
5788 
5806 
5779 
5781 
5757 
5768 
5823 
5847 
5794 
5827 
5850 
5786 
5778 
5784 
5754 
5749 
5750 
5767 
5816 
5785 
5748 
5776 
5786 
5763 
5771 
5821 
5781 
5725 
5713 
5743 
5715 
5740 
5815 
5805 
5778 
5785 
5763 
5740 
5741 
5782 
5824 
5846 
5852 
5857 
5870 
5849 
5876 
5883 
5856 
5818 
5769 
5771 
5770 
5759 
5722 
5705 
5738 
5711 
5684 
5691 
5705 
5718 
5687 
5658 
5659 
5628 
5689 
5703 
5812 
5952 
6142 
6263 
6230 
6104 
5808 
5613 
5604 
5608 
5669 
5711 
5743 
5716 
5704 
5649 
5604 
5586 
5585 
5619 
5612 
5565 
5582 
5582 
5598 
5597 
5598 
5587 
5566 
5555 
5580 
5590 
5573 
5601 
5525 
5552 
5595 
5598 
5616 
5616 
5596 
5550 
5564 
5542 
5562 
5605 
5592 
5581 
5598 
5567 
5626 
5645 
