77755.92985819935,77776.64992530942,77783.53426260165,77806.2659867127,77825.19791426635,77824.48265844377,77776.69462879833,77752.24182036422,77742.87643943744,77772.20192816282,77770.81612000658,77728.12428809695,77716.90371238039,77701.12338079493,77709.10295356548,77679.19631948428,77614.39861230835,77612.18578960726,77608.25188258314,77585.49780672762,77570.07510305347,77538.4473846492,77503.01986968754,77483.12681712232,77455.45535748666,77390.54589158844,77359.43226330665,77336.56642872888,77289.18073048363,77264.6832185606,77271.12052096374,77245.4830700735,77201.33837477426,77206.43457251007,77208.71445044452,77160.03235102085,77123.97898721445,77096.21812060096,77046.75371012137,77059.00246608288,77052.63221891312,77032.22507622541,76986.58281404768,76974.60227901963,76986.35929660313,76981.84424422315,77004.28539565628,77013.53901786078,77029.96755003544,77053.2357160134,77047.82659385522,77033.76734659282,76994.31651762921,76976.77039823179,77001.29026189927,77044.07150078673,77058.55543119376,77032.1803727365,77011.39325039307,77030.45928841345,77048.60890491116,77041.27753272981,77069.2395650434,77119.93332146804,77176.48323493997,77191.19068279155,77190.1177990577,77173.15282501612,77172.77284536039,77177.91374658511,77214.01181388042,77260.54814583638,77281.31291643536,77270.22645118552,77269.51119536295,77284.46451240356,77372.41862683519,77402.45937138313,77412.76352557701,77418.59733087986,77422.95592104863,77447.16286029374,77495.8896632063,77570.90211759832,77595.84666441043,77608.49775177214,77651.45780461525,77682.52672940811,77671.70848509175,77661.47138613122,77657.55983085155,77651.10017670396,77684.29251722009,77743.1446603709,77778.52747184366,77785.72473355827,77769.34090487253,77778.5051200992,77794.35250691802,77792.43025689486,77779.33213464405,77792.8102365506,77795.47009414078,77799.47105639828,77785.72473355827,77772.42544560737,77740.23893359173,77733.62281723294,77751.5042127972,77779.22037592178,77832.3728242365,77880.96551668234,77878.81974921463,77868.73911246528,77835.70323416033,77817.44185894035,77816.1678095064,77804.14257098944,77826.38255672247,77848.06374884413,77848.44372849986,77845.38153950949,77855.05984485864,77855.81980417011,77860.93835365037,77850.94712387885,77821.53222817567,77771.08434094004,77710.66757567735,77707.56068319805,77750.2972185966,77768.62564904997,77787.9599080038,77841.06765282962,77882.9771736833,77851.50591749024,77849.91894363391,77896.81290350115,77936.24138072031,77989.28207031275,78012.23731186835,78071.76000735283,78110.02619386032,78062.84166131516,78005.75530597632,77957.96727633086,77941.00230228929,77926.02663350424,77956.46970945236,77956.62617166355,77967.66793342447,78017.2664543708,78052.04576874325,78072.38585619758,78065.90385030555,78093.66471691904,78098.9844320994,78057.03020775679,78088.0320773163,78149.27585712384,78161.61402006316,78180.9035755281,78171.96287774597,78151.71219726947,78140.75984248637,78098.47034197692,78069.32366720721,78066.48499566138,78077.57146091122,78058.86305080212,78047.44130938547,78038.1206319476,78013.39960258003,77965.41040723448,77941.56109590067,77895.42709534492,77874.19293811238,77882.46308356084,77886.77697024071,77891.76140925425,77877.65745850294,77854.0763681026,77790.95504176081,77734.80745968908,77682.72789510821,77663.81831929903,77635.0739759295,77651.14488019286,77665.96408676673,77636.19156315227,77587.71062942871,77580.02162933609,77553.93714355673,77503.82453248794,77505.70207902219,77528.21028568868,77537.93329452674,77539.76613757208,77537.3968526598,77539.22969570514,77518.66609080626,77506.41733484475,77478.9917443981,77465.46893900263,77508.13841916781,77508.76426801256,77507.78079125653,77498.66127951877,77495.15205563928,77501.27643362003,77504.36097435486,77540.66020735029,77530.53486711203,77519.62721581785,77552.41722493377,77570.36567573139,77594.10322834292,77586.59304220595,77584.73784741615,77578.6134694354,77589.07408584048,77576.9147368568,77583.95553636021,77644.3723016229,77683.39844744187,77645.28872314558,77627.36262409242,77680.09038926249,77714.80264840159,77679.9339270513,77701.72687789523,77739.03193939113,77764.13294841444,77781.2543846672,77768.73740777223,77784.3612771465,77783.57896609056,77771.41961710688,77768.37977986096,77723.63158746142,77760.5566693016,77817.84419034055,77843.48164123078,77896.07529593412,77933.8944475525,77969.41136949198,77986.93513714494,77982.86711965408,77972.58531720463,77989.5055877573,78006.87289319908,77985.59403247763,78019.90396021653,78087.69680114948,78134.12137438315,78184.88218604114,78222.67898591507,78237.7217099335,78265.5272800359,78306.6321380892,78349.72630139903,78379.81174943587,78440.92141877669,78480.66282041822,78510.18947484369,78547.0922049394,78559.87740276783,78566.33705691542,78570.71799882865,78588.42058043726,78615.73441216165,78606.43608646824,78612.4040022378,78597.74125787512,78600.6469846543,78588.42058043726,78576.64121110931,78584.24080422411,78575.9483070312,78593.62853689534,78590.29812697151,78549.1932689182,78559.29625741199,78546.2428386501,78527.80264947447,78485.04376233146,78442.28487518846,78412.512351574,78436.1157937188,78477.28770700547,78461.79794809794,78401.13531364624,78320.80314407387,78274.19975688455,78231.0608900858,78150.72872051343,78071.96117305293,78030.14105917705,77991.24902382481,77929.31233993916,77873.65649624544,77843.10166157504,77774.77237877517,77673.3848659259,77600.92051040179,77535.42989914774,77458.02580809902,77387.34959213133,77282.22933795802,77168.48131042496,77115.17239989906,77119.53099006784,77148.70001658202,77185.02160132189,77233.86016295674,77294.81337008635,77362.42739706367,77480.4446077877,77542.62716086235,77578.34524850194,77607.60368199393,77606.88842617135,77632.41411833932,77662.11958672042,77685.85713933196,77706.4877994642,77669.87564204642,77629.59779853796,77634.8728102294,77600.89815865734,77566.56587917398,77552.03724527803,77526.15392519879,77560.39679770432,77642.31594113303,77655.95050525076,77675.19535722678,77684.62779338691,77687.6899823773,77673.11664499243,77708.11947680944,77707.58303494252,77674.077770004,77601.63576622437,77543.4541754072,77517.9508349837,77480.4893112766,77441.55257243545,77380.75582751702,77326.53049546844,77290.23126247303,77222.57253200682,77169.88947032565,77144.11790896868,77075.31923953525,77031.57687563621,77012.37672714911,76964.94632541495,76926.16604878499,76875.53934759372,76819.32471028861,76771.29081145416,76715.94789218281,76668.47278695974,76617.24258866819,76562.43611126377,76534.42937546127,76513.68695660675,76505.77443906957,76506.69086059224,76485.2555376596,76476.78422651104,76417.8873798713,76385.14207424427,76341.64557953425,76299.28902379144,76273.29394498991,76260.70991286158,76280.20063402661,76287.68846841913,76281.49703520501,76274.92562233515,76293.23170104405,76322.71365198061,76340.013902189,76381.2752224535,76432.14779283378,76500.27590993357,76504.8580175469,76511.87646530586,76504.50038963562,76503.8521890464,76530.78604111506,76551.2155355472,76590.9792889332,76640.66721685734,76655.82169959805,76689.57283372556,76780.45502668084,76842.48111754432,76887.11755122156,76944.40507226052,76988.63917453756,77027.50885814535,76992.28250888379,76968.00851440532,76963.85108993662,76991.50019782785,76997.35635487514,76976.83745346517,76982.89477621255,76981.88894771207,76979.29614535524,77005.33592764568,77034.59436113767,77065.48447197491,77109.8526847187,77119.57569355675,77156.70194109702,77174.67274363908,77175.20918550601,77196.06336308281,77218.14688660466,77277.02138149994,77279.25655594547,77227.40050880915,77232.51905828941,77247.71824451903,77211.48606675697,77184.55221468833,77219.59974999426,77223.84658144077,77200.0196218514,77182.89818559863,77133.50083035241,77113.47366732046,77125.9012372376,77101.80605671479,77064.32218126324,77031.84509656967,77019.99867200835,77017.76349756283,76966.84622369365,76906.18358924193,76862.41887359845,76846.50443154627,76790.379201219,76761.41134040491,76753.05178797863,76757.90211652544,76775.76116034522,76767.4686631523,76692.21033957128,76655.4417199423,76634.34167317649,76566.70529445473,76500.14179946683,76473.16324390928,76431.9913306226,76380.02352476401,76338.04694867694,76275.52911943545,76219.58270306382,76191.75478121697,76149.68879815207,76098.36919288269,76098.07862020476,76094.59174806974,76138.33411196877,76148.72767314049,76168.08428383879,76189.56431026034,76207.44570582459,76182.14353110117,76152.48276620898,76154.27090576541,76185.42923753611,76192.85001669527,76171.23587980699,76139.83167884727,76111.95905351151,76104.3594603967,76111.24379768895,76100.22438767248,76117.88226579217,76137.50709742394,76154.62853367669,76167.65960069414,76186.74799045897,76220.29795888638,76232.36790089225,76278.18897702562,76320.07614613487,76334.80594573093,76332.36960558529,76303.64761396023,76284.60392768431,76258.58649713833,76277.76429388097,76317.52804726697,76318.19859960063,76285.58740444033,76271.39404671121,76250.42811041213,76218.30865362987,76243.65553184217,76243.00733125297,76220.96851122004,76178.45549326605,76166.20673730454,76140.0775480363,76070.49656754691,76020.07103205574,75996.66875561104,76012.49379068539,75992.31016544225,75971.0313047208,75982.29658392628,75947.49491780937,75873.66710587348,75822.63807328201,75809.04821265319,75806.45541029637,75778.58278496061,75704.28558639117,75652.47424274376,75603.83684680902,75575.3383726285,75587.49772161219,75577.41708486284,75529.13731683938,75482.0198395276,75458.39404563833,75482.7127436057,75498.06839204651,75519.03432834559,75532.33361629648,75507.18790378427,75507.50082820664,75548.24805834866,75552.36077932845,75512.59702594245,75533.69707270827,75555.62413401892,75555.80294797456,75591.83396003651,75624.86983834146,75677.21762385579,75737.50027865176,75768.636258678,75799.07933462612,75819.77704999174,75813.27269235524,75797.64882298099,75848.63315208354,75906.54652196723,75968.930240742,75957.01676094733,75901.60678644261,75880.75260886582,75885.89351009054,75931.69223447946,75959.0284179483,75949.86420272163,75972.64063032158,76006.9952615494,76014.10311628618,76007.6881656275,76017.65704365457,76058.69484647452,76090.52373057888,76116.20588495802,76114.97653901298,76134.60137064474,76141.95509457053,76138.75879511342,76152.92980109809,76186.30095556987,76204.89760695669,76232.09967995879,76266.00727629749,76298.88669239124,76316.1645908552,76322.44543104713,76334.761242242,76360.37634138779,76388.69600161267,76421.01662409505,76446.47526102964,76495.64909883132,76558.05516935053,76588.65470750985,76611.20761766525,76619.45541136926,76620.79651603657,76638.54380113409,76683.26964178916,76721.26760736319,76720.23942711824,76704.45909553279,76732.73405226876,76737.85260174902,76772.7213230993,76847.13028039102,76858.95435320787,76831.37230055002,76865.65987654447,76927.59656043012,76952.27288630878,76956.3632555441,76993.55655831774,77086.22689082944,77135.84776352021,77191.12362755819,77198.63381369518,77191.28008976938,77199.59493870675,77235.02245366841,77268.77358779593,77314.48290520703,77347.89876316772,77368.48471981105,77380.57701356137,77367.36713258829,77396.55851084692,77496.76138124007,77551.92548655576,77572.556146688,77580.5133677141,77628.63667352637,77625.66389151382,77646.0263307126,77718.80361065909,77745.15631737189,77765.04936993711,77815.65371938393,77841.96172260783,77850.09775758955,77846.23090579879,77858.6808274604,77898.01989770173,77882.2842696052,77840.75472840724,77819.5205711747,77802.35443143302,77794.30780342911,77786.55174810311,77786.10471321401,77804.41079192291,77802.86852155549,77759.39437858992,77715.31673852405,77672.3790374254,77640.3713393654,77601.32284180199,77554.63004763486,77505.83618948891,77487.28424159101,77470.05104661598,77419.91608380272,77397.78785679195,77398.25724342553,77332.94544612711,77226.84171519778,77135.22191467547,77039.66820712903,76968.41084580551,76919.72874638185,76887.5422343662,76842.12348963303,76797.55411118915,76760.0702357376,76754.28113392367,76743.35113088503,76748.33556989855,76766.26166895172,76853.88050721651,76915.23604574634,76967.60618300512,77033.8344018262,77034.79552683777,77024.84900055516,76980.12315990009,76933.18449654395,76893.97953676934,76915.12428702407,76944.00274086032,76939.75590941381,76935.15145005602,76904.82013283017,76878.57918483963,76869.21380391286,76891.63260360154,76915.68308063544,76914.23021724584,76952.33994154214,76961.83943293565,76930.12230755357,76915.79483935772,76951.1105955971,77027.03947151179,77089.4902455199,77097.11219037916,77078.89551864809,77044.13855602009,77027.19593372296,77003.45838111143,76983.94530820195,76908.30700496519,76835.26150408525,76773.50363415523,76770.70966609832,76765.14408172895,76720.55235154061,76654.03356004161,76610.51471358714,76536.68690165125,76473.2526508871,76374.86027179484,76308.65440471821,76247.9023632887,76202.77419123343,76144.972580072,76118.23989370346,76097.85510276021,76057.48785227393,75974.04879022227,75902.00911784281,75833.4563175984,75810.54577953169,75777.50990122675,75765.57406968762,75749.5255171687,75717.33900515306,75691.43333332936,75720.13297320998,75738.46140366333,75707.86186550402,75700.10581017802,75724.31274942312,75717.83074353109,75715.10383070754,75722.43520288888,75704.10677243552,75687.78999898315,75679.1622256234,75703.90560673542,75733.76753732772,75707.68305154837,75683.07378090308,75696.35071710953,75697.78122875467,75708.44301085986,75768.16687204443,75831.8022885087,75837.0996519446,75846.35327414909,75901.94206260945,75944.05274916324,75950.84767947767,75980.19551994748,76048.30128530279,76113.83660004576,76149.42057721861,76193.58762426229,76232.77023229245,76281.07235206036,76335.43179457568,76385.56675738892,76410.10897280085,76450.36446456486,76502.39932565682,76521.48771542165,76533.53530568306,76574.93073641429,76664.15890027987,76736.95853197081,76813.44620149687,76869.12439693503,76909.93868231043,76947.64607520653,77024.35726217715,77111.03732717482,77171.43174069306,77209.58616847827,77223.62306399622,77260.70460804757,77301.13891376721,77315.13110579623,77325.03292858994,77345.66358872218,77373.60326929131,77379.30296412742,77399.8665690263,77426.62160713931,77394.34568814584,77406.46033364061,77437.41749971123,77450.69443591767,77417.88207505728,77392.62460382278,77382.83453975136,77375.1678914032,77338.13105084075,77327.29045477993,77338.89101015223,77387.23783340906,77393.02693522298,77338.3545682853,77321.30018726591,77353.44199579263,77355.20778360461,77307.50916093697,77241.50445956046,77195.28105202688,77199.14790381765,77176.01384830641,77115.06064117678,77064.3892364966,77031.46511691394,77043.40094845307,77044.18325950901,77016.71296557343,76958.53137475626,76903.94841479641,76894.94066178091,76887.51988262175,76898.47223740486,76905.96007179738,76989.04150593776,77054.10743404715,77053.01219856885,77071.36298076666,77102.40955381507,77093.15593161058,77105.13646663862,77118.32399586726,77132.02561521836,77126.61649306018,77077.68852444751,77090.25020483139,77082.69531520549,77090.16079785358,77086.31629780725,77102.52131253736,77139.24522867742,77182.18292977607,77202.94770037505,77229.05453789885,77245.90775321815,77271.03111398591,77297.00384104298,77366.07073140988,77391.12703694428,77360.2592778515,77363.8579087088,77412.13767673227,77436.41167121074,77419.67021461371,77380.15233041672,77410.5730546204,77446.76052889354,77450.04623532847,77463.79255816848,77439.69737764566,77401.78881904946,77376.62075479279,77379.05709493841,77393.92100500119,77456.14826156477,77477.91886066424,77493.98976492761,77529.70785256718,77537.79918406,77521.52711409653,77527.76325079957,77552.41722493377,77601.3675452909,77594.90789114332,77587.50946372861,77587.4647602397,77594.81848416549,77622.46759205671,77649.71436854772,77645.31107489004,77678.86104331745,77687.15354051036,77652.30717090455,77649.24498191416,77668.31101993454,77657.31396166253,77620.25476935563,77586.43657999476,77620.0759554,77656.17402269531,77642.00301671065,77631.83297298348,77635.78923175207,77650.20610692575,77674.6365636154,77654.2294209277,77622.93697869027,77625.86505721392,77634.8728102294,77629.59779853796,77630.82714448299,77641.64538879936,77677.09525550548,77680.40331368486,77679.24102297319,77689.32165972253,77665.1817757108,77630.13424040488,77585.00606834961,77578.79228339104,77563.41428320578,77546.96339928669,77511.55823606947,77442.51369744704,77386.52257758648,77367.54594654393,77330.46440249258,77289.98539328402,77240.20805838205,77217.49868601546,77178.62900240767,77133.09849895221,77081.62243147164,77063.80809114076,77050.46409970094,77063.5398702073,77023.61965461013,76928.84825811961,76873.32652489263,76858.50731831876,76863.13412942101,76820.64346321148,76784.14306451596,76740.82538376158,76692.83618841603,76642.03067326912,76608.05602169705,76568.18050958878,76492.69866856321,76451.30323783198,76422.13421131781,76387.08667601188,76358.94582974266,76382.66103060974,76407.94085358869,76376.44724565116,76352.59793431735,76350.89920173875,76348.21699240411,76362.56681234442,76345.31126562491,76362.76797804452,76354.20725991813,76360.71161755463,76372.40157990475,76341.98085570108,76309.50377100751,76282.0111253275,76276.1996717691,76289.36484925328,76347.05470169242,76357.49296635306,76328.30158809443,76332.07903290738,76330.11207939532,76334.9177044532,76351.7262162836,76405.19158902069,76417.35093800437,76401.90588258575,76437.22163882514,76461.13800539232,76461.80855772598,76490.1058662064,76503.74043032413,76492.27398541856,76508.14372398183,76522.62765438887,76502.555787868,76505.97560476967,76535.23403826167,76529.73550912566,76554.23302104867,76573.70139046924,76552.48958498116,76541.89485810934,76556.71406468321,76567.59936423294,76580.2728033391,76617.86843751294,76641.42717616883,76641.06954825754,76615.92383574531,76595.36023084643,76579.04345739406,76580.63043125039,76598.53417855909,76614.80624852255,76649.4961559172,76678.66518243137,76721.26760736319,76750.99542748874,76750.72720655528,76744.7592907857,76727.0120056882,76763.73592182827,76804.84077988158,76810.67458518442,76814.51908523073,76807.6794514274,76806.13718105998,76807.81356189413,76837.27316108622,76910.27395847726,76934.10091806662,76948.92012464048,76961.99589514684,76961.0124183908,76982.4700930679,76977.26213660982,76973.30587784122,76966.51094752681,76953.16695608699,76948.02605486228,76959.80542419021,76996.28347114129,77049.34651247818,77117.38522260013,77162.5133946554,77141.10042346721,77083.00823962787,77104.24239686041,77147.06833923678,77104.17534162705,77090.58548099823,77127.13058318265,77160.76995858789,77180.21597626401,77199.8184561513,77235.3353780908,77264.52675634943,77314.03587031792,77291.92999505163,77272.8863087757,77321.85898087728,77329.77149841445,77303.35173646829,77296.86973057625,77293.56167239687,77340.16505958619,77369.60230703381,77402.3699644053,77412.16002847672,77404.82865629539,77383.50509208502,77363.92496394218,77391.52936834448,77387.64016480926,77351.29622832492,77353.77727195946,77356.10185338282,77364.28259185345,77393.89865325674,77423.73823210457,77440.9267235907,77457.75758716556,77443.8324503699,77393.49632185654,77369.3564378448,77369.5576035449,77399.53129285948,77401.58765334936,77422.28536871498,77445.0841480594,77446.22408702661,77428.81207809593,77478.65646823126,77461.49032848958,77428.23093274009,77401.65470858273,77417.524447146,77474.7896164405,77493.07334340493,77492.87217770483,77516.02858496054,77533.48529738013,77515.67095704925,77524.43284087573,77558.02751279206,77551.34434119992,77549.26562896557,77536.88276253734,77532.7476898131,77546.89634405331,77520.32011989596,77519.35899488437,77543.8565068074,77580.02162933609,77589.05173409602,77594.81848416549,77567.48230069665,77561.98377156064,77538.82736430495,77531.31717816797,77559.56978315947,77617.50550478762,77593.72324868718,77559.39096920383,77538.0003497601,77538.2015154602,77508.4960470791,77475.72838970761,77522.10825945238,77580.69218166974,77605.23439708167,77584.69314392724,77597.12071384439,77613.88452218586,77592.85153065342,77568.28696349704,77545.46583240817,77562.63197214984,77554.13830925683,77557.98280930315,77553.82538483446,77493.25215736058,77401.9229295162,77336.38761477324,77310.12431503825,77293.00287878548,77278.0942652338,77248.45585208606,77197.56092996133,77160.6134963767,77134.707824553,77089.78081819783,77029.98990177989,76963.00172364732,76924.1096882951,76907.27882472024,76918.09706903662,76877.46159761687,76852.71821650484,76820.39759402246,76782.2208144928,76755.86810778,76729.09071792255,76659.77795836663,76606.67021354083,76576.65182073734,76564.91715489831,76555.39531176035,76536.30692199552,76542.14072729835,76545.5158407111,76501.01351750059,76422.64830144028,76361.85155652184,76342.33848361236,76394.70862087114,76392.13817025878,76343.9254574687,76328.68156775017,76343.18784990166,76350.98860871657,76341.39971034524,76357.53766984197,76392.83107433691,76371.66397233773,76333.44248931915,76337.84578297684,76329.10625089482,76321.32784382437,76326.84872470483,76321.66311999121,76346.33944586986,76376.33548692889,76352.12854768378,76325.21704735959,76334.87300096429,76351.18977441666,76379.95646953065,76385.4326469222,76404.1857605202,76393.43457143719,76376.53665262899,76399.44719069568,76401.39179246328,76382.0798852539,76382.81749282092,76404.20811226465,76439.03213012603,76461.16035713677,76440.59675223789,76441.51317376056,76476.35954336639,76534.29526499454,76589.50407379915,76588.56530053202,76590.64401276637,76596.94720470277,76611.07350719853,76606.15612341835,76599.91998671532,76617.086126457,76639.66138835685,76647.8421268275,76711.67870899185,76697.57475824056,76681.9955923552,76699.854636175,76689.12579883645,76702.82741818756,76701.21809258677,76722.85458121951,76814.31791953063,76838.03312039771,76839.48598378731,76824.01857662424,76828.91360865995,76850.25952461475,76870.39844636898,76909.11166776558,76967.78499696076,76953.39047353154,76961.54886025774,76960.67714222398,76925.49549645132,76938.92889486896,76961.92883991347,76958.08433986716,77003.19016017797,77008.26400616932,77023.44084065448,77023.30673018775,77017.18235220699,76992.3719158616,77016.10946847314,77025.54190463328,77041.18812575199,77079.65547795958,77118.65927203409,77109.89738820761,77093.15593161058,77058.91305910505,77060.29886726128,77067.83140514272,77050.2852857453,77080.95187913798,77063.04813182929,77006.56527359072,76988.46036058193,76967.36031381611,76959.53720325675,76979.43025582198,77009.20277943645,77014.70130857245,77002.18433167748,76992.6177850506,76991.16492166101,77005.58179683468,77035.55548614926,77083.41057102807,77114.88182722114,77103.08010614874,77107.61751027316,77105.67290850556,77115.48532432143,77158.40067367563,77169.28597322536,77182.69701989854,77238.71049150355,77289.60541362828,77295.10394276428,77315.62284417426,77373.13388265776,77404.49338012855,77409.47781914209,77415.24456921156,77430.86843858582,77443.96656083662,77465.42423551372,77531.49599212361,77616.79024896506,77704.85612211897,77780.18150093335,77812.23390248227,77832.08225155858,77896.05294418967,77983.24709930982,78001.0614396407,78017.57937879318,78104.84058914668,78171.94052600152,78196.68390711355,78268.0753789038,78331.77785060143,78392.57459551985,78422.97296797908,78475.90189884925,78534.4858210666,78635.18042983775,78688.51169210812,78737.95375084327,78791.97791719173,78829.95353102131,78896.40526728693,78993.70241090089,79051.4593185734,79110.02088904631,79189.57074756274,79260.13520480815,79375.91724108663,79465.52538460796,79512.97813808658,79566.46586256813,79631.3976802108,79682.40436105781,79741.14474548635,79804.2884235726,79824.7402697492,79860.90539227788,79868.46028190378,79857.84320328751,79854.24457243021,79840.05121470109,79875.52343315165,79863.65465684589,79850.10949970597,79852.3446741515,79819.01822316865,79799.08046711452,79808.1329236189,79806.36713580694,79803.39435379439,79774.78412089159,79683.6560587473,79567.98578119109,79440.31261686237,79257.69886466251,79073.63224907307,78860.0166273137,78651.69836899023,78498.99125087158,78305.26868167742,78114.60830147367,77899.04807794667,77697.07771504852,77519.67191930675,77336.61113221779,77132.71851929647,76924.71318539539,76747.57561058708,76553.83068964847,76382.16929223172,76160.19411804607,75964.43754010649,75813.00447142178,75633.85523961249,75442.23373439714,75251.88627861576,75070.03248572737,74895.1300853646,74717.32195822263,74544.45356660528,74383.02926814905,74203.008318306,74016.32654861528,73780.18036844497,73527.76211831119,73318.88506637634,73159.40536968772,73044.78562412091,72944.6721607056,72819.97177838943,72713.44336431543,72589.19001688839,72491.46819012979,72439.23216333773,72358.8776420209,72260.37350420636,72151.6322674313,72079.83846424085,71997.47228592304,71943.71634050804,71945.10214866426,71887.05466831382,71834.99745547741,71759.7391318964,71687.65475602803,71663.29135457175,71659.02217138078,71623.92993258595,71593.08452523763,71612.1058597691,71733.6322943726,71892.79906663884,72106.48174363158,72434.71711095776,72810.91932188503,73171.36355297132,73497.6990220188,73813.3727089611,74147.7995095014,74491.50228399066,74786.902938712,75037.28718010035,75232.37320570627,75420.32902483095,75599.47825664023,75730.03479600367,75867.98976278183,76005.63180513761,76112.56255061181,76186.85974918124,76270.61173565529,76332.12373639629,76397.4802371836,76422.55889446246,76431.45488875567,76464.89309846082,76504.2098169577,76566.66059096582,76627.74790856217,76671.75849339468,76694.37845878345,76705.01788914418,76726.98965394375,76731.59411330153,76750.43663387735,76787.4287709509,76841.22941985482,76893.77837106925,76910.69864162192,76955.40213053253,76991.09786642765,77017.33881441818,77046.53019267682,77101.62724275915,77109.02567017385,77109.56211204077,77150.48815613844,77215.19645633656,77278.56365186736,77303.17292251265,77352.72673997006,77416.83154306788,77516.4532681052,77552.41722493377,77598.68533595627,77640.3266358765,77647.25567665765,77671.84259555848,77728.16899158586,77768.06685543858,77795.26892844068,77859.82076642761,77955.64269490751,78006.93994843244,78094.5364349528,78201.69069787154,78233.3184162758,78250.75277695093,78283.65454478914,78273.30568710635,78273.86448071772,78344.16071702966,78417.65325279871,78465.19541325515,78509.00483238755,78537.05627167896,78556.792862033,78593.96381306218,78634.80045018203,78664.81884298549,78702.28036669259,78773.090693127,78792.26848986966,78802.37147836346,78853.73578712175,78888.33628753856,78877.24982228874,78874.03117108718,78884.69295319235,78901.63557548948,78893.29837480765,78902.61905224551,78936.95133172887,78986.639259653,78971.01539027874,78972.04357052369,78975.93277405892,78977.43034093743,78966.41093092096,78965.7403785873,79019.74219319131,79073.25226941732,79094.30761269422,79079.95779275392,79056.01907444229,79023.8549141711,79006.33114651813,79037.31066433318,79036.68481548844,79017.97640537935,79006.82288489614,78989.7908556212,78994.26120451227,79014.53423673323,79009.59450120862,79006.75582966278,78997.27869001373,78968.42258792193,78918.84641872006,78882.30131653564,78888.6715637054,78887.26340380471,78896.0252876312,78880.75904616821,78869.18084254037,78855.4121679559,78822.80097279561,78764.55232674508,78721.92755006881,78665.48939531916,78611.5099324596,78597.29422298602,78611.3534702484,78575.79184482,78539.96199845815,78461.23915448657,78419.68726154414,78394.92152868767,78342.35022572878,78272.25515511695,78217.67219515708,78201.66834612707,78208.59738690822,78219.59444518024,78184.61396510768,78128.98047315842,78100.37024025562,78057.7231118349,78038.72412904789,78011.56675953469,77955.97797107435,77953.4969274398,77936.46489816486,77898.24341514628,77843.3698825085,77762.63538153593,77664.19829895477,77583.93318461576,77546.6057713754,77515.6933087937,77476.42129378574,77424.67700537169,77401.69941207164,77351.36328355828,77256.4354248566,77151.49398463893,77084.88578616212,76996.90931998604,76931.3069500097,76912.19620850042,76844.17985012292,76772.49780565474,76685.77303716815,76625.95976900576,76617.44375436829,76533.95998882772,76468.51408106257,76394.30628947094,76329.93326543967,76229.93156074663,76148.95119058505,76109.8132860438,76038.6453316981,75971.6348018211,75926.6183884881,75905.27247253328,75887.70400139142,75871.76720759478,75858.44556789941,75823.3980325935,75768.05511332216,75706.94544398134,75616.2420649817,75598.53948337311,75591.05164898057,75602.85337005298,75591.40927689186,75532.66889246332,75472.22977545617,75460.38335089486,75418.94321667471,75362.43800669171,75302.96001469613,75264.04562759944,75232.66377838419,75214.08947874182,75208.41213565019,75188.74260052951,75171.241184621,75100.90024482015,75047.32311336078,75038.65063651212,75005.59240646272,75022.91500841558,75056.464976843,75026.51363927289,75001.0997058272,74955.09981573818,74973.98703980292,74997.32226101425,75023.63026423815,75063.37166587969,75059.59422106674,75038.69534000104,75030.17932536356,75029.84404919673,75048.39599709463,75071.75357005044,75120.30155900736,75166.10028339628,75157.09253038079,75142.56389648485,75156.04199839139,75217.21872296557,75265.11851133329,75263.30802003242,75338.8792680358,75412.68472822724,75437.53986806153,75481.75161859413,75463.82551954097,75454.54954559202,75464.02668524107,75474.6661156018,75474.55435687953,75438.41158609529,75440.89262972983,75455.9577054927,75484.41147618431,75514.34046200996,75526.05277610455,75532.3783197854,75519.95074986825,75504.32688049399,75475.29196444654,75478.98000228168,75498.4707234467,75490.9158338208,75465.83717654196,75436.17641164977,75452.5155368466,75476.5660138805,75490.04411578705,75497.50959843512,75541.96721815673,75540.71552046723,75473.34736267893,75417.44564979621,75419.21143760817,75483.7185721062,75551.48906129469,75607.45782941078,75611.83877132402,75594.96320426026,75601.73578283022,75620.17597200585,75603.85919855347,75604.50739914268,75623.1487540184,75645.83577464054,75643.26532402818,75634.68225415733,75654.41884451138,75694.00378394172,75664.07479811607,75661.72786494826,75651.91544913239,75651.78133866565,75682.80555996962,75645.63460894044,75599.09827698448,75601.13228572992,75621.15944876189,75686.82887397156,75737.61203737403,75723.28456917818,75685.82304547109,75660.74438819222,75647.89213513043,75590.26933792465,75511.3676799974,75477.23656621415,75433.67301627077,75362.05802703596,75312.3253956229,75237.73762437554,75181.83591149282,75101.83901808728,75008.90046464211,74950.67417033603,74923.71796652293,74873.71711417641,74862.36242799311,74824.09624148563,74765.46761577936,74692.7350393218,74612.98401510525,74520.00075817118,74453.325504461,74385.28679433904,74332.76019486907,74315.30348244947,74266.66608651473,74272.65635402875,74277.30551687545,74251.01986539601,74217.4698969686,74157.94720148412,74104.5935874693,74070.5295289194,74043.1262902172,74023.30029288534,73974.81935916179,73957.74262639793,73980.69786795352,73973.96999287249,73924.28206494833,73874.72824749092,73847.90615414456,73805.72841235739,73842.36292151963,73926.22666671594,73973.07592309426,74030.49755459995,74086.04163957138,74087.00276458297,74069.30018297436,74087.15922679416,74117.80346844238,74134.0978901503,74171.89469002423,74206.80811486341,74216.91110335721,74206.49519044104,74207.38926021925,74225.09184182786,74262.88864170178,74257.03248465448,74267.42604582621,74283.8322262564,74340.13627053933,74340.31508449497,74339.75629088358,74359.78345391553,74359.91756438227,74349.97103809965,74379.63180299185,74360.9010411383,74333.40839545827,74325.4958779211,74358.06236959247,74397.02146017808,74416.55688483201,74391.43352406425,74377.24016633513,74377.08370412394,74347.46764272066,74288.66020305875,74235.93243788868,74243.24145832556,74289.17429318122,74300.84190378689,74284.30161288996,74279.96537446564,74255.87019394281,74206.3610799743,74161.16585268568,74110.85207591679,74059.44306366958,73993.19249310404,73956.98266708644,73922.18100096953,73890.82150349874,73910.13341070812,73951.32767573926,73959.84369037673,73945.94090532552,73929.53472489533,73895.62712855663,73885.94882320748,73891.06737268774,73856.15394784855,73777.38640038806,73769.63034506206,73761.8072345027,73708.81124839917,73692.42741971344,73669.80745432466,73600.96408140232,73549.33155171055,73530.48903113473,73487.1937021248,73477.18012060883,73503.57753081054,73497.02846968514,73430.19675376377,73394.9257010133,73409.29787269807,73376.06082869302,73334.12895609486,73297.13681902133,73271.65583034228,73210.65791972374,73114.254845888,73030.48050766952,72965.83926270477,72913.20090451252,72878.5557006068,72852.58297354972,72764.4723969069,72683.46967500087,72596.5884443031,72527.05216730264,72476.15724517789,72416.1428113154,72393.23227324871,72363.10212172296,72305.72519370618,72267.72722813216,72213.1889716612,72191.06074465046,72193.76530572955,72162.74108442558,72143.94326733868,72150.08999706389,72156.63905818929,72198.45917206517,72232.67969282623,72219.78273627553,72200.20260813268,72250.69519885721,72320.65615900233,72374.79208407308,72440.3497505605,72504.85688505851,72560.08804560758,72592.90040646796,72607.9878339753,72666.9517358484,72682.35208777811,72727.79318425574,72775.15653075655,72788.90285359656,72821.51404875684,72847.28561011382,72866.08342720073,72910.78691611135,72949.18721308556,72964.49815803744,72992.63900430668,72988.01219320443,72980.63611753417,73018.36586217473,73064.03047609693,73172.90582333873,73206.76871618853,73194.98934686057,73213.16131510274,73220.9844256621,73240.13987066029,73268.70540007418,73292.3535457079,73365.39904658783,73429.4814979412,73485.0479346571,73531.69602533532,73608.25075009474,73665.22534671132,73643.38769237848,73650.00380873727,73738.98610341384,73799.55933088771,73844.24046805387,73927.25484696089,73974.64054520614,74038.5218308594,74128.57700926984,74178.1084749828,74234.50192624354,74279.60774655435,74305.06638348894,74332.17904951323,74371.47341626567,74432.24780943964,74503.14754285188,74547.33694164002,74574.51666289767,74614.23571279475,74688.86818753103,74760.23730757681,74842.15645100552,74921.46044033294,74960.77715882983,75016.83533392374,75083.13060797818,75118.24519851747,75144.79907093037,75239.5034121875,75340.01920700303,75361.02984679102,75369.36704747284,75383.33688775741,75397.30672804198,75384.96856510265,75367.91418408325,75363.89087008129,75357.74414035608,75339.95215176966,75325.64703531827,75272.42753177018,75242.69971164461,75191.55892033088,75149.58234424381,75134.40550975865,75085.723410335,75002.59727270571,74937.86662076315,74903.10965813514,74845.10688127362,74805.18666567645,74782.16436888748,74745.6416184475,74707.04015577318,74614.72745117277,74536.45164209028,74544.38651137192,74568.99578201721,74533.9929502002,74527.35448209697,74512.95995866775,74475.63254542739,74420.22257092269,74351.13332881134,74321.65137787478,74284.30161288996,74276.97024070863,74289.97895598161,74278.95954596515,74251.75747296304,74266.66608651473,74251.93628691867,74213.08895505535,74180.36600117279,74160.89763175222,74165.68090506564,74181.68475409565,74214.5641701894,74236.13360358878,74239.55342049044,74276.00911569704,74297.80206654097,74338.28107574953,74410.25369289563,74459.80751035303,74502.25347307367,74515.8880371914,74524.4934588067,74542.86659274895,74611.17352380438,74670.60681231103,74742.55707771267,74749.4414150049,74706.883693562,74723.17811526991,74715.62322564403,74704.55911213865,74712.7845540982,74683.7719897952,74700.7369638368,74697.87594054651,74684.15196945095,74682.0285537277,74695.37254516751,74699.86524580303,74713.65627213196,74733.5940281861,74732.9905310858,74699.86524580303,74688.73407706429,74696.3336701791,74681.55916709414,74699.12763823601,74722.39580421399,74754.2917435517,74793.56375855969,74801.96801447487,74800.06811619617,74842.46937542789,74876.53343397778,74894.9736231534,74908.71994599342,74980.51374918387,75048.37364535018,75053.60395355272,75073.94404100705,75143.0332831184,75208.27802518345,75248.0641303139,75278.57426149539,75302.26711061802,75319.94734048216,75365.03080904852,75429.85086796891,75458.17052819378,75516.21800854421,75596.63958509441,75626.36740521996,75639.19730653732,75681.35269658003,75747.40210144545,75781.15323557297,75810.21050336487,75848.49904161681,75873.01890528428,75890.1626932815,75900.77977189777,75901.3162137647,75875.74581810783,75842.37466363606,75868.77207383777,75871.78955933923,75839.71480604587,75789.31162229915,75781.10853208405,75789.60219497708,75772.14548255748,75755.26991549373,75767.5857266886,75808.51177078627,75836.87613450005,75835.400919366,75804.51080852876,75761.41664521894,75730.05714774814,75730.63829310397,75758.68973239539,75798.49818927029,75771.27376452372,75741.99297928727,75696.03779268716,75668.6122022405,75668.00870514021,75611.57055039055,75600.77465781863,75654.64236195594,75676.05533314412,75639.73374840424,75615.48210567023,75583.7873320326,75547.89043043739,75515.61451144391,75473.70499059022,75429.82851622446,75417.6021120074,75435.70702501619,75388.12016107085,75363.95792531467,75344.288390194,75297.21561637112,75249.3605314923,75190.68720229712,75133.62319870273,75060.62240131169,74982.14542652911,74953.40108315958,74944.14746095508,74876.51108223332,74790.72508701385,74744.32286552463,74724.09453679259,74691.17041720991,74599.30474749861,74523.75585123966,74482.89686237536,74435.84644029694,74395.68035551076,74368.29946855301,74315.10231674938,74237.76528093402,74166.48556786604,74118.47402077605,74078.6879156456,74027.05538595383,73948.98074257145,73914.91668402156,73931.43462317403,73900.85743675916,73830.91882835851,73760.15320541301,73682.10091377508,73560.32860998256,73449.46395748424,73353.75378772661,73272.34873442039,73290.54305440701,73346.7576917121,73383.95099448574,73480.97991716623,73621.5723897901,73781.83439753467,73940.7553006119,74134.27670410594,74351.803881145,74523.2417611172,74743.62996144652,74998.9986418484,75226.80762133689,75456.20357468171,75716.44493537485,76018.68522389952,76359.75049254304,76632.88880978689,76878.15450169498,77108.35511784018,77360.01340866249,77557.46871918067,77653.91649650532,77686.01360154315,77677.4305316723,77609.03419363906,77532.47946887964,77490.30172709248,77399.08425797037,77294.65690787518,77231.73674723349,77126.77295527136,77009.67216607001,76937.18545880145,76900.57330138366,76812.55213171865,76673.23370852873,76570.84036717897,76513.4634391622,76443.03309238351,76397.12260927232,76330.93909394015,76256.06075001488,76174.32042054182,76126.33122519628,76082.58886129723,76077.44796007252,76012.94082557451,75923.53384775328,75883.25600424482,75795.92773865792,75727.88902853597,75722.5246098667,75737.79085132967,75705.06789744711,75687.20885362731,75667.53931850664,75640.44900422682,75597.22073045025,75551.7796339726,75513.69226142076,75435.75172850511,75371.78103587402,75334.54302961148,75306.84921823135,75258.6141536968,75222.85136256831,75162.14402462769,75080.44839864355,75014.77897343386,74958.9890192734,74890.7714951958,74830.44413691094,74759.52205175425,74697.33949867959,74645.88578294347,74595.95198583031,74516.64799650288,74445.569449135,74425.7211000587,74376.65902097929,74316.97986328362,74254.7749584645,74183.29407969642,74112.77432593994,74101.6431572012,74095.27291003143,74053.47514790001,74005.30713859882,73935.7485098539,73894.21896865594,73855.50574725935,73839.05486334025,73855.66220947054,73850.67777045701,73852.98000013591,73866.8827851871,73863.15004386308,73863.55237526326,73886.73113426342,73920.37050966866,73960.26837352138,73994.0642111378,73980.7649231869,73964.98459160145,73981.59193773175,73966.19158580204,73960.91657411058,74036.46547036951,74111.1426485947,74109.60037822729,74068.24965098496,74049.89886878716,74085.66165991566,74145.96666645606,74222.56609470441,74323.41716568675,74365.43844526273,74329.80976460097,74347.95938109868,74376.63666923484,74355.6483811913,74390.09241939693,74461.23802199817,74510.90359817787,74563.09492148101,74633.21234383731,74718.79717335668,74771.56964201566,74819.3576716611,74847.18559350797,74890.01153588433,74920.54401881028,74965.78394958781,75022.87030492668,75068.37845663769,75128.52700096692,75191.24599590851,75265.05145609993,75334.6771400782,75357.34180895588,75390.89177738331,75482.69039186125,75542.83893619048,75564.83305273451,75600.05940199607,75621.56178016207,75634.79401287962,75668.05340862912,75701.4692665898,75742.64117987647,75805.65074749598,75818.88298021353,75783.54487222969,75770.42439823442,75801.76154396076,75823.50979131578,75827.86838148456,75837.0996519446,75801.85095093858,75756.6780753944,75732.69465359386,75705.44787710284,75728.80545005864,75769.23975577828,75830.05885244117,75845.77212879327,75807.41653530796,75775.52059597023,75745.23398223329,75718.7695167982,75737.63438911848,75728.626636103,75696.68599327636,75671.58498425306,75643.82411763957,75597.08661998351,75520.88952313537,75462.88674627386,75470.64280159984,75473.70499059022,75486.35607795192,75514.11694456541,75515.65921493284,75459.15400494981,75394.13278032932,75353.3855501873,75296.38860182627,75236.9553133196,75159.73003622652,75132.99734985798,75117.0829078058,75076.15686370812,75070.34541014975,75095.73699185098,75081.74479982196,75102.95660531004,75064.28808740235,75028.41353755159,75003.89367388411,74998.1045720702,74957.35734192817,74909.59166402718,74894.75010570885,74876.66754444451,74891.91143416303,74882.56840498072,74883.01543986982,74870.56551820821,74848.48199468637,74797.83294175065,74805.0078517208,74831.65113111152,74783.97486018835,74730.01774907325,74696.64659460147,74694.50082713376,74719.95946406835,74701.89925454847,74668.23752739877,74614.0568988391,74620.94123613134,74632.09475661455,74622.63996870995,74599.34945098752,74589.87231133846,74577.51179665468,74568.61580236147,74552.96958124275,74540.29614213659,74572.03561926313,74594.76734337417,74555.11534871046,74513.1387726234,74488.44009500029,74460.83569059797,74392.88638745385,74326.65816863277,74301.62421484283,74253.14328111926,74223.90719937172,74271.2258423836,74263.98387718009,74258.73121723309,74226.76822266201,74192.63710887876,74143.82089898836,74093.48477047501,74098.22334029953,74100.74908742298,74115.18831434111,74125.02308190144,74110.31563404985,74091.87544487423,74072.07179928683,74038.79005179286,74057.02907526841,74082.15243603617,74090.44493322908,74048.89304028667,74007.38585083316,74011.7667927464,74000.05447865183,73963.44232123403,73964.13522531214,73973.32179228327,73953.62990541816,73940.06239653379,73941.69407387901,73972.27126029388,73996.47819953898,73968.7620364144,73960.8048153883,73963.03998983384,73929.66883536206,73884.31714586224,73881.76904699433,73859.12672986112,73884.38420109561,73909.95459675248,73901.90796874856,73890.35211686518,73896.61060531266,73922.82920155874,73936.37435869865,73953.96518158498,73939.16832675556,73915.56488461077,73918.58237011223,73943.5045651799,73951.35002748371,73971.80187366031,74036.59958083625,74076.92212783362,74091.85309312977,74089.72967740652,74044.26622918442,74012.07971716877,73987.91748141259,73992.74545821494,74010.33628110126,74084.65583141516,74140.35637859779,74162.73047479754,74186.02099251997,74196.52631241397,74188.63614662125,74187.63031812076,74137.13772739623,74100.07853508933,74115.36712829676,74096.47990423202,74101.79961941238,74118.85400043178,74092.41188674116,74084.45466571506,74096.85988388777,74079.35846797925,74001.08265889676,73926.2490184604,73858.83615718319,73821.73226138738,73789.34458367164,73738.42730980246,73680.78216085222,73612.34111933007,73548.68335112135,73499.77773425315,73482.61159451147,73413.36589018893,73357.77710172857,73303.37295572436,73223.6889867412,73129.94577049563,73031.59809489228,72924.28736976234,72850.95129620448,72794.89312111058,72694.71260246189,72558.21049907334,72426.98340737622,72304.62995822787,72173.64873571978,72019.06407106687,71878.3151362318,71747.24450674588,71622.00768256279,71497.21789326881,71428.44157557984,71329.04336798709,71246.38661699137,71172.33528761093,71069.96429800562,71003.9595966291,70925.25910440196,70813.99212050345,70701.09345925969,70596.4649434644,70508.91316043296,70410.00669121822,70311.07787025903,70194.0664880355,70088.49919897309,69988.83277044687,69870.83791146732,69765.40473287163,69665.31362120077,69541.99904704084,69447.60763020607,69346.24246910126,69291.16777076338,69250.12996794343,69206.72288021122,69180.34782175397,69188.66267069134,69188.88618813589,69148.78715858307,69097.42284982477,69074.17703559126,69089.64444275433,69134.30322817602,69197.91629289584,69251.87340401094,69234.93078171382,69217.51877278314,69216.62470300493,69206.90169416687,69242.44096785081,69301.78484937965,69366.76137051122,69441.88558362551,69493.36165110608,69513.94760774942,69591.61991973162,69642.58189708971,69695.26495877087,69758.92272697958,69748.2609448744,69753.80417749932,69784.11314298071,69819.09362305327,69836.23741105049,69904.32082466136,70025.06494820892,70073.59058542139,70105.06184161447,70141.45048158772,70182.33182219647,70240.06637812452,70240.42400603581,70184.63405187536,70121.73624297814,70116.17065860875,70096.9928618661,70056.82677707991,70046.4332159082,70035.45850938064,70034.11740471332,70028.26124766603,70010.26809337952,70004.05430842093,69992.90078793775,69922.62690337026,69868.44627481059,69799.28997746587,69735.56515402379,69663.88310955562,69571.88332937758,69511.28775015924,69493.16048540598,69464.30438331419,69450.53570872972,69454.33550528712,69472.395714807,69459.18583383392,69476.46373229787,69542.02139878529,69671.54975790379,69800.74284085547,69937.33435122184,70112.66143472928,70318.20807674028,70573.66616411999,70871.0784758423,71118.62404568483,71385.39211575892,71636.5139647143,71948.70077952156,72229.19282069121,72473.69855328782,72758.48212939288,73096.5522642794,73436.92462884482,73775.57590908717,74169.7042190676,74565.30774418208,74950.78592905831,75251.64040942675,75552.22666886171,75893.64956541653,76207.87038896924,76511.5635408835,76806.76302990473,77075.11807383515,77361.82389996338,77643.61234231143,77925.2890259372,78206.87630258517,78463.22845974308,78667.72456976469,78835.07208050157,79056.24259188684,79289.4606935335,79483.65264936122,79608.37538342184,79742.97758853169,79844.20863916978,79989.09264672907,80099.62202306057,80157.80361387774,80177.49550074287,80187.95611714794,80196.96387016342,80211.82778022622,80204.51875978932,80234.33598689271,80339.67975851057,80447.86220167426,80565.47708099808,80697.86646340686,80825.87490390241,80955.7608909322,81143.62730307905,81395.79968402382,81657.62801857329,81902.20080640326,82169.1923939219,82419.77780101035,82618.28364351793,82805.1442271643,82981.65595312786,83170.68465598639,83341.9660737474,83563.0248264104,83787.16811980822,84031.60679717145,84342.2513416113,84640.66948183412,84940.0040435796,85187.39315121093,85377.91942094796,85520.70236452846,85684.49594789695,85828.86586533379,85875.55865950092,85898.69271501216,85982.08707357492,86025.18123688475,86065.99552226014,86103.59115643396,86127.30635730104,86137.90108417286,86149.88161920091,86142.4384882973,86135.10711611595,86154.2849128586,86128.87097941291,86083.22871723518,86021.71671649418,85941.04927075497,85847.10488880932,85778.73090252053,85688.4298549211,85616.94897615301,85513.2815853693,85355.47826951483,85199.44074147234,85039.98339652817,84873.0829206804,84648.13496448219,84420.37068848261,84264.95900928487,84120.18676044783,83912.91903411377,83738.26250294001,83537.74500343144,83312.72999199986,83126.49525719826,82938.89706598486,82747.20850553614,82570.76383480596,82390.96640240746,82194.91925178996,82045.63195057296,81882.3748090714,81773.2982961295,81660.15376569674,81505.92672895512,81438.69268163356,81387.52953857536,81308.56082541477,81191.54944319122,81066.24556377478,80971.362408562,80918.58993990302,80863.55994505405,80757.59032459144,80640.46718364564,80535.07870853886,80404.36570696422,80280.67115314855,80185.16214909103,80076.33150533814,79978.09558845706,79878.16093899739,79755.13693751537,79622.56874115096,79504.99856531604,79390.20000579358,79282.08461786326,79179.31129685776,79037.86945794457,78877.45098798884,78716.20550348825,78542.71126302615,78430.55020934943,78303.10056246526,78180.38948540563,78100.86197863365,78033.8738005011,77940.33174995563,77853.49522274676,77758.16503264487,77673.20605197025,77597.47834175568,77531.47364037915,77443.29600850296,77367.8588709663,77284.19629147009,77155.83022306327,77018.61286385213,76896.05824900369,76786.26648023921,76655.48642343121,76507.98726177064,76390.23827198008,76293.18699755514,76259.23469772753,76190.81600794983,76053.82216618326,75941.45994680643,75850.89067827353,75789.42338102144,75734.01340651672,75650.19436480933,75565.07892192352,75482.8692058169,75402.82760892244,75294.39929656974,75207.60747284979,75167.21787061905,75101.86136983173,75043.90329645912,74974.05409503629,74885.4741317599,74817.61423559359,74752.03421736172,74667.18699540937,74618.6613581969,74563.96663951477,74503.03578412959,74427.53159135957,74372.21102383269,74352.07210207845,74299.92548226423,74211.6137399213,74115.65770097467,74032.4198046231,73954.16634728508,73873.23068061241,73793.14438022905,73703.15625705197,73627.56265730414,73585.65313645043,73528.0526909891,73479.66116424337,73473.64854498488,73387.1249421984,73293.33702246392,73199.37028877382,73147.89422129325,73123.53081983696,73103.23543587154,73059.40366499468,73029.34056870229,73023.12678374372,73039.9352955741,73021.15983023166,72995.74589678597,72984.43591409158,72973.55061454185,72963.55938477033,72939.12892808068,72942.39228277115,72934.45741348951,72889.37394492317,72835.70740648596,72775.11182726762,72720.03712892976,72682.93323313394,72638.83324132362,72618.49315386929,72587.04424942068,72550.32033328062,72562.5243857532,72570.9286416684,72556.31060079463,72563.7313799538,72567.06178987764,72515.5633706526,72468.89292822992,72488.5624633506,72481.99105048073,72506.30974844811,72482.66160281439,72445.42359655185,72418.9367793723,72403.58113093152,72369.71823808172,72363.86208103444,72363.95148801226,72314.35296706593,72241.70979758618,72203.55536980098,72227.78466079052,72217.9945967191,72137.57302016891,72090.43319111266,72096.42345862668,72134.91316257873,72164.57392747092,72180.42131428974,72171.30180255197,72216.42997460724,72274.43275146875,72282.88171087285,72217.05582345198,72162.91989838122,72115.08716524686,72063.85696695531,72049.28362957045,72025.90370487019,71991.10203875328,71964.79403552938,71939.6259712727,71894.09546781724,71875.8117408528,71837.07616771176,71784.63897521961,71704.61973006961,71616.86678133807,71521.9836261253,71454.45900612582,71400.43483977734,71369.45532196228,71342.87909780492,71286.86562619993,71233.35554997392,71189.59083433042,71118.4899352181,71020.85751543731,70931.83051727182,70845.12810052969,70763.07484663425,70693.33740393369,70633.54648751575,70591.70402189542,70561.66327734748,70517.58563728162,70476.95016586187,70420.15438320093,70357.01070511469,70332.33437923604,70320.93498956383,70301.60073061,70298.82911429752,70288.72612580373,70272.85638724046,70252.3821893194,70198.84976134895,70178.28615645006,70133.73912975063,70060.58187014841,69962.94945036763,69902.17505719364,69900.43162112613,69911.67454858715,69935.12152852077,69925.21970572707,69912.32274917635,69869.22858586653,69815.65145440715,69795.02079427491,69814.75738462895,69855.92929791562,69914.33440617734,69905.88544677323,69928.10308076181,69931.90287731921,69938.07195878887,69962.88239513426,69989.41391580271,69988.20692160212,70022.04746270746,70075.9375185892,70082.21835878115,70079.55850119097,70073.45647495467,70078.19504477919,70095.51764673206,70131.03456867154,70158.057827718,70182.19771172974,70222.83318314949,70211.97023534421,70183.60587163043,70224.1742878168,70274.82334075253,70277.90788148736,70255.5784887765,70260.96525919024,70272.63286979591,70360.92226039436,70419.01444423372,70476.14550306147,70556.96941101187,70564.59135587113,70538.48451834734,70584.75262936982,70652.70193251396,70723.24403801489,70781.40327708761,70860.48374897048,70956.81976757286,70995.01889884697,71026.89248644025,71057.51437634401,71114.06428981594,71244.35260824593,71395.36099378599,71508.84080038557,71646.8628223971,71741.52246016532,71873.12953151816,72048.68013247015,72243.65439935379,72393.54519767109,72520.52545792169,72644.35412220408,72813.51212424185,72958.73140796798,73098.38510732474,73325.74705192412,73568.39758973093,73725.68681546293,73888.76514300884,74062.23703172649,74255.19964160916,74436.00290250813,74624.91984664439,74862.94357334895,75060.98002922298,75250.74633964853,75442.07727218595,75618.0972597715,75819.77704999174,75989.42679040752,76147.78889987337,76310.84487567484,76460.66861875876,76573.05318988004,76665.00826656917,76696.63598497343,76760.7184363268,76865.65987654447,76946.43908100594,77021.29507318677,77068.7925301543,77161.61932487719,77223.64541574067,77279.41301815666,77324.54119021192,77320.11554480977,77354.15725161521,77370.65283902321,77325.9493501126,77315.66754766316,77315.66754766316,77335.87352465076,77388.4671793541,77386.88020549777,77365.33312384285,77338.93571364114,77329.72679492555,77329.77149841445,77325.59172220132,77268.79593954039,77241.83973572728,77206.85925565472,77145.48136538046,77088.23854783042,77002.36314563312,76907.07765902016,76814.13910557498,76691.53978723762,76634.16285922086,76520.39247994334,76376.96133577364,76296.58446271234,76225.72943278903,76148.77237662941,76114.79772505733,76080.64425952962,76068.14963437911,76055.67736097304,76000.71442135745,75991.61726136414,75971.07600820971,75900.37744049757,75851.47182362937,75815.79843947869,75785.15419783047,75730.61594135952,75671.58498425306,75620.28773072812,75583.83203552151,75530.36666278442,75483.5174064061,75451.64381881284,75402.46998101115,75386.75670465907,75408.37084154735,75411.45538228219,75375.80434987598,75331.10086096537,75263.01744735449,75223.43250792414,75172.02349567694,75135.07606209231,75109.59507341326,75041.35519759121,74928.05420494726,74809.18762793393,74766.94283091341,74766.60755474657,74733.50462120827,74652.65836151343,74587.52537817066,74507.46142953174,74432.82895479548,74357.52592772555,74307.68153759022,74293.19760718317,74218.43102198017,74169.01131498949,74130.63336975973,74085.236976771,74057.25259271296,74064.76277884994,74040.39937739365,73994.57830126028,73959.955449099,73971.69011493804,73957.22853627546,73952.15469028411,73926.76310858288,73874.66119225755,73864.87112818613,73836.55146796125,73807.74006935836,73784.71777256939,73797.92765354249,73772.53607184126,73774.45832186441,73814.24442699486,73841.02181685231,73847.99556112237,73849.31431404523,73853.62820072511,73857.65151472707,73875.37644808012,73894.06250644475,73909.57461709675,73913.30735842077,73955.66391416358,74008.43638282256,74043.75213906195,74034.38675813518,74038.0747959703,74035.21377268003,74037.225429681,74054.86095605623,74066.1262352617,74095.49642747598,74145.38552110024,74183.13761748525,74219.8168301364,74234.25605705453,74238.3240745454,74239.93340014618,74207.67983289718,74182.22119596257,74139.41760533066,74107.16403808165,74047.99897050846,73974.8640626507,73873.54360503479,73730.78301319874,73613.88338969748,73507.75730702368,73377.93837522727,73260.65877207027,73143.7144450801,73053.5922114363,72949.27662006338,72838.32256058724,72723.43459408697,72607.5407990862,72512.14355375094,72415.91929387084,72371.34991542697,72334.17896439778,72281.78647539455,72211.87021873835,72107.97931051008,72054.33512381735,72034.93380963014,71979.27796593642,71941.41411082914,71946.19738414256,71959.54137558238,71950.04188418887,71961.12834943872,72010.43629770711,72036.02904510844,72066.3603623343,72102.61489184081,72112.49436289005,72149.7770726415,72222.800221777,72278.8583968709,72354.0273134741,72433.44306152381,72515.5633706526,72583.60208077457,72641.11311925807,72691.4045442825,72719.72420450738,72760.96317302743,72849.4984328149,72884.41185765408,72941.43115775957,73026.34543494528,73101.62611027075,73173.19639601665,73225.92416118672,73256.1437196903,73338.33108405246,73493.0498591721,73565.20129027382,73600.94172965786,73665.7394368338,73749.87140296357,73803.53794140076,73873.94593643498,73944.8009663583,74057.38670317968,74180.25424245051,74247.28712407197,74346.1488897978,74429.02915823807,74475.54313844958,74569.26400295067,74670.18212916638,74764.70765646787,74881.54022473577,74996.11526681368,75093.1218377497,75219.43154566665,75340.80151805896,75493.59804315545,75680.27981284617,75842.68758805843,76038.35475902019,76253.15502323568,76413.19351353569,76542.69952090974,76664.82945261353,76781.55026215914,76888.7939320557,76992.28250888379,77068.43490224301,77079.40960877057,77106.99166142842,77134.39490013062,77194.23052003748,77303.70936437957,77369.64701052273,77396.4691038691,77431.09195603037,77477.56123275295,77516.58737857192,77571.79618737653,77620.21006586672,77703.80559012957,77767.06102693808,77809.73050710328,77825.8237631111,77912.05679321967,77990.91374765799,78013.10902990212,78040.42286162649,78079.78428361229,78098.06801057674,78080.76776036833,78092.79299888528,78093.59766168566,78079.69487663447,78017.55702704872,77950.72531112735,77888.09572316358,77861.69831296186,77850.09775758955,77788.51870161519,77750.31957034106,77698.75409588267,77623.13814439037,77526.26568392107,77410.9753860206,77282.5422623804,77181.02063906439,77041.03166354081,76865.5481178222,76680.31921152105,76544.97939884418,76392.74166735908,76248.3493981778,76074.25166061541,75913.49791449284,75776.34761051508,75652.4071875104,75488.83712158646,75320.9308172382,75189.12258018526,75059.46011060002,74932.74807128288,74852.03592205477,74779.90684269748,74699.2841004472,74606.27849176867,74518.79376397059,74440.11562348792,74372.12161685487,74306.83217130092,74235.57480997739,74186.62448962027,74158.19307067312,74126.72181448004,74080.76662787994,74046.38964490767,74049.8318135538,74037.47129887,73977.54627198532,73903.87492226064,73825.86733411162,73796.02775526379,73760.7119990244,73716.56730372517,73728.99487364231,73768.15512992801,73803.58264488967,73802.39800243355,73783.44372313544,73802.64387162255,73793.99374651835,73859.84198568368,73966.75037941341,74054.14570023367,74136.22130587355,74187.94324254313,74250.3269613179,74309.02264225754,74363.0021051171,74446.97760903569,74561.03856099112,74585.3572589585,74615.28624478415,74679.05577171514,74723.51339143675,74726.53087693821,74756.16929008595,74799.97870921835,74859.21083202491,74900.29333833377,74918.68882402049,74953.71400758196,75016.20948507899,75041.13168014666,75012.52144724387,75009.5039617424,75009.16868557557,75030.98398816395,75069.38428513816,75103.56010241034,75173.92339395564,75222.31492070138,75242.94558083364,75272.20401432563,75253.27208677198,75220.0573945114,75210.17792346215,75227.79109809293,75268.69479044614,75244.08551980085,75220.97381603406,75192.76591453147,75196.92333900015,75172.55993754386,75143.61442847425,75107.91869257911,75030.58165676375,74992.78485688983,74929.0376817033,74837.06025326971,74779.61627001957,74754.42585401844,74721.27821699122,74682.16266419443,74600.73525914375,74519.26315060415,74423.24005642415,74361.1022068384,74350.97686660015,74325.56293315446,74307.97211026814,74262.24044111258,74206.07050729639,74172.14055921324,74163.95982074259,74105.80058166989,74032.75508078994,73976.89807139612,73965.14105381264,73973.38884751665,73983.91651915509,73966.07982707975,73905.12661995014,73878.86332021515,73872.71659048994,73859.43965428349,73799.60403437664,73737.84616444662,73698.5965011831,73736.3038940792,73770.0103247178,73755.16876639948,73739.94722842542,73714.68975719092,73700.60815818407,73699.37881223904,73698.86472211656,73707.91717862096,73702.21748378486,73675.06011427166,73660.91146003145,73673.11551250405,73713.08043159013,73748.95498144091,73763.30480138121,73801.1239529996,73869.7885119663,73898.80107626929,73981.94956564302,74082.0406773139,74144.35734085529,74175.5603761149,74264.40856032474,74390.53945428604,74499.81713292803,74531.57896179902,74580.03754377813,74699.70878359185,74835.62974162457,74992.22606327845,75129.7339951675,75221.64436836772,75324.39533762877,75428.82268772396,75511.63590093088,75609.76005908968,75727.66551109141,75796.59829099159,75828.18130590694,75907.50764697882,75970.65132506506,76023.60260767968,76093.29534689133,76132.81323108831,76125.92889379608,76144.36908297171,76184.28929856888,76211.91605471565,76229.81980202434,76211.8937029712,76195.37576381872,76154.53912669887,76126.91237055212,76096.60340507071,76042.95921837798,76012.00205230738,75977.5356623573,75938.06248164922,75901.5173794648,75851.87415502955,75768.88212786701,75682.62674601398,75637.65503616989,75597.31013742807,75562.39671258887,75498.20250251323,75409.3990217923,75307.13979090928,75250.50047045952,75226.89702831472,75183.73580977152,75108.32102397931,74998.1045720702,74878.52273923431,74791.84267423663,74740.54542071169,74705.34142319458,74695.90898703445,74613.94514011683,74544.00653171618,74501.64997597337,74431.57725710598,74335.08477629242,74303.09942997688,74281.6864587887,74233.13846983177,74178.04141974944,74167.51374811099,74174.39808540321,74163.89276550923,74157.90249799521,74166.3514573993,74149.09591067981,74151.46519559207,74182.89174829624,74226.16472556171,74228.62341745179,74235.50775474403,74232.69143494267,74268.14130164878,74302.1383049653,74321.13728775231,74332.33551172442,74391.18765487525,74418.9708732332,74474.51495820463,74534.52939206712,74549.05802596308,74565.71007558228,74638.30854157312,74723.17811526991,74755.69990345239,74785.91946195597,74850.15837552052,74970.83544383472,75074.01109624041,75183.4005336047,75209.88735078424,75218.11279274378,75228.39459519323,75245.85130761281,75319.74617478206,75339.527468625,75418.6526439968,75516.84385738896,75562.93315445581,75577.90882324085,75592.43745713681,75652.47424274376,75717.89779876445,75785.40006701948,75798.69935497038,75798.43113403692,75861.79832956771,75912.33562378117,75927.28894082176,75913.20734181492,75990.09734274118,76078.14086415063,76115.75885006892,76160.50704246844,76175.25919380895,76170.61003096224,76171.19117631807,76175.95209788706,76202.12599064421,76204.11529590074,76189.11727537123,76198.41560106464,76198.57206327583,76167.88311813869,76143.58677191577,76101.02905047286,76080.15252115161,76073.44699781502,76047.65308471359,75996.7358108444,75969.24316516437,75967.45502560795,75942.39872007356,75912.11210633662,75859.38434116654,75814.63614876702,75816.13371564553,75750.19606950237,75716.57904584159,75715.8190865301,75707.52658933718,75673.59664125403,75592.66097458136,75569.41516034784,75565.48125332371,75493.64274664436,75447.15111817731,75427.77215573456,75414.6963852282,75372.42923646323,75364.31555322594,75328.17278244172,75265.38673226675,75244.42079596769,75246.63361866875,75214.33534793084,75185.18867316112,75174.95157420059,75141.73688194,75108.8798175907,75056.10734893172,74998.97629010395,74999.42332499305,75032.28038934236,75013.30375829981,74993.18718829003,74956.0385890053,74959.21253671795,74985.81111261978,74992.74015340093,74983.57593817424,74975.17168225905,74950.56241161376,74946.78496680081,74941.57701034272,74912.92207395102,74896.04650688726,74862.34007624866,74850.44894819843,74840.413014938,74913.79379198478,74957.44674890599,74958.31846693975,74976.49043518191,74985.63229866413,74964.55460364278,74985.31937424176,75010.01805186487,75046.45139532702,75083.66704984511,75106.44347744506,75161.83110020532,75218.67158635517,75267.0631131009,75361.18630900221,75460.18218519476,75525.47163074871,75617.15848650438,75733.00757801623,75852.23178294084,76004.9389010595,76161.80344364684,76304.18405582715,76417.6862141712,76556.55760247202,76711.83517120304,76816.82131490963,76924.82494411766,77029.27464595731,77105.449391061,77147.13539447016,77244.52194506192,77333.14661182721,77387.19312992014,77413.94816803315,77434.66823514322,77428.9238368182,77414.03757501097,77450.44856672866,77510.32889012444,77515.46979134915,77486.54663402398,77456.39413075378,77445.82175562641,77390.03180146597,77335.89587639521,77295.26040497547,77267.27602091743,77210.03320336738,77145.74958631392,77106.83519921722,77021.6750528425,76919.01349055929,76835.59678025208,76729.87302897847,76613.1298676884,76483.3556393809,76317.52804726697,76148.86178360722,76036.63367469712,75936.922542682,75823.26392212676,75701.55867356762,75568.92342196983,75431.23667612513,75310.40314559975,75195.49282735502,75100.98965179798,74991.73432490043,74861.33424774818,74738.71257766636,74638.53205901767,74564.63719184842,74502.07465911802,74444.5189171456,74361.48218649413,74296.05863047346,74227.77405116249,74182.1094372403,74153.52155608196,74090.35552625127,74056.42557816811,74015.36542360371,73944.21982100247,73887.66990753054,73857.45034902697,73860.46783452843,73835.09860457166,73806.8236478357,73778.39222888854,73748.68676050744,73754.76643499928,73792.9208627845,73819.4747351974,73855.10341585916,73868.7379799769,73904.32195714975,73976.47338825147,74030.20698192203,74056.02324676792,74152.6051345593,74247.77886245,74290.56010133745,74320.6902528632,74379.52004426958,74473.30796400404,74529.92493270933,74602.63515742245,74672.50671058973,74734.21987703085,74808.49472385582,74879.66267820152,74931.60813231565,74961.64887686359,75011.76148793238,75086.21514871302,75120.48037296301,75121.95558809706,75123.92254160912,75175.01862943395,75214.4024031642,75250.72398790407,75310.09022117736,75319.85793350435,75285.65976448772,75276.22732832759,75331.19026794318,75387.11433257036,75423.14534463231,75442.41254835279,75465.47954863067,75499.61066241392,75497.68841239077,75522.4317935028,75570.30923012606,75605.58028287653,75641.14190830493,75712.0192899727,75733.83459256108,75722.70342382234,75721.76465055521,75754.84523234908,75795.57011074664,75807.77416321923,75802.43209629442,75801.78389570522,75775.45354073687,75736.18152572888,75754.7334736268,75842.12879444704,75916.13542033857,75892.75549563831,75858.1549952215,75852.0529689852,75892.24140551584,75929.1217838671,75907.39588825653,75940.58822877267,75987.50454038437,75969.86901400912,75963.20819416145,75927.89243792206,75929.88174317859,76001.49673241339,76024.60843618018,76068.23904135694,76110.70735582201,76105.4099923861,76097.8103992713,76083.95231770902,76062.18171860954,76072.9105559481,76095.21759691449,76146.26898125041,76173.5828129748,76160.19411804607,76154.67323716561,76089.33908812274,76040.76874742136,76034.3985002516,76034.6443694406,76002.50256091387,75947.76313874283,75909.34049002416,75907.55235046773,75881.9596030664,75831.10938443057,75799.92870091542,75751.76069161424,75721.3176156661,75700.57519681158,75661.19142308133,75602.07105899704,75545.0294071471,75497.33078447948,75445.81001351,75434.23180988214,75422.02775740955,75364.87434683733,75308.41384034323,75275.64618297174,75251.72981640456,75245.09134830134,75218.44806891061,75168.06723690835,75170.32476309834,75161.07114089384,75136.57362897083,75139.68052145011,75159.4394635486,75173.31989685535,75164.35684732877,75138.07119584933,75146.1401755977,75190.46368485257,75173.92339395564,75125.42010848763,75092.18306448258,75036.10253764421,74984.20178701899,74998.9986418484,75011.58267397675,75005.83827565174,74947.09789122318,74913.27970186231,74896.51589352083,74876.84635840016,74839.49659341533,74826.33141593116,74786.65706952299,74703.62033887152,74675.21127166883,74647.09277714405,74589.82760784955,74595.0579160521,74589.06764853808,74540.27379039214,74497.5372549936,74447.0670160135,74376.99429714613,74336.22471525964,74300.01488924204,74227.93051337368,74164.07157946487,74153.38744561523,74083.65000291467,74055.50915664544,74023.14383067416,73967.44328349154,73925.37730042664,73909.93224500802,73893.41430585555,73884.83123598472,73923.79032657032,73982.28484180986,74006.44707756604,74017.80176374933,74064.53926140539,74134.65668376168,74167.62550683327,74253.45620554165,74381.308183826,74468.14471103487,74524.26994136214,74556.45645337779,74615.9567971178,74716.65140588897,74884.73652419288,75024.47963052745,75146.5425069979,75258.79296765244,75408.5943589919,75504.05865956053,75530.12079359542,75578.3335063855,75640.56076294908,75687.29826060514,75771.94431685738,75865.82164356967,75990.07499099673,76107.2651871759,76201.8354179663,76278.68071540365,76345.49007958056,76398.21784475063,76482.57332832496,76534.7646516281,76547.92982911228,76583.64791675186,76626.63032133941,76626.3397486615,76628.95490276277,76667.26579275916,76741.98767447325,76726.38615684345,76653.6982838748,76584.36317257442,76545.69465466675,76493.86095927488,76478.79588351201,76476.06897068846,76485.56846208197,76528.37205271388,76516.03388977455,76452.08554888792,76400.85535059635,76356.64360006376,76290.68360217614,76228.41164212367,76167.23491754949,76111.33320466676,76093.51886433589,76108.82980928777,76124.27486470639,76107.30989066481,76063.85809944369,76039.33823577622,75980.93312751451,75883.23365250035,75790.49626475529,75716.44493537485,75661.32553354806,75600.41702990736,75551.62317176141,75482.13159824986,75401.55355948849,75322.94247423917,75254.65789492821,75181.25476613698,75087.6233086137,75020.29985431432,74953.40108315958,74887.41873352752,74869.96202110792,74876.86871014461,74826.4655263979,74754.42585401844,74672.43965535637,74624.49516349974,74618.28137854116,74588.73237237125,74514.59163601299,74462.28855398757,74422.18952443475,74407.79500100554,74392.12642814236,74389.9583089302,74429.56560010501,74428.87269602688,74402.16236140279,74371.80869243249,74369.23824182013,74344.80778513048,74310.22963645813,74295.05280197297,74318.27626446204,74398.42962007876,74439.64623685434,74404.12931491487,74375.29556456752,74429.92322801628,74487.4789699887,74512.87055168994,74569.53222388413,74674.58542282408,74784.57835728864,74886.85993991613,74998.57395870375,75059.05777919982,75075.28514567437,75131.61154170174,75183.95932721607,75251.57335419337,75320.61789281582,75413.02000439406,75486.35607795192,75541.4754797787,75603.63568110892,75675.72005697728,75761.70721789685,75837.01024496678,75931.24519959035,75998.8368748232,76072.84350071472,76183.70815321305,76265.76140710848,76403.87283609783,76505.48386639165,76606.06671644053,76687.87410114695,76785.126541272,76875.60640282708,76937.163107057,76983.61003203513,76966.91327892701,76983.45356982393,76969.55078477273,76961.83943293565,76951.28940955274,76935.62083668957,76941.76756641478,76910.63158638854,76899.2545484608,76823.9291696464,76756.20338394682,76746.30156115313,76741.04890120613,76710.53877002464,76700.25696757519,76698.98291814124,76652.98302805221,76605.01618445113,76538.94442784124,76524.84047708995,76479.37702886785,76399.11191452884,76318.10919262281,76206.12695290172,76103.77831504086,76012.78436336332,75948.27722886529,75893.06842006069,75781.60027046208,75684.54899603713,75603.21099796427,75511.1665142973,75438.99273145113,75358.92878281222,75276.3167353054,75193.70468779858,75095.33466045078,74983.86651085217,74933.68684455,74850.56070692072,74734.46574621985,74706.54841739517,74719.40067045698,74690.20929219834,74625.32217804459,74543.15716542688,74471.45276921424,74399.74837300162,74338.86222110537,74285.10627569036,74229.69630118564,74218.09574581335,74217.42519347969,74214.25124576704,74206.80811486341,74191.13954200024,74176.6109081043,74136.37776808474,74123.25729408948,74094.26708153094,74077.32445923382,74113.55663699587,74071.89298533119,74044.69091232907,74050.90469728765,74001.48499029696,73988.14099885714,73998.48985653995,74021.221580651,74089.28264251741,74155.60026831631,74151.08521593633,74123.39140455621,74085.50519770446,74087.67331691663,74122.16205861117,74126.78886971342,74207.88099859726,74240.55924899093,74271.58347029489,74299.56785435294,74330.18974425671,74358.24118354812,74427.93392275977,74467.98824882368,74490.29528979007,74496.71024044875,74505.51682776414,74506.41089754234,74503.70633646326,74491.6810979463,74506.92498766482,74549.25919166318,74577.44474142132,74595.10261954101,74593.51564568469,74596.0637445526,74615.80033490663,74606.99374759123,74608.06663132508,74639.13555611797,74628.22790482377,74616.9626256183,74629.5690094911,74638.15207936193,74623.44463151034,74622.6176169655,74646.17635562138,74670.83032975558,74673.22196641231,74701.69808884837,74780.8009124757,74834.04276776825,74840.88240157157,74838.11078525911,74878.27687004529,74897.63348074359,74926.82485900223,74952.23879244791,74987.77806613184,74984.53706318582,74995.10943831319,75022.13269735964,75074.18991019606,75131.231562046,75186.06039119487,75210.17792346215,75220.63853986723,75245.1584035347,75290.80066571244,75329.64799757577,75373.14449228579,75351.06096876395,75310.15727641074,75291.49356979056,75322.2272184166,75368.65179165028,75394.89273964081,75388.36603025986,75453.49901360262,75546.50462228115,75550.14795662736,75520.91187487982,75527.57269472751,75570.08571268151,75588.70471581277,75584.92727099983,75609.0448032671,75650.97667586525,75670.86972843048,75677.73171397827,75693.19912114134,75745.32338921112,75738.61786587452,75730.41477565942,75721.0270429882,75765.46231096535,75776.57112795963,75743.64700837697,75726.54792386865,75710.74524053874,75722.7257755668,75750.9783805583,75754.06292129314,75775.40883724796,75827.51075357327,75806.96950041885,75802.16387536096,75812.98211967733,75801.98506140531,75785.40006701948,75806.56716901866,75845.32509390416,75860.0548935002,75869.3085157047,75853.66229458599,75819.97821569184,75805.47193354034,75795.36894504655,75807.46123879687,75824.18034364944,75820.22408488084,75818.88298021353,75836.13852693302,75828.76245126277,75821.00639593678,75811.90923594347,75822.7945354932,75819.75469824728,75804.10847712857,75783.56722397414,75740.58481938658,75705.40317361393,75700.26227238921,75724.60332210104,75744.11639501053,75794.05019212369,75826.21435239486,75814.72555574484,75789.62454672153,75734.0804617501,75755.1805085159,75796.62064273604,75780.75090417278,75761.10372079656,75818.83827672462,75893.02371657178,75869.15205349351,75818.97238719134,75777.19697680438,75757.39333121698,75730.19125821487,75655.7599491787,75563.00020968917,75470.17341496628,75379.80531213347,75352.22325947562,75323.94830273966,75278.4177992842,75227.50052541502,75165.72030374054,75084.13643647867,74991.13082780014,74915.26900711883,74850.56070692072,74771.45788329338,74678.4746263593,74639.64964624043,74636.29688457213,74656.81578598211,74599.2600440097,74532.7412525107,74488.66361244484,74398.13904740084,74321.07023251895,74294.27049091703,74296.81858978493,74311.07900274743,74285.8885867463,74273.90805171824,74218.520428958,74172.74405631353,74174.82276854786,74182.44471340712,74189.9101960552,74202.82950435037,74221.40380399273,74225.80709765042,74210.38439397626,74201.37664096078,74199.83437059337,74171.93939351314,74172.83346329135,74148.71593102407,74122.81025920037,74121.75972721097,74135.43899481762,74154.28151539345,74169.07837022285,74138.67999776364,74114.0483753739,74135.26018086198,74141.38455884274,74175.47096913708,74227.48347848457,74266.19669988117,74278.44545584268,74300.19370319768,74324.15477325377,74338.1469652828,74369.66292496478,74428.22449543768,74464.9260598333,74502.52169400713,74504.89097891939,74520.00075817118,74548.02984571813,74543.82771776053,74547.8957352514,74545.21352591677,74560.81504354656,74563.58665985902,74545.01236021667,74580.41752343388,74644.29880908714,74690.79043755418,74646.73514923277,74645.19287886535,74631.93829440336,74617.90139888543,74598.6118434205,74618.9072273859,74646.48928004377,74665.84589074206,74720.384147213,74721.59114141359,74724.1839437704,74730.889467107,74738.37730149952,74738.82433638863,74735.35981599806,74792.91555797048,74804.24789240932,74798.52584582876,74795.77658126075,74819.9611687614,74874.67823918798,74916.43129783051,74946.33793191171,74975.64106889261,74949.42247264653,74936.07848120671,74935.9890742289,74960.77715882983,74982.79362711831,74971.50599616837,74925.01436770134,74887.53049224979,74833.03693926775,74729.10132755057,74618.79546866364,74475.94546984977,74315.50464814957,74148.4030066017,73980.27318480887,73831.74584290336,73629.10492767155,73409.52139014262,73206.7240126996,72990.87321649471,72775.11182726762,72514.40107994093,72281.69706841673,72085.40404861022,71888.55223519233,71686.42541008299,71532.60070474156,71366.3931329719,71205.70644208271,71056.39678912125,70942.96168601056,70864.86469088373,70777.69288750802,70649.7291505014,70576.19191124343,70525.47580307434,70458.5323284307,70434.68301709689,70448.58580214808,70494.67509921493,70592.12870504007,70659.2286418949,70740.38782601211,70867.01045835143,71012.52031475549,71153.60452575739,71333.64782734487,71502.53760844917,71660.13975860355,71901.78446790988,72105.85589478683,72356.1283774529,72576.98596441578,72795.58602518869,73032.31335071485,73227.91346644323,73401.22889294969,73581.47336023729,73743.34469358262,73943.99630355791,74167.51374811099,74397.71436425619,74620.74007043125,74831.22644796687,75021.05981362579,75200.14199020172,75389.21539654916,75604.97678577623,75773.84421513608,75877.60101289762,75969.71255179794,76057.1525761071,76147.9230103401,76217.45928734056,76296.36094526779,76345.91476272521,76400.6318331518,76439.7920894375,76476.06897068846,76497.52664536556,76527.27681723557,76608.23483565269,76644.71288260375,76689.21520581427,76727.23552313275,76752.42593913389,76812.86505614103,76898.02520251575,77004.68772705647,77083.32116405024,77147.76124331489,77135.78070828685,77106.94695793951,77065.99856209739,77003.79365727826,76933.02803433276,76950.88707815255,76939.64415069153,76879.51795810675,76770.93318354287,76647.21627798275,76561.072654852,76532.21655276019,76522.89587532233,76519.65487237631,76509.82010481598,76494.73267730864,76545.1135093109,76586.88891969787,76666.57288868104,76818.20712306585,76987.18631114798,77210.43553476757,77450.67208417322,77764.78114900365,78150.32638911324,78607.37485973536,79062.23285940086,79551.82546994991,80173.04750359626,80838.77186045311,81524.88100825323,82238.34869126663,82964.95920001974,83727.64542432374,84515.36560241766,85261.51153582473,86025.6059200294,86761.47005098702,87436.87271319304,88072.44456677968,88674.93583857249,89222.7100399387,89680.18319370547,90114.00820183853,90540.74770697925,90880.0024843219,91203.4769300791,91498.65406735589,91760.61651237209,91958.49650603492,92082.8839639287,92186.59605820132,92279.93694304669,92358.86095271837,92404.23499396266,92422.54107267155,92402.89388929533,92295.67257114322,92214.15575911471,92109.99662995299,91936.81531391326,91770.3618729546,91568.74913796772,91388.30350498004,91163.82493541538,90893.50293797291,90632.88159762401,90376.03770208808,90082.73811134555,89826.09538150972,89563.61884637104,89263.59138054746,89004.04292393243,88756.63146455663,88490.24337413828,88255.99709224667,87994.92871700868,87732.20631268101,87467.38284437453,87175.29024783257,86903.13540734476,86607.91356657905,86314.18929269187,86030.92563520976,85797.59577484081,85567.84219358471,85328.76793489074,85053.43914669027,84779.63027711277,84546.83685861074,84360.02097845328,84141.21975198029,83914.59541494792,83684.28304008044,83427.88617943361,83184.31922010412,82920.92626344279,82673.1124726668,82500.64641244966,82302.43114261999,82086.40153245945,81882.15129162685,81666.63577158879,81478.43408327509,81299.59777588818,81090.69837220888,80888.63860233291,80682.04142833251,80484.22848990303,80288.78483638584,80087.79795024371,79865.84512780252,79680.39270405682,79487.69831510763,79305.8221704748,79162.50278502736,78988.33799223161,78821.61633033947,78636.54388624954,78461.46267193112,78330.70496686756,78161.9939997189,77990.9584511469,77849.98599886728,77681.67736311881,77481.11516012135,77324.76470765648,77183.45697921002,77041.8363263412,76885.93290876543,76732.28701737965,76554.88122163787,76380.35880093084,76227.40581362318,76093.09418119123,75975.65811582305,75842.39701538051,75718.00955748673,75579.9875354752,75440.803222752,75302.55768329593,75169.56480378685,75039.27648535687,74900.31569007822,74776.01763916227,74646.10930038802,74514.77044996864,74400.44127707974,74287.43085711371,74198.71678337059,74063.06404627133,73899.96336698096,73735.2533620898,73633.4858695848,73549.62212438848,73436.61170442244,73318.72860416515,73252.56744057745,73165.77561685749,73039.19768800709,72935.99968385694,72859.60142130869,72758.52683288179,72646.18696524942,72553.62839145999,72486.72962030525,72482.48278885875,72422.40129976289,72330.37916784038,72224.63306482232,72152.41457848724,72103.62072034129,72046.1543853467,72005.20598950458,71920.71639546352,71850.5095661294,71795.41251604707,71714.29803541876,71648.60625846461,71608.93191205645,71540.02148390072,71460.49397712875,71396.098601353,71384.56510121407,71368.91888009536,71289.23491111219,71194.41881113277,71116.94766485068,71052.90991698622,70986.18995978712,70909.4340693276,70815.15441121512,70741.88539289062,70689.35879342066,70651.42788308,70613.16169657251,70543.73717829432,70471.45163672586,70405.73750802726,70377.28373733566,70340.91744910687,70288.50260835918,70233.13733734337,70212.10434581093,70177.07916224947,70127.88297270334,70101.50791424607,70056.22327997962,69986.84346519035,69960.1107788218,69965.54225272444,69941.64823790173,69938.74251112253,69936.97672331057,69900.45397287059,69903.35969964978,69891.6473855552,69838.80786166285,69791.4221634176,69762.63311655917,69754.27356413288,69761.80610201432,69781.85561679074,69752.99951469892,69765.96352648301,69783.08496273577,69802.44157343407,69834.42691974962,69801.59220714477,69811.3822712162,69807.91775082563,69774.34543065375,69774.9712794985,69826.04501557887,69884.85245524079,69929.62299938477,69966.90570913622,70002.44498282016,69970.86196790481,69954.79106364145,69969.18558707066,69966.97276436958,69963.53059572347,69980.20499708713,70004.79191598797,70062.92880331622,70099.02687061153,70148.46892934668,70169.63603134586,70180.29781345103,70229.24813380816,70288.36849789244,70295.20813169576,70257.52309054411,70217.51346796913,70223.5707907165,70285.46277111325,70285.35101239098,70251.30930558554,70258.8865469559,70229.29283729706,70243.88852642638,70308.03803301312,70359.31293479359,70404.64227254895,70438.16988923191,70405.89397023845,70410.67724355188,70473.55270070466,70496.0385556267,70474.89380537198,70491.72466894683,70515.01518666926,70542.53018409375,70572.97326004186,70631.0654438812,70704.96031105045,70740.58899171221,70782.90084396611,70770.0038874154,70787.32648936826,70814.57326585929,70808.24772217844,70822.91046654111,70882.6343277257,70897.14060987718,70899.48754304499,70925.50497359097,70924.3426828793,70909.05408967186,70933.39513938369,70969.15793051218,71000.00333786051,71029.88762019726,71090.66201337124,71142.11572910735,71168.11080790887,71225.55479115901,71275.823864439,71298.10855366095,71358.10063577899,71424.2617993667,71445.74182578824,71462.99737250774,71513.86994288802,71543.84363220258,71581.70748730988,71661.4138080375,71728.67020710353,71781.62148971815,71820.53587681483,71878.67276414309,71943.5822300413,72004.98247206003,72071.36715309229,72157.0860930784,72201.99074768911,72195.70990749716,72193.18416037371,72220.40858512027,72287.08383883045,72342.60557205744,72399.0437268071,72462.16505314887,72507.69555660433,72537.69159766336,72578.68469699439,72610.67004330993,72647.86334608357,72682.57560522266,72740.31016115072,72790.60158617517,72815.12144984263,72853.74526426141,72883.36132566468,72875.98524999444,72862.86477599917,72862.97653472144,72860.18256666453,72887.96578502248,72930.210582043,72983.228919891,72991.16378917263,72994.11421944073,72996.17057993062,72977.84214947726,72965.25811734893,72970.48842555148,72977.68568726607,73024.80316457787,73067.27147904295,73087.83508394183,73116.33355812235,73143.13329972426,73151.96223878411,73164.36745695681,73200.82315216342,73228.76283273254,73201.20313181914,73221.69968148466,73260.16703369225,73309.56438893848,73311.01725232808,73326.10467983541,73392.10938121192,73468.86527167146,73472.21803333974,73501.76703950966,73525.63870258794,73560.03803730465,73604.54036051517,73634.64816029646,73659.70446583086,73655.97172450683,73662.76665482124,73651.25550642675,73636.34689287507,73639.52084058772,73644.61703832353,73631.94359921737,73623.4275845799,73583.68618293837,73534.69115909233,73541.95547604031,73571.16920604339,73528.16444971139,73473.55913800707,73399.1278289709,73398.81490454852,73437.23755326719,73373.73624726967,73261.95517324867,73176.5715094294,73092.73011597754,73024.26672271093,72969.41554181761,72972.723599997,72967.9179749391,72889.06102050078,72842.3458745892,72827.59372324869,72776.49763542386,72734.25283840334,72720.23829462985,72674.1042940741,72677.9040906315,72680.89922438851,72639.07911051263,72604.90329324047,72555.23771706078,72530.58374292657,72524.90639983493,72534.0706150616,72543.16777505491,72531.79073712716,72554.90244089394,72527.43214695837,72467.88709972943,72444.21660235127,72457.18061413534,72444.93185817383,72485.23205342675,72495.33504192055,72471.79865500912,72452.64321001092,72417.50626772718,72403.67053790933,72409.59375018999,72410.80074439058,72373.89801429487,72354.94373499676,72329.59685678445,72311.53664726457,72301.34425179294,72257.1101495159,72230.62333233636,72217.25698915208,72236.21126845018,72285.45216148521,72293.00705111111,72280.62418468288,72272.30933574549,72248.25885871159,72222.30848339897,72197.1404191423,72198.14624764278,72219.80508801999,72232.99261724862,72214.73124202863,72178.8343404334,72184.19875910268,72202.37072734484,72209.85856173738,72215.35709087338,72229.86337302487,72247.23067846664,72262.76514086308,72275.0586003135,72280.93710910525,72276.77968463657,72278.92545210427,72284.33457426245,72323.83010671499,72368.66770609232,72364.42087464582,72344.7736912696,72417.90859912738,72434.0465586241,72412.76769790264,72394.86395059395,72455.9512681903,72523.7664608677,72549.98505711378,72539.09975756405,72560.53508049669,72562.23381307529,72557.53994673968,72567.24060383327,72589.4805895663,72594.10740066855,72597.4378105924,72632.9994360208,72623.1870202049,72635.27931395522,72665.38711373653,72673.94783186291,72672.4502649844,72677.54646272022,72721.26647487479,72778.10696102465,72800.10107756866,72806.3372142717,72814.74147018688,72854.84049973972,72886.26705244387,72859.48966258642,72889.10572398969,72951.48944276446,72958.19496610106,72983.89947222466,73025.02668202242,73066.98090636503,73085.73401996303,73106.76701149548,73107.2587498735,73091.54547352142,73137.34419791034,73178.51611119701,73192.53065497048,73198.02918410649,73232.22735312312,73291.12419976285,73335.93944739574,73362.24745061963,73370.80816874602,73399.39604990436,73369.15413965633,73318.43803148724,73323.06484258949,73311.06195581699,73308.26798776007,73339.78394744205,73399.28429118208,73414.50582915614,73395.66330858032,73385.4709131087,73339.22515383067,73350.66924699179,73392.64582307886,73470.49694901668,73523.69410082031,73499.46480983077,73467.81473968206,73459.3434285335,73449.41925399534,73444.99360859318,73437.28225675611,73475.95077466378,73554.38304595745,73535.33935968153,73493.02750742764,73510.70773729178,73511.73591753673,73502.16937090986,73508.4502111018,73528.2091532003,73569.13519729796,73635.16225041894,73655.4352826399,73641.64425631097,73622.22059037931,73625.21572413633,73597.67837496739,73578.52292996919,73624.38870959148,73663.16898622144,73666.85702405656,73672.0426287702,73664.06305599965,73675.21657648285,73677.13882650601,73674.54602414918,73663.77248332174,73639.58789582108,73623.0252531797,73588.89413939645,73560.0603890491,73551.611429645,73560.44036870485,73568.24112751975,73577.11477006851,73556.9087930809,73558.33930472605,73565.89419435195,73528.99146425622,73494.92740570634,73480.66699274385,73465.06547511405,73480.06349564357,73445.8876783714,73436.72346314472,73452.86142264145,73425.45818393925,73383.41455261881,73321.38846175534,73233.05436766797,73188.23912003507,73169.0166198035,73086.49397927451,73057.70493241608,73036.69429262809,73040.89642058569,73007.56996960283,72948.89664040765,72911.2563027449,72859.06497944177,72824.0397958803,72789.30518499675,72737.96322798291,72715.61148352761,72705.21792235589,72693.61736698358,72679.11108483208,72660.33561948963,72662.7496078908,72605.2385694073,72577.07537139361,72549.60507745804,72524.4146614569,72511.38359443947,72524.48171669028,72529.2649900037,72517.30680672012,72540.93260060938,72541.46904247631,72522.3135974781,72518.15617300943,72548.08515883508,72546.40877800093,72531.79073712716,72539.59149594206,72533.24360051675,72475.82196901107,72433.01837837916,72409.01260483416,72388.87368307993,72428.90565739937,72490.08238197355,72489.79180929564,72477.25248065621,72462.03094268215,72466.76951250667,72493.54690236413,72506.22034147028,72530.04730105965,72544.28536227767,72550.43209200288,72521.6653968889,72535.38936798446,72570.14633061246,72597.8401419926,72634.85463081057,72671.399732995,72666.12472130355,72669.27631727175,72675.57950920815,72668.22578528235,72667.48817771532,72648.75741586178,72615.14039220099,72601.90815948346,72635.5922383776,72647.88569782802,72679.80398891021,72680.74276217732,72657.9439828329,72696.43368678495,72746.90392576503,72741.04776871775,72756.44812064744,72759.84558580465,72753.27417293479,72755.30818168023,72750.54726011126,72710.20236136942,72728.4190331005,72753.65415259053,72744.15466119703,72727.6143703001,72739.88547800606,72729.2683993898,72716.19262888344,72742.83590827417,72781.68324013748,72794.5801966882,72766.75227484135,72783.40432446056,72831.10294712818,72876.0523052278,72922.83450637276,72942.19111707105,72960.94423066905,73001.1326671997,72979.54088205587,72963.78290221488,72966.80038771634,72971.31544009631,72963.93936442607,72964.9228411821,72997.06464970883,72976.25517562094,73001.19972243306,73042.32693223083,73008.57579810331,72966.6215737607,72958.17261435659,72992.12491418421,73019.4387459086,73024.08790875529,73035.50965017195,73022.74680408798,73060.40949349517,73101.78257248194,73105.58236903934,73071.38420002273,73053.07812131383,73064.41045575267,73082.91770016166,73089.1538368647,73073.41820876815,73095.34527007882,73102.38606958224,73104.62124402777,73129.05170071742,73158.98068654307,73171.40825646023,73193.24591079306,73186.38392524527,73170.40242795974,73163.76395985651,73213.1836668472,73273.57808036543,73212.46841102463,73210.09912611236,73241.41392009424,73237.48001307012,73213.54129475848,73199.61615796282,73211.5743412464,73189.98255610258,73175.69979139564,73168.86015759232,73230.32745484442,73254.2885249005,73256.45664411267,73214.63653023679,73180.79598913145,73164.70273312363,73190.69781192516,73228.29344609898,73264.19034769421,73245.59369630739,73204.04180336498,73200.13024808529,73219.35274831686,73181.13126529829,73145.14495672524,73127.55413383892,73148.05068350444,73163.92042206769,73159.47242492108,73146.93309628166,73148.90004979374,73138.79706129993,73206.94753014417,73248.65588529776,73260.43525462571,73275.52268213304,73275.47797864414,73239.9834084491,73210.0767743679,73157.12549175328,73139.35585491132,73117.11586917829,73120.20040991312,73125.49777334902,73126.05656696041,73085.86813042976,73044.96443807655,73013.26966443892,72954.43987303256,72913.93851207955,72889.53040713434,72830.07476688323,72773.86012957814,72696.74661120733,72649.83029959563,72637.67095061195,72601.66229029445,72586.59721453158,72581.70218249586,72561.71972295281,72520.65956838842,72492.33990816354,72482.30397490312,72473.89971898792,72466.50129157321,72470.63636429743,72454.07372165605,72421.86485789595,72396.38386921691,72390.08067728051,72382.72695335472,72356.24013617518,72354.56375534103,72379.95533704225,72388.56075865755,72415.5393142151,72441.35557906098,72489.97062325128,72531.83544061607,72513.55171365163,72497.07847798806,72516.74801310874,72494.3068616756,72515.51866716369,72521.19601025534,72458.4546635693,72447.50230878619,72458.83464322504,72447.23408785273,72440.99795114971,72436.348788303,72453.0455414111,72484.71796330428,72508.366108938,72502.95698677981,72533.95885633932,72569.09579862306,72597.6389762925,72611.63116832152,72641.60485763608,72616.19092419039,72567.128845111,72582.66330750744,72587.64774652098,72571.10745562405,72616.12386895703,72656.8934508435,72647.28220072773,72637.4921366563,72676.2053580529,72672.6514306845,72678.3064220317,72718.36074809561,72767.86986206411,72769.4791876649,72719.70185276293,72714.27037886028,72711.63287301456,72716.17027713898,72747.70858856542,72720.14888765203,72707.05076540122,72719.47833531837,72699.07119263068,72670.907994617,72649.00328505079,72659.77682587825,72649.94205831792,72641.56015414717,72710.91761719198,72696.76896295178,72689.19172158143,72683.02264011177,72692.32096580518,72685.97307037987,72615.85564802357,72589.50294131075,72648.73506411733,72698.91473041949,72714.71741374939,72736.89034424906,72743.30529490772,72735.23631515936,72755.66580959152,72786.28769949528,72810.24876955137,72826.07380462573,72820.59762723418,72809.0864788397,72822.67633946853,72875.58291859424,72873.12422670415,72872.36426739267,72883.67425008706,72920.08524180476,72929.07064307579,72956.45153003353,72951.71296020901,72915.4137272136,72914.47495394647,72905.73542186445,72913.58088416826,72949.03075087437,72933.18336405556,72912.75386962341,72942.50404149342,72959.08903587927,73020.39987092017,73037.07427228383,72997.86931250922,73007.32410041381,73061.95176386258,73093.35596482229,73143.20035495763,73155.29264870795,73158.51129990951,73155.00207603002,73139.93700026715,73127.73294779456,73152.99041902905,73142.48509913505,73149.52589863849,73182.82999787689,73187.0768293234,73194.6764224382,73192.82122764841,73218.033995394,73272.54990012049,73293.29231897501,73283.41284792576,73276.37204842234,73261.39637963728,73288.41963868376,73326.14938332431,73336.56529624049,73323.80245015651,73317.16398205329,73330.7091391932,73369.22119488969,73364.4155698318,73317.7004239202,73266.20200469518,73309.67614766075,73374.60796530342,73367.65657277782,73335.87239216238,73353.93260168226,73382.5651863295,73385.62737531989,73371.05403793503,73383.43690436326,73420.13846875889,73412.96355878873,73364.32616285398,73303.86469410238,73283.0999235034,73297.76266786607,73312.09013606193,73300.69074638972,73312.91715060678,73339.06869161948,73330.48562174865,73300.6013394119,73253.17093767774,73208.26628306703,73224.29248384148,73237.56942004793,73247.58300156391,73245.86191724085,73227.19821062067,73224.7842222195,73217.25168433806,73216.08939362639,73164.43451219017,73116.49002033354,73092.23837759953,73061.08004582883,73037.3424932173,72985.19587340306,72902.22619798496,72855.60045905119,72839.95423793247,72781.32561222621,72714.87387596058,72671.98087835085,72623.29877892719,72576.20365335986,72512.59058864004,72426.15639283138,72377.04961026307,72332.16730739681,72220.11801244236,72154.09095932137,72160.32709602441,72148.3242092519,72121.61387462782,72159.76830241302,72093.40597312522,71999.72981211303,71966.42571287462,71964.92814599612,71983.12246598274,71965.77751228542,71959.94370698258,71942.01760792943,71959.60843081576,71920.33641580777,71923.55506700934,71928.04776764486,71919.26353207392,71918.2800553179,71890.85446487123,71881.33262173327,71949.14781441067,72030.08348108333,72092.84717951383,72107.24170294305,72122.21737172811,72167.99374437258,72228.34345440191,72294.88459764536,72388.47135167973,72463.46145432729,72543.81597564412,72637.33567444512,72709.53180903576,72793.55201644325,72898.76167759439,72957.85968993422,73000.43976312158,73075.27340355795,73151.7163695951,73198.74443992907,73241.05629218296,73310.61492092788,73337.83934567444,73340.78977594254,73324.62946470136,73284.41867642626,73289.4031154398,73295.1028102759,73261.08345521492,73219.37510006131,73222.07966114041,73209.0262423785,73176.66091640723,73112.77963075395,73052.22875502452,72984.97235595851,72963.40292255914,72950.8188904308,72912.6644626456,72853.58880205022,72781.34796397066,72732.30823663571,72752.11188222312,72727.8155360002,72697.66303273,72698.33358506365,72723.09931792013,72735.05750120372,72717.22080912838,72687.71650644738,72666.01296258128,72672.4055614955,72661.52026194576,72669.63394518304,72637.2015639784,72585.36786858653,72594.95676695785,72616.95088350188,72636.57571513364,72684.07317210117,72677.16648306447,72672.42791323995,72638.60972387907,72635.77105233325,72664.13541604704,72693.3044425612,72664.06836081366,72622.58352310462,72684.43080001244,72685.0566488572,72638.27444771225,72638.96735179036,72621.62239809304,72582.86447320753,72541.04435933166,72525.53224867968,72515.9657020528,72520.25723698823,72510.51187640571,72507.49439090423,72529.6673214039,72549.44861524685,72573.38733355848,72559.39514152946,72585.07729590862,72640.55432564668,72673.54550046271,72648.22097399486,72623.56699986065,72620.21423819235,72627.92559002944,72624.14814521649,72597.54956931467,72606.06558395215,72664.87302361405,72692.32096580518,72707.29663459022,72734.54341108125,72764.60650737364,72777.90579532455,72782.93493782698,72769.18861498697,72793.1273332986,72807.61126370565,72800.9280921135,72775.22358598991,72747.50742286532,72706.29080608975,72687.38123028055,72698.80297169721,72707.38604156805,72713.13043989307,72727.94964646694,72747.68623682097,72779.85039709216,72789.77457163032,72779.91745232552,72807.09717358317,72807.186580561,72803.45383923696,72844.91632520156,72898.91813980558,72922.92391335058,72901.3097764623,72905.28838697534,72931.48463147695,72939.4642042475,72946.84027991776,72952.33880905376,72953.05406487633,72944.44864326104,72937.7654716689,72950.34950379723,72971.38249532969,73020.489277898,73019.19287671958,72994.02481246291,72985.82172224781,72987.56515831532,72969.70611449554,72940.98412287046,72958.88787017917,72955.22218408849,72898.6052153832,72883.29427043132,72859.08733118622,72820.99995863438,72777.43640869098,72725.82623074368,72633.4464709099,72570.95099341286,72522.40300445593,72453.2020036223,72366.45488339126,72275.9079666028,72214.82064900645,72161.04235184698,72097.78691503846,72024.78611764743,71929.76885196792,71878.471598443,71819.19477214752,71728.89372454808,71657.14462484654,71618.43140344994,71582.10981871007,71577.23713841882,71582.91448151047,71578.22061517485,71533.47242277532,71470.10522724452,71398.08790660952,71334.7430628232,71309.39618461087,71268.04545736856,71296.40982108234,71305.55168456456,71266.68200095677,71236.12716628637,71194.17294194376,71181.87948249334,71159.41597931576,71126.91654287775,71099.46860068662,71055.3239053874,71091.28786221599,71111.8291153704,71115.53950495,71103.26839724403,71106.41999321223,71120.74746140809,71119.89809511878,71137.46656626064,71175.86686323487,71167.66377301977,71167.86493871987,71155.41501705826,71152.48693853461,71153.60452575739,71117.46175497315,71080.08963824388,71083.9788417791,71124.90488587676,71166.85911021937,71227.65585513781,71223.02904403556,71206.95813977219,71196.67633732276,71229.82397434997,71297.84033272747,71377.41254298837,71396.4562292643,71427.83807847954,71467.49007314326,71479.29179421566,71449.40751187892,71483.73979136227,71530.14201285149,71615.63743539303,71694.8743694871,71694.98612820938,71680.07751465768,71698.62946255559,71709.3806516386,71697.28835788828,71722.21055295593,71744.91992532252,71755.00056207187,71783.9460711415,71822.39107160462,71825.38620536163,71827.28610364033,71851.33658067425,71865.46288317,71903.4161452551,71919.28588381837,71936.11674739323,71943.40341608565,71952.81350050135,71969.44319837609,71990.81146607536,72013.14085878621,71978.60741360276,71953.90873597965,71987.74927708498,71998.25459697898,72003.66371913717,72013.9008180977,72039.51591724348,72054.84921393981,72081.15721716371,72120.00454902704,72137.64007540228,72115.80242106944,72103.017223241,72139.11529053633,72176.77797994352,72214.4406693507,72265.7602746201,72281.25003352763,72300.89721690383,72332.27906611908,72371.50637763816,72389.34306971349,72384.1798167443,72424.43530850831,72446.60823900798,72443.25547733968,72466.9036229734,72498.0172512552,72537.64689417445,72534.45059471735,72513.84228632954,72520.8160305996,72523.14061202295,72505.97447228128,72515.18339099687,72563.61962123151,72609.75362178727,72610.06654620964,72623.25407543828,72620.61656959254,72628.57379061864,72645.8963925715,72654.41240720898,72659.17332877795,72713.08573640416,72760.4714346494,72787.18176927349,72861.90365098759,72893.03963101383,72892.30202344681,72904.77429685286,72979.76439950042,73048.40660672267,73070.17720582214,73080.23549082702,73055.35799924827,73024.24437096648,72990.15796067214,72997.51168459794,73056.18501379312,73068.81374941037,73114.92539822166,73128.71642455058,73128.42585187267,73147.62600035979,73171.40825646023,73176.41504721821,73170.44713144864,73208.02041387802,73227.95816993216,73248.9911614646,73269.77828380803,73282.56348163646,73268.41482739626,73259.27296391403,73269.33124891893,73304.31172899148,73296.35450796538,73259.42942612522,73269.4430076412,73362.068636664,73417.56801814653,73366.33781985496,73301.92009233477,73275.1427024773,73276.30499318898,73275.70149608869,73275.36621992185,73295.88512133183,73272.46049314267,73246.13013817431,73236.00479793607,73198.63268120679,73162.64637263374,73122.010901214,73081.86716817226,73011.57093186032,72925.42730872957,72814.00386261987,72769.18861498697,72721.78056499727,72643.3482937036,72574.0802376366,72503.15815247991,72463.99789619421,72389.27601448011,72302.90887390482,72228.79048929102,72187.59622425989,72166.87615714982,72188.84792194939,72228.45521312418,72211.80316350498,72170.65360196277,72148.83829937439,72113.99192976856,72120.2280664716,72164.37276177082,72137.43890970218,72075.2116531386,72129.83931658737,72250.2034604792,72344.50547033614,72461.09216941502,72507.80731532662,72506.04152751465,72532.05895806062,72526.78394636916,72475.41963761087,72461.98623919324,72501.12414373447,72480.09115220203,72435.0523871246,72431.65492196738,72428.21275332126,72474.68203004386,72504.05222225812,72507.40498392642,72464.33317236105,72411.78422114662,72413.6394159364,72369.04768574807,72344.10313893594,72371.23815670468,72361.76101705564,72328.56867653951,72346.29360989257,72373.58508987249,72355.45782511924,72345.75716802564,72303.62412972738,72265.17912926426,72235.76423356107,72200.06849766594,72151.00641858655,72103.17368545219,72067.70146700162,72021.85803912378,72002.41202144767,71984.0388875054,71967.54330009739,71933.41218631413,71931.51228803543,71972.25951817745,71954.60164005776,71937.3237415938,71894.58720619527,71849.72725507346,71848.43085389506,71843.78169104835,71823.21808614947,71774.67009719255,71694.69555553145,71630.99308383383,71617.91731332747,71623.43819420793,71599.18655147393,71534.72412046482,71508.21495154082,71543.19543161338,71560.51803356624,71560.40627484398,71568.1399784255,71541.51905077923,71541.9884374128,71550.01271367224,71558.08169342062,71554.08073116312,71557.45584457587,71552.71727475134,71541.74256822378,71566.0389144467,71594.51503688277,71595.38675491653,71568.87758599254,71608.3507667006,71608.59663588961,71573.3926383725,71595.2973479387,71582.26628092126,71582.31098441017,71573.21382441686,71576.27601340723,71592.36926941505,71599.56653112966,71612.08350802463,71613.22344699186,71581.41691463196,71608.03784227822,71625.82983086465,71598.09131599561,71582.15452219898,71630.14371754453,71679.83164546867,71675.09307564415,71670.7121337309,71661.4585115264,71629.36140648859,71645.94640087443,71649.00858986481,71661.8608429266,71704.48561960288,71741.14248050959,71753.70416089347,71793.49026602392,71803.28033009534,71768.47866397843,71774.82655940374,71828.58250481874,71854.55523187581,71882.6737264006,71926.52784902189,71927.17604961111,71939.73772999499,71962.96119248404,72000.17684700213,71982.25074794897,71952.50057607896,71960.59190757178,71974.96407925655,71995.93001555563,72041.81814692238,72058.44784479712,72048.63542898124,72021.7015769126,72027.46832698207,72039.51591724348,72008.73756512851,71984.55297762787,72008.96108257308,72093.98711848106,72101.83258078487,72076.95508920611,72045.01444637949,72002.81435284787,71987.10107649578,71980.26144269246,71961.21775641653,71942.30818060735,71987.7939805739,71984.93295728361,71970.91841351014,71963.43057911762,71931.5793432688,71924.31502632082,71931.48993629098,71913.34031979326,71901.49389523195,71882.02552581138,71822.25696113789,71801.38043181664,71775.4971117374,71746.10456777866,71736.80624208525,71714.20862844093,71725.58566636869,71738.10264326366,71740.74014910939,71673.23788085436,71599.36536542956,71529.04677737318,71477.25778547022,71373.16571154186,71253.80739615053,71168.53549105352,71080.6260801108,70971.30369797989,70873.64892645465,70828.58780963277,70749.61909647216,70661.30735412924,70639.53675502977,70581.15399851251,70521.16191639447,70435.15240373045,70365.7055337078,70306.31694869006,70212.03729057757,70092.23194029712,69966.23515680256,69867.73101898802,69790.79631457286,69748.2162413855,69703.8033251528,69684.08908654322,69696.36019424918,69669.8957288141,69627.76269051584,69615.04454792077,69617.32442585521,69621.41479509053,69626.98037945991,69640.57024008874,69642.15721394506,69636.59162957569,69644.92883025752,69672.82380733774,69679.68579288552,69705.23383679794,69714.62156946916,69699.4000314951,69744.8634797172,69787.44355290456,69769.04806721784,69767.63990731715,69808.34243397028,69819.49595445346,69809.3259107263,69807.11308802523,69851.4365972801,69869.69797250009,69835.47745173902,69787.46590464901,69764.33184913777,69754.78765425536,69759.48152059097,69759.07918919077,69766.03058171638,69779.93336676757,69761.00143921393,69734.29110458984,69717.706110204,69736.72744473547,69771.12677945218,69813.90801833964,69829.66599818063,69813.05865205034,69806.04020429138,69836.23741105049,69833.5328499714,69851.41424553565,69897.77176353596,69960.53546196646,70010.84923873535,70069.92489933073,70103.54192299151,70128.08413840344,70128.66528375927,70140.73522576514,70169.85954879041,70212.48432546668,70198.96152007121,70210.09268880996,70226.32005528451,70235.19369783327,70264.47448306972,70323.84071634301,70360.29641154963,70391.58885378705,70454.79958710667,70508.42142205495,70587.23367300436,70672.55028159026,70737.191526555,70849.26317325392,70965.35813395478,71102.37432746582,71257.94246887475,71411.32013932707,71576.5442343407,71717.71785232042,71886.04883981333,72086.34282187735,72275.59504218043,72501.52647513467,72730.9671319684,72942.8169659158,73102.63193877124,73260.21173718116,73395.21627369121,73611.00001466274,73905.1489716946,74125.78304121293,74308.79912481298,74502.02995562911,74681.06742871612,74857.13211979058,75033.37562482066,75205.1040774708,75380.43116097822,75586.7377623007,75805.80720970717,75962.40353136105,76104.42651563007,76211.15609540416,76365.53959435697,76592.96859418972,76724.106278909,76813.40149800795,76920.7569266268,77035.86841057162,77183.23346176547,77328.56450421388,77427.20275249514,77505.07623017744,77630.15659214933,77766.47988158226,77847.9743418663,77969.4560729809,78042.88155351658,78116.17292358553,78207.43509619655,78286.58262331279,78378.47064476856,78514.50336152356,78599.26117649808,78646.2668950876,78687.327049652,78725.74969837067,78827.78541180913,78921.1262966545,79010.645033198,79089.54669112524,79109.30563322373,79138.56406671573,79163.19568910547,79154.54556400128,79161.80988094925,79211.65427108458,79259.73287340795,79252.06622505978,79227.72517534795,79216.32578567574,79187.06735218375,79136.21713354792,79118.44749670595,79125.75651714284,79130.89741836756,79126.47177296541,79081.12008346559,79045.29023710373,79000.16206504847,78966.94737278788,78971.03774202321,78977.20682349287,78937.68893929588,78873.94176410935,78819.69408031632,78818.7553070492,78817.86123727099,78803.08673418603,78771.36960880394,78696.91594802332,78671.4126075998,78633.48169725915,78575.65773435328,78522.14765812727,78484.90965186473,78476.5724511829,78418.39086036573,78330.32498721183,78246.97533213798,78158.10479618369,78052.7163210769,77945.47265118035,77839.74889990674,77715.40614550188,77583.57555670447,77443.1842497807,77312.18067552813,77190.02839207988,77019.66339584153,76877.90863250598,76791.94382333086,76710.35995606899,76568.53813750007,76452.93491517722,76325.30645433742,76202.41656332214,76110.84146628875,76019.2440175109,75940.6776357505,75840.36300663507,75729.09602273656,75628.37906222095,75550.81850896103,75467.35709516492,75399.02781236504,75347.14941348427,75308.63735778778,75211.63078685175,75170.50357705398,75166.70378049658,75096.56400639583,74963.36996118665,74873.4265414985,74831.5617241337,74776.33056358463,74715.80203959967,74698.50178939126,74692.91385327744,74652.34543709105,74589.69349738282,74574.76253208668,74595.99668931922,74595.75082013021,74583.52441591315,74592.5545206731,74555.83060453304,74572.61676461897,74604.89268361243,74577.95883154379,74504.98038589722,74473.55383319304,74456.9241353183,74417.47330635469,74420.20021917824,74491.97167062422,74532.54008681061,74528.38266234192,74504.86862717493,74486.0261065991,74527.2427233747,74546.71109279527,74537.32336012404,74534.57409555603,74557.9540202563,74557.350523156,74526.12513615192,74515.21748485774,74495.0338596146,74485.71318217674,74523.4429268173,74563.94428777031,74577.73531409923,74559.18336620132,74541.592543315,74517.09503139199,74481.01931584113,74425.3187686585,74408.7114225282,74428.42566113778,74436.42758565278,74427.46453612621,74436.85226879743,74427.53159135957,74420.64725406734,74419.8202395225,74414.34406213094,74467.92119359031,74543.31362763807,74548.00749397368,74547.60516257348,74515.41865055784,74497.35844103796,74526.25924661866,74540.54201132561,74556.88113652244,74588.28533748214,74606.85963712451,74653.75359699174,74688.08587647509,74690.633975343,74672.55141407865,74692.06448698814,74727.04496706069,74742.53472596822,74751.07309235014,74790.38981084703,74797.94470047292,74780.39858107551,74777.67166825196,74823.44804089643,74845.03982604026,74835.83090732466,74850.42659645398,74898.30403307725,74929.14944042558,74916.87833271961,74917.43712633099,74962.45353966398,74960.10660649618,74976.33397297072,75015.67304321207,75011.18034257655,74956.32916168323,74943.74512955488,74942.91811501005,75006.5535314743,75059.90714548912,75066.00917172541,75051.70405527402,75023.87613342717,74991.35434524469,74972.26595547986,74942.11345220965,74914.35258559616,74927.65187354707,74993.47776096794,75036.57192427779,75060.39888386714,75055.07916868677,75061.27060190089,75068.64667757115,75081.36482016621,75121.79912588587,75141.9380476401,75162.52400428343,75153.82917569032,75125.50951546544,75117.64170141717,75156.15375711367,75197.39272563372,75216.6599293542,75227.76874634848,75230.8085835944,75231.9038190727,75198.06327796738,75237.62586565326,75291.29240409046,75342.74611982658,75359.10759676786,75313.08535493439,75258.99413335253,75260.89403163124,75278.8201306844,75275.6685347162,75254.05439782792,75267.48779624555,75267.44309275664,75271.80168292543,75272.29342130345,75257.98830485206,75214.69297584212,75195.47047561055,75235.88242958575,75308.0785641764,75343.01434076004,75346.90354429526,75343.55078262696,75268.38186602377,75220.28091195595,75183.28877488241,75144.95553314156,75142.65330346266,75192.07301045334,75234.92130457418,75211.58608336284,75148.21888783203,75096.25108197345,75036.70603474451,74970.947202557,74878.58979446767,74789.29457536872,74714.23741748779,74592.97920381775,74504.64510973038,74395.94857644422,74307.68153759022,74257.83714745488,74124.68780573462,73983.93887089955,73865.96636366444,73729.30779806469,73610.03888965117,73491.55229229359,73423.89356182737,73344.25429633312,73274.56155712147,73175.34216348435,73068.65728719918,72952.22705033148,72849.78900549281,72797.3294612562,72754.95055376894,72762.08076025019,72728.4637365894,72680.85452089961,72616.32503465713,72563.79843518716,72524.12408877899,72487.109599961,72461.22627988175,72415.15933455937,72394.2381017492,72417.3945090049,72432.86191616797,72414.75700315917,72411.58305544652,72411.22542753523,72386.95143305676,72365.9854967577,72341.93501972378,72383.17398824383,72405.68219491032,72441.40028254989,72463.23793688274,72505.57214088108,72534.56235343961,72551.79554841465,72545.29119077817,72542.67603667689,72555.14831008295,72586.39604883148,72618.51550561374,72654.61357290907,72726.40737609952,72777.36935345762,72817.24486556588,72812.685109697,72841.78708097781,72898.8510845722,72970.71194299603,73008.59814984776,73027.66418786814,73043.17629852013,73070.98186862253,73129.07405246187,73165.93207906868,73172.3693814718,73206.63460572179,73234.28371361301,73252.85801325536,73281.51294964706,73326.75288042461,73344.96955215569,73337.72758695217,73334.48658400614,73350.57984001396,73374.69737228124,73391.84116027846,73458.4940622442,73479.81762645455,73502.99638545471,73532.54539162462,73546.38112144245,73587.93301438488,73622.26529386823,73664.39833216647,73666.387637423,73672.15438749247,73669.40512292447,73689.5440446787,73722.15523983899,73780.35918240061,73883.93716620651,73954.56867868527,73983.93887089955,74048.60246760875,74070.1271975192,74094.42354374213,74164.96564924308,74257.59127826587,74280.36770586584,74286.71560129114,74300.35016540888,74343.22081127415,74374.3567913004,74462.51207143212,74551.31555215306,74585.93840431434,74615.86739013999,74621.12005008699,74630.50778275821,74712.62809188702,74789.36163060208,74865.89400361705,74932.01046371585,74966.23098447693,74958.29611519529,74987.88982485412,75041.35519759121,75131.61154170174,75218.11279274378,75277.41197078371,75325.781145785,75319.4779538486,75320.282616649,75365.09786428188,75428.59917027941,75470.44163589974,75461.92562126227,75470.62044985539,75497.17432226829,75548.91861068233,75608.88834105592,75689.4663798173,75775.63235469251,75803.43792479491,75795.7936281912,75792.26205256725,75820.98404419233,75792.10559035606,75748.96672355733,75729.54305762566,75723.15045871145,75749.23494449079,75759.9861335738,75779.32039252763,75832.67400654245,75888.64277465854,75913.67672844848,75889.5144926923,75891.59320492664,75908.33466152367,75906.32300452268,75938.1742403715,75955.96622895793,75980.84372053668,76037.08070958624,76086.79098925483,76133.08145202178,76175.66152520914,76168.79953966136,76156.72959765549,76172.30876354084,76178.72371419951,76180.84712992277,76226.55644733387,76247.9023632887,76244.61665685376,76232.3902526367,76209.3903075922,76229.14924969069,76258.36297969377,76280.53591019344,76290.46008473159,76261.58163089534,76236.01123523846,76229.0374909684,76223.15898217667,76243.38731090871,76240.30277017389,76261.35811345078,76327.36281482731,76358.09646345336,76373.36270491633,76387.93604230118,76382.526920143,76357.71648379762,76341.19854464514,76322.84776244733,76350.45216684965,76364.06437922292,76371.39575140426,76363.5726408449,76343.34431211285,76337.62226553229,76286.74969515202,76216.49816232898,76140.18930675856,76113.18839945656,76054.47036677247,75948.70191200994,75847.38145439404,75767.00458133276,75689.0193449282,75606.69787009929,75492.14517976585,75385.10267556937,75289.01252615602,75172.80580673288,75017.95292114651,74876.35462002213,74741.75241491228,74616.359128518,74540.67612179233,74481.28753677459,74376.1002273679,74295.74570605108,74202.20365550563,74118.00463414247,74039.23708668198,73989.99619364693,73930.38409118463,73846.20742156595,73779.28629866676,73747.77033898477,73730.42538528745,73707.69366117641,73683.37496320903,73623.15936364644,73592.31395629811,73531.38310091295,73457.75645467716,73418.79736409156,73431.73902413118,73446.17825104932,73431.64961715337,73419.40086119185,73429.90618108585,73403.70993658423,73363.92383145378,73354.40198831582,73358.40295057332,73346.78004345656,73315.9569878527,73296.42156319876,73322.41664200027,73332.65374096081,73337.99580788563,73359.319372096,73379.59240431695,73377.40193336034,73412.40476517734,73467.07713211502,73527.18097295535,73578.76879915819,73592.64923246494,73613.03402340818,73608.34015707257,73602.75222095875,73657.3351809186,73730.78301319874,73775.57590908717,73751.65954251999,73767.55163282772,73830.2706277693,73868.1344828766,73863.97705840791,73861.51836651783,73885.47943657392,73883.89246271759,73877.29869810327,73914.2461316879,73934.96619879796,73949.36072222718,73928.46184116148,73893.54841632229,73905.90893100607,73925.60081787119,73956.60268743071,73967.711504425,73950.43360596104,73964.47050147898,73947.7066931375,73962.12356831117,73965.47632997946,73970.28195503735,73991.06907738079,74020.39456610616,74059.53247064739,74144.37969259974,74197.04040253644,74202.71774562809,74227.66229244022,74231.70795818663,74195.14050425774,74209.15504803123,74265.54849929197,74336.64939840429,74350.66394217777,74356.34128526942,74390.27123335257,74420.93782674526,74429.54324836055,74461.7297603762,74513.09406913449,74562.82670054755,74551.87434576445,74574.6507733644,74588.28533748214,74607.84311388053,74641.66130324142,74645.90813468792,74676.03828621368,74734.01871133075,74782.47729330984,74808.29355815572,74826.7560990758,74812.74155530233,74828.70070084342,74936.10083295117,75001.4573337385,75023.76437470489,75027.98885440694,75045.60202903772,75067.28322115938,75086.63983185767,75115.02654731591,75174.03515267791,75195.35871688828,75216.32465318736,75253.20503153862,75297.30502334893,75326.25053241856,75337.29229417948,75356.85007057787,75382.55457670147,75375.5361289425,75398.64783270929,75416.7527457181,75421.24544635361,75409.71194621468,75422.63125450985,75441.51847857458,75456.98588573765,75464.27255443008,75463.69140907424,75470.28517368856,75489.79824659805,75478.39885692584,75457.05294097101,75441.51847857458,75467.82648179847,75483.58446163946,75509.11015380743,75529.13731683938,75541.54253501208,75544.31415132454,75555.22180261872,75615.23623648123,75650.01555085368,75638.63851292593,75644.09233857303,75640.22548678226,75601.10993398547,75582.9379657433,75486.89251981885,75159.37240831523,74522.1912291278,74310.00611901356,74941.62171383163,75370.50698644007,75644.91935311788,75896.84586487364,76009.76687786185,76020.71923264494,76015.57833142023,75968.66201980854,75941.03526366178,75941.07996715068,75911.28509179177,75942.19755437346,75975.94868850097,75980.48609262539,75966.11392094064,75931.424013546,75951.38412134458,75921.90217040804,75912.35797552562,75941.90698169553,75933.9721124139,75905.29482427775,75897.15878929601,75902.63496668756,75913.29674879274,75931.28990307926,75947.60667653164,75915.84484766064,75908.28995803476,75911.12862958058,75904.49016147736,75918.54940873974,75939.91767643901,75941.41524331752,75907.44059174546,75873.42123668447,75831.62347455305,75809.53995103121,75753.45942419284,75665.79588243912,75597.31013742807,75539.08384312199,75485.39495294035,75423.88295219935,75377.61484117685,75301.08246816188,75177.7455422575,75038.1141946452,74912.09505940617,74837.12730850307,74782.47729330984,74691.01395499874,74574.20373847529,74457.61703939641,74346.30535200899,74288.61549956985,74251.42219679621,74204.17060901769,74128.64406450321,74064.06987477183,74026.85422025374,73955.70861765249,73895.00127971188,73842.27351454181,73757.06866467818,73736.72857722385,73731.83354518814,73732.12411786606,73724.68098696244,73616.99028217678,73556.6629238919,73546.87285982048,73539.20621147231,73549.26449647719,73578.09824682453,73553.9583628128,73542.44721441832,73521.9506647528,73519.603731585,73523.06825197556,73503.3987168549,73477.62715549793,73444.99360859318,73414.3270152005,73411.68950935478,73435.3823584774,73449.62041969543,73490.43470507082,73521.48127811924,73514.48518210473,73568.6658106644,73647.79098603618,73660.33031467561,73646.02519822422,73657.84927104108,73707.06781233166,73715.13679208003,73724.18924858443,73726.87145791906,73778.54869109973,73783.06374347971,73799.78284833227,73859.30554381675,73872.9848114234,73877.52221554783,73887.44639008598,73917.50948637837,73948.22078325997,73992.14196111464,73989.03506863536,73954.38986472963,73973.79117891684,74000.27799609638,73991.62787099218,74006.60353977724,