58610 
58811 
58988 
59110 
59224 
59393 
59512 
59558 
59614 
59720 
59848 
59931 
60025 
60147 
60263 
60318 
60373 
60411 
60499 
60602 
60655 
60674 
60696 
60726 
60734 
60796 
60904 
61002 
61041 
61080 
61094 
61105 
61071 
61010 
60953 
60963 
60994 
61020 
61026 
61068 
61092 
61105 
61121 
61098 
61110 
61181 
61211 
61172 
61158 
61145 
61113 
61118 
61165 
61168 
61130 
61078 
61119 
61222 
61279 
61248 
61227 
61213 
61209 
61252 
61288 
61288 
61227 
61156 
61245 
61303 
61308 
61273 
61256 
61236 
61213 
61199 
61148 
61117 
61114 
61107 
61155 
61214 
61276 
61260 
61203 
61171 
61143 
61091 
61102 
61100 
61063 
61064 
61028 
61001 
61030 
61043 
61008 
60959 
60843 
60744 
60738 
60762 
60699 
60588 
60430 
60271 
60095 
59885 
59687 
59519 
59264 
59037 
58808 
58551 
58283 
58024 
57758 
57448 
57170 
56916 
56634 
56371 
56116 
55915 
55718 
55570 
55424 
55345 
55272 
55143 
55004 
54919 
54873 
54813 
54706 
54660 
54681 
54679 
54706 
54781 
54823 
54856 
54865 
54908 
55003 
55085 
55126 
55154 
55210 
55337 
55498 
55626 
55727 
55798 
55914 
56052 
56175 
56367 
56538 
56639 
56747 
56851 
56964 
57158 
57332 
57434 
57440 
57450 
57447 
57521 
57670 
57711 
57802 
57868 
57912 
57986 
58045 
58127 
58183 
58198 
58198 
58206 
58221 
58215 
58198 
58231 
58262 
58292 
58317 
58305 
58282 
58326 
58371 
58351 
58355 
58391 
58443 
58460 
58476 
58495 
58518 
58505 
58492 
58562 
58649 
58639 
58626 
58651 
58661 
58665 
58660 
58696 
58763 
58868 
58921 
58966 
59022 
59080 
59103 
59087 
59078 
59133 
59249 
59329 
59371 
59363 
59402 
59448 
59486 
59541 
59598 
59685 
59677 
59674 
59705 
59710 
59740 
59829 
59955 
60055 
60071 
60040 
60053 
60113 
60176 
60218 
60264 
60257 
60282 
60305 
60289 
60310 
60333 
60353 
60314 
60267 
60278 
60318 
60342 
60404 
60399 
60313 
60203 
60147 
60025 
59882 
59751 
59499 
59284 
59104 
58875 
58619 
58351 
58093 
57899 
57696 
57486 
57312 
57148 
56950 
56722 
56466 
56310 
56182 
56051 
55895 
55744 
55658 
55543 
55452 
55417 
55356 
55281 
55222 
55212 
55253 
55269 
55289 
55304 
55315 
55383 
55476 
55563 
55579 
55645 
55734 
55811 
55892 
56036 
56238 
56395 
56512 
56635 
56746 
56879 
57061 
57209 
57288 
57397 
57571 
57752 
57848 
57909 
57977 
58096 
58135 
58139 
58210 
58356 
58389 
58404 
58426 
58420 
58436 
58439 
58456 
58485 
58563 
58597 
58555 
58526 
58530 
58564 
58576 
58573 
58566 
58587 
58642 
58647 
58680 
58713 
58741 
58790 
58826 
58794 
58800 
58835 
58876 
58889 
58900 
58905 
58884 
58937 
58981 
58982 
59011 
59035 
59024 
59038 
59071 
59084 
59082 
59106 
59165 
59183 
59240 
59304 
59396 
59442 
59427 
59398 
59388 
59448 
59533 
59560 
59542 
59564 
59679 
59780 
59826 
59874 
59932 
59932 
59971 
59987 
59986 
60029 
60093 
60163 
60217 
60271 
60287 
60328 
60331 
60308 
60293 
60274 
60277 
60296 
60282 
60300 
60272 
60209 
60128 
60062 
59983 
59833 
59754 
59660 
59498 
59230 
58974 
58798 
58630 
58411 
58152 
57930 
57780 
57553 
57359 
57224 
57082 
56876 
56656 
56530 
56393 
56223 
56116 
56061 
55987 
55914 
55877 
55856 
55833 
55802 
55773 
55789 
55799 
55838 
55923 
56042 
56128 
56168 
56213 
56232 
56237 
56342 
56459 
56573 
56683 
56819 
56991 
57142 
57278 
57409 
57552 
57740 
57910 
57998 
58106 
58232 
58340 
58446 
58561 
58662 
58709 
58754 
58850 
58915 
58978 
59091 
59130 
59160 
59202 
59221 
59241 
59273 
59290 
59315 
59289 
59237 
59207 
59180 
59222 
59185 
59207 
59246 
59297 
59396 
59445 
59472 
59422 
59407 
59445 
59502 
59540 
59498 
59444 
59473 
59517 
59575 
59556 
59533 
59547 
59580 
59579 
59589 
59661 
59704 
59740 
59754 
59732 
59770 
59792 
59787 
59769 
59759 
59768 
59756 
59725 
59728 
59819 
59878 
59935 
59977 
60023 
60068 
60101 
60093 
60140 
60143 
60110 
60144 
60184 
60206 
60242 
60289 
60269 
60321 
60387 
60449 
60469 
60477 
60464 
60515 
60607 
60651 
60597 
60574 
60589 
60553 
60467 
60383 
60264 
60108 
59976 
59811 
59579 
59313 
59057 
58814 
58541 
58268 
58010 
57756 
57479 
57224 
56977 
56759 
56552 
56364 
56186 
55992 
55809 
55659 
55541 
55366 
55202 
55076 
54987 
54930 
54895 
54868 
54805 
54791 
54776 
54762 
54793 
54847 
54853 
54872 
54904 
54932 
54944 
55007 
55116 
55201 
55277 
55360 
55491 
55622 
55728 
55862 
56080 
56279 
56348 
56478 
56639 
56775 
56931 
57025 
57094 
57203 
57297 
57417 
57511 
57560 
57641 
57760 
57831 
57842 
57887 
57956 
57974 
57971 
57985 
58001 
58018 
58033 
58059 
58062 
58093 
58140 
58181 
58212 
58225 
58202 
58227 
58296 
58314 
58317 
58380 
58456 
58492 
58522 
58605 
58699 
58764 
58790 
58802 
58810 
58830 
58880 
58942 
58963 
58992 
59097 
59143 
59163 
59196 
59271 
59308 
59334 
59370 
59429 
59506 
59591 
59685 
59727 
59759 
59784 
59862 
59969 
60039 
60118 
60211 
60254 
60331 
60394 
60431 
60453 
60470 
60534 
60637 
60671 
60714 
60776 
60823 
60854 
60861 
60954 
61014 
61065 
61100 
61135 
61161 
61152 
61126 
61110 
61074 
61026 
60997 
60949 
60832 
60693 
60537 
60335 
60102 
59853 
59635 
59404 
59130 
58871 
58577 
58289 
58043 
57794 
57587 
57386 
57122 
56871 
56659 
56391 
56167 
56023 
55915 
55770 
55609 
55506 
55382 
55251 
55153 
55072 
55037 
55016 
54996 
54980 
54977 
54949 
54955 
54979 
55019 
55044 
55042 
55089 
55166 
55210 
55269 
55359 
55509 
55684 
55836 
55996 
56130 
56231 
56370 
56518 
56677 
56826 
56923 
57098 
57272 
57366 
57508 
57588 
57693 
57763 
57840 
57940 
58001 
58065 
58147 
58189 
58193 
58205 
58287 
58350 
58380 
58406 
58469 
58514 
58545 
58529 
58523 
58520 
58507 
58523 
58567 
58579 
58585 
58599 
58589 
58629 
58644 
58663 
58683 
58694 
58731 
58781 
58818 
58831 
58848 
58798 
58805 
58865 
58934 
58974 
58983 
59051 
59102 
59155 
59228 
59290 
59322 
59360 
59427 
59487 
59528 
59563 
59601 
59639 
59691 
59749 
59827 
59905 
59960 
60013 
60071 
60105 
60125 
60179 
60269 
60334 
60331 
60303 
60297 
60301 
60339 
60393 
60443 
60454 
60439 
60450 
60515 
60589 
60610 
60639 
60663 
60647 
60650 
60673 
60644 
60626 
60604 
60552 
60461 
60390 
60321 
60197 
60081 
59998 
59858 
59631 
59424 
59188 
58953 
58686 
58406 
58133 
57892 
57660 
57436 
57206 
56946 
56688 
56435 
56197 
55973 
55785 
55624 
55507 
55388 
55263 
55147 
55106 
55111 
55076 
55008 
54902 
54864 
54892 
54977 
55026 
55062 
55132 
55155 
55222 
55282 
55347 
55408 
55470 
55570 
55695 
55824 
56009 
56130 
56257 
56454 
56674 
56844 
56995 
57177 
57308 
57428 
57564 
57634 
57729 
57879 
58028 
58095 
58157 
58242 
58325 
58426 
58506 
58540 
58592 
58606 
58610 
58646 
58682 
58668 
58673 
58701 
58704 
58700 
58751 
58777 
58761 
58765 
58772 
58776 
58789 
58754 
58777 
58843 
58938 
58983 
59031 
59062 
59075 
59078 
59098 
59161 
59241 
59302 
59375 
59444 
59496 
59523 
59569 
59657 
59743 
59797 
59853 
59887 
59888 
59945 
60027 
60108 
60140 
60164 
60184 
60166 
60193 
60213 
60238 
60259 
60285 
60275 
60292 
60299 
60302 
60282 
60249 
60236 
60282 
60324 
60276 
60253 
60228 
60221 
60250 
60251 
60275 
60264 
60260 
60287 
60357 
60390 
60429 
60462 
60464 
60439 
60416 
60419 
60420 
60416 
60433 
60366 
60244 
60169 
60143 
60108 
60011 
59907 
59765 
59583 
59404 
59197 
58960 
58717 
58465 
58220 
57939 
57681 
57362 
57042 
56753 
56492 
56248 
55996 
55784 
55562 
55340 
55130 
54933 
54740 
54585 
54460 
54343 
54222 
54093 
54027 
53961 
53939 
53958 
53900 
53865 
53832 
53830 
53841 
53860 
53925 
54038 
54116 
54218 
54329 
54466 
54590 
54732 
54843 
54950 
55098 
55211 
55317 
55490 
55649 
55819 
56011 
56137 
56264 
56366 
56444 
56542 
56678 
56783 
56916 
57057 
57133 
57135 
57138 
57160 
57231 
57318 
57406 
57457 
57522 
57565 
57629 
57663 
57653 
57711 
57788 
57837 
57877 
57907 
57977 
58002 
57989 
58001 
57990 
58057 
58154 
58203 
58192 
58192 
58208 
58213 
58264 
58342 
58384 
58395 
58443 
58485 
58503 
58513 
58517 
58548 
58583 
58613 
58623 
58660 
58704 
58745 
58778 
58838 
58929 
58992 
59038 
59070 
59111 
59156 
59201 
59257 
59306 
59357 
59443 
59511 
59624 
59745 
59811 
59823 
59926 
59998 
60036 
60066 
60114 
60220 
60363 
60476 
60505 
60601 
60725 
60821 
60848 
60888 
60936 
60949 
60991 
61068 
61118 
61162 
61190 
61189 
61139 
61113 
61175 
61224 
61235 
61226 
61240 
61254 
61255 
61260 
61232 
61166 
61096 
60954 
60810 
60696 
60559 
60335 
60070 
59883 
59644 
59350 
59066 
58845 
58648 
58402 
58170 
57911 
57595 
57354 
57136 
56914 
56749 
56633 
56533 
56413 
56317 
56190 
56031 
55936 
55861 
55810 
55784 
55729 
55666 
55677 
55695 
55733 
55780 
55826 
55900 
55951 
55993 
56068 
56157 
56247 
56318 
56443 
56598 
56755 
56875 
57002 
57135 
57251 
57407 
57573 
57703 
57887 
58053 
58137 
58246 
58399 
58525 
58648 
58728 
58759 
58871 
58990 
59074 
59188 
59279 
59306 
59331 
59345 
59405 
59518 
59542 
59570 
59603 
59602 
59636 
59648 
59653 
59650 
59631 
59591 
59599 
59624 
59652 
59688 
59699 
59640 
59603 
59570 
59573 
59618 
59625 
59601 
59589 
59585 
59630 
59633 
59615 
59637 
59615 
59586 
59570 
59590 
59639 
59681 
59653 
59632 
59614 
59619 
59635 
59619 
59548 
59510 
59521 
59470 
59463 
59515 
59586 
59642 
59645 
59664 
59661 
59671 
59680 
59704 
59788 
59869 
59956 
59969 
59976 
59987 
60018 
60028 
60059 
60109 
60148 
60211 
60254 
60292 
60281 
60314 
60364 
60442 
60494 
60536 
60538 
60501 
60453 
60426 
60443 
60449 
60424 
60446 
60385 
60264 
60137 
60032 
59883 
59728 
59544 
59382 
59224 
59035 
58839 
58655 
58480 
58298 
58081 
57884 
57663 
57460 
57296 
57146 
57012 
56878 
56719 
56532 
56390 
56277 
56182 
56097 
56006 
55955 
55917 
55859 
55866 
55854 
55857 
55907 
55945 
55921 
55942 
55986 
56030 
56095 
56148 
56204 
56251 
56364 
56468 
56597 
56725 
56853 
56987 
57084 
57169 
57235 
57307 
57420 
57556 
57620 
57705 
57841 
57965 
58019 
58044 
58091 
58089 
58121 
58172 
58159 
58141 
58127 
58183 
58206 
58190 
58206 
58242 
58246 
58185 
58165 
58178 
58168 
58161 
58153 
58134 
58156 
58186 
58198 
58176 
58183 
58225 
58253 
58238 
58242 
58276 
58237 
58214 
58206 
58204 
58190 
58218 
58237 
58213 
58208 
58217 
58235 
58313 
58339 
58364 
58401 
58429 
58458 
58482 
58518 
58624 
58655 
58607 
58640 
58677 
58677 
58695 
58713 
58725 
58752 
58780 
58802 
58874 
58870 
58897 
58980 
59024 
59082 
59159 
59118 
59113 
59161 
59186 
59237 
59304 
59317 
59384 
59445 
59471 
59449 
59431 
59432 
59411 
59327 
59217 
59076 
58907 
58819 
58692 
58500 
58297 
58100 
57892 
57639 
57384 
57174 
56990 
56850 
56715 
56563 
56399 
56239 
56132 
55957 
55775 
55648 
55561 
55440 
55328 
55275 
55223 
55158 
55095 
55073 
55057 
55026 
55016 
55028 
55097 
55158 
55230 
55245 
55292 
55420 
55517 
55607 
55715 
55857 
55940 
56071 
56202 
56267 
56374 
56564 
56722 
56883 
57008 
57123 
57265 
57385 
57471 
57512 
57546 
57630 
57702 
57790 
57860 
57875 
57925 
57979 
58049 
58074 
58102 
58135 
58146 
58085 
58089 
58119 
58166 
58158 
58132 
58076 
58041 
58084 
58071 
58064 
58079 
58116 
58117 
58100 
58093 
58114 
58156 
58201 
58231 
58190 
58195 
58262 
58263 
58266 
58232 
58249 
58320 
58314 
58323 
58369 
58385 
58375 
58382 
58400 
58447 
58463 
58483 
58543 
58534 
58499 
58491 
58512 
58575 
58634 
58683 
58706 
58787 
58810 
58788 
58822 
58858 
58816 
58796 
58823 
58854 
58886 
58854 
58884 
58910 
58941 
58943 
59028 
59089 
59128 
59161 
59156 
59151 
59169 
59150 
59105 
59029 
58942 
58816 
58656 
58477 
58274 
58066 
57870 
57700 
57485 
57237 
56967 
56753 
56600 
56397 
56130 
55905 
55719 
55532 
55373 
55230 
55053 
54888 
54762 
54627 
54508 
54464 
54416 
54362 
54299 
54277 
54250 
54189 
54172 
54198 
54208 
54239 
54270 
54315 
54396 
54489 
54578 
54702 
54769 
54888 
54993 
55058 
55198 
55391 
55544 
55634 
55801 
56048 
56245 
56439 
56560 
56671 
56814 
56972 
57123 
57211 
57321 
57480 
57560 
57619 
57679 
57766 
57815 
57844 
57877 
57978 
58042 
58067 
58096 
58111 
58147 
58169 
58193 
58253 
58285 
58275 
58273 
58319 
58348 
58369 
58400 
58411 
58393 
58424 
58445 
58456 
58471 
58491 
58488 
58540 
58574 
58593 
58625 
58618 
58579 
58554 
58524 
58582 
58612 
58632 
58707 
58778 
58803 
58837 
58830 
58834 
58882 
58911 
58916 
58917 
58954 
58997 
59056 
59087 
59086 
59106 
59154 
59213 
59270 
59287 
59252 
59241 
59254 
59301 
59352 
59405 
59450 
59444 
59426 
59440 
59437 
59443 
59491 
59569 
59675 
59712 
59704 
59689 
59690 
59661 
59590 
59525 
59408 
59282 
59146 
58998 
58738 
58481 
58253 
58050 
57794 
57514 
57285 
57008 
56732 
56508 
56325 
56129 
55912 
55668 
55468 
55299 
55118 
54901 
54702 
54558 
54470 
54373 
54256 
54113 
54016 
53989 
53977 
53934 
53869 
53848 
53904 
53898 
53869 
53887 
53898 
53969 
54029 
54088 
54218 
54376 
54493 
54601 
54744 
54885 
55030 
55145 
55281 
55450 
55600 
55690 
55804 
55964 
56117 
56242 
56391 
56496 
56610 
56740 
56840 
56889 
56920 
56962 
56983 
57028 
57147 
57253 
57304 
57338 
57360 
57410 
57451 
57465 
57463 
57528 
57602 
57664 
57654 
57657 
57689 
57688 
57701 
57699 
57689 
57690 
57710 
57756 
57789 
57794 
57824 
57856 
57872 
57892 
57930 
57982 
58046 
58077 
58130 
58214 
58289 
58323 
58363 
58410 
58436 
58477 
58501 
58539 
58665 
58769 
58796 
58817 
58812 
58816 
58886 
58943 
59026 
59106 
59163 
59200 
59237 
59290 
59350 
59416 
59447 
59514 
59557 
59631 
59688 
59762 
59799 
59862 
59909 
59938 
59986 
60021 
60092 
60125 
60177 
60270 
60331 
60346 
60374 
60393 
60384 
60385 
60402 
60378 
60339 
60242 
60106 
59927 
59726 
59541 
59297 
59003 
58720 
58433 
58168 
57947 
57736 
57534 
57300 
57015 
56769 
56514 
56297 
56066 
55854 
55666 
55437 
55195 
55010 
54866 
54782 
54667 
54588 
54531 
54463 
54393 
54350 
54271 
54189 
54149 
54160 
54174 
54190 
54225 
54265 
54277 
54295 
54366 
54424 
54496 
54578 
54678 
54825 
54953 
55066 
55240 
55343 
55451 
55601 
55800 
55949 
56101 
56265 
56402 
56515 
56598 
56661 
56736 
56802 
56897 
57000 
57077 
57183 
57287 
57342 
57337 
57380 
57397 
57399 
57429 
57435 
57491 
57568 
57604 
57562 
57492 
57498 
57537 
57550 
57542 
57534 
57577 
57644 
57615 
57593 
57604 
57619 
57621 
57619 
57641 
57657 
57672 
57685 
57664 
57710 
57808 
57823 
57840 
57844 
57839 
57878 
57964 
58023 
58078 
58105 
58081 
58080 
58119 
58181 
58227 
58271 
58285 
58273 
58273 
58277 
58255 
58312 
58367 
58369 
58374 
58383 
58407 
58426 
58448 
58505 
58546 
58566 
58611 
58630 
58639 
58691 
58733 
58712 
58687 
58733 
58809 
58827 
58833 
58873 
58861 
58840 
58827 
58875 
58904 
58898 
58912 
58953 
59002 
58946 
58865 
58842 
58761 
58653 
58519 
58353 
58110 
57871 
57654 
57427 
57200 
56971 
56719 
56436 
56135 
55860 
55606 
55407 
55156 
54924 
54755 
54529 
54301 
54085 
53909 
53762 
53631 
53510 
53396 
53317 
53229 
53158 
53087 
52970 
52901 
52877 
52835 
52852 
52875 
52905 
52992 
53054 
53057 
53041 
53086 
53180 
53342 
53478 
53560 
53667 
53752 
53859 
54032 
54191 
54380 
54577 
54701 
54825 
54953 
55082 
55224 
55329 
55468 
55642 
55787 
55829 
55832 
55899 
55982 
56054 
56111 
56162 
56245 
56353 
56430 
56443 
56482 
56557 
56597 
56644 
56704 
56720 
56754 
56771 
56755 
56737 
56766 
56816 
56910 
56965 
56995 
57010 
57035 
57072 
57071 
57049 
57049 
57071 
57108 
57153 
57214 
57256 
57227 
57216 
57196 
57198 
57230 
57276 
57293 
57265 
57283 
57338 
57405 
57484 
57578 
57644 
57704 
57745 
57732 
57749 
57800 
57866 
57888 
57981 
58026 
57999 
58020 
58032 
58061 
58087 
58105 
58133 
58179 
58273 
58400 
58499 
58527 
58519 
58552 
58569 
58589 
58689 
58784 
58883 
58978 
59079 
59142 
59191 
59257 
59267 
59292 
59354 
59362 
59316 
59302 
59304 
59315 
59277 
59250 
59192 
59143 
59045 
58917 
58794 
58670 
58516 
58325 
58145 
57939 
57691 
57492 
57305 
57065 
56859 
56667 
56531 
56375 
56209 
56028 
55848 
55689 
55549 
55454 
55381 
55310 
55198 
55115 
55026 
54931 
54882 
54932 
54984 
54976 
54972 
55070 
55158 
55237 
55363 
55471 
55663 
55789 
55876 
56019 
56203 
56324 
56496 
56686 
56853 
57018 
57198 
57358 
57548 
57760 
57894 
58024 
58104 
58163 
58274 
58417 
58541 
58623 
58735 
58841 
58906 
58958 
59015 
59093 
59149 
59117 
59047 
59015 
59120 
59176 
59139 
59130 
59123 
59129 
59163 
59195 
59172 
59119 
59116 
59130 
59140 
59117 
59056 
58998 
59000 
59046 
59034 
58988 
58984 
58974 
58970 
59008 
59063 
59103 
59125 
59131 
59142 
59131 
59142 
59167 
59186 
59190 
59219 
59252 
59249 
59251 
59282 
59283 
59269 
59304 
59411 
59482 
59497 
59511 
59541 
59533 
59557 
59627 
59709 
59757 
59747 
59794 
59894 
59925 
59973 
60005 
60039 
60067 
60085 
60118 
60095 
60115 
60179 
60206 
60211 
60230 
60222 
60269 
60288 
60228 
60163 
60164 
60135 
60051 
59934 
59804 
59632 
59474 
59292 
59056 
58838 
58616 
58360 
58110 
57872 
57679 
57452 
57177 
56938 
56696 
56422 
56187 
55984 
55741 
55535 
55375 
55195 
55046 
54909 
54792 
54744 
54695 
54635 
54597 
54488 
54477 
54499 
54456 
54439 
54472 
54499 
54510 
54504 
54514 
54564 
54658 
54719 
54811 
54848 
54961 
55146 
55303 
55415 
55552 
55679 
55804 
55975 
56134 
56205 
56274 
56413 
56526 
56669 
56780 
56787 
56823 
56885 
56920 
56998 
57091 
57153 
57213 
57260 
57304 
57317 
57334 
57316 
57298 
57301 
57258 
57234 
57248 
57288 
57291 
57294 
57286 
57263 
57253 
57281 
57297 
57275 
57275 
57267 
57257 
57214 
57225 
57283 
57255 
57280 
57310 
57337 
57381 
57433 
57437 
57430 
57486 
57556 
57533 
57497 
57488 
57491 
57515 
57552 
57623 
57693 
57768 
57842 
57907 
57995 
58017 
58028 
58064 
58106 
58171 
58265 
58317 
58309 
58367 
58426 
58502 
58558 
58635 
58697 
58741 
58770 
58775 
58833 
58857 
58920 
59024 
59045 
59024 
59055 
59087 
59115 
59070 
59091 
59129 
59150 
59123 
59110 
59099 
59002 
58805 
58574 
58302 
58086 
57911 
57698 
57451 
57217 
56941 
56642 
56339 
56127 
55930 
55651 
55363 
55090 
54870 
54671 
54480 
54308 
54127 
53949 
53782 
53645 
53531 
53402 
53315 
53276 
53255 
53164 
53071 
53019 
52985 
52986 
52994 
53077 
53177 
53182 
53212 
53271 
53302 
53359 
53412 
53559 
53706 
53878 
54075 
54221 
54353 
54550 
54810 
55043 
55243 
55411 
55526 
55644 
55780 
55935 
56057 
56165 
56267 
56385 
56509 
56663 
56753 
56858 
56903 
56921 
56964 
57015 
57120 
57188 
57235 
57269 
57253 
57268 
57315 
57356 
57472 
57531 
57528 
57578 
57655 
57658 
57677 
57727 
57801 
57881 
57911 
57911 
57933 
57911 
57894 
57884 
57892 
57937 
57940 
57998 
58054 
58072 
58135 
58207 
58273 
58363 
58409 
58405 
58452 
58512 
58521 
58521 
58571 
58588 
58651 
58679 
58724 
58790 
58803 
58863 
58913 
58919 
58927 
58962 
59013 
59064 
59147 
59242 
59321 
59326 
59360 
59387 
59447 
59547 
59625 
59641 
59681 
59697 
59712 
59784 
59854 
59886 
59873 
59899 
59886 
59861 
59859 
59893 
59898 
59883 
59810 
59747 
59692 
59667 
59582 
59477 
59314 
59136 
58949 
58716 
58450 
58180 
57930 
57644 
57321 
57017 
56751 
56462 
56143 
55840 
55530 
55254 
54981 
54695 
54487 
54319 
54113 
53882 
53696 
53514 
53388 
53290 
53111 
52979 
52932 
52899 
52897 
52824 
52803 
52808 
52775 
52752 
52776 
52881 
52981 
53080 
53198 
53311 
53372 
53467 
53574 
53730 
53953 
54100 
54212 
54317 
54434 
54578 
54763 
54962 
55149 
55315 
55486 
55610 
55720 
55875 
56058 
56204 
56284 
56389 
56463 
56509 
56599 
56701 
56777 
56817 
56860 
56914 
56960 
57010 
57043 
57080 
57130 
57186 
57265 
57340 
57322 
57350 
57450 
57479 
57505 
57575 
57667 
57733 
57792 
57866 
57880 
57925 
58009 
58049 
58080 
58141 
58214 
58249 
58267 
58305 
58375 
58449 
58512 
58590 
58669 
58758 
58783 
58818 
58879 
58964 
59067 
59118 
59175 
59263 
59298 
59336 
59403 
59515 
59610 
59696 
59750 
59784 
59805 
59848 
59918 
59960 
60003 
59998 
60001 
59986 
59998 
60067 
60140 
60162 
60127 
60058 
60057 
60092 
60133 
60137 
60115 
60157 
60207 
60212 
60183 
60128 
60079 
60068 
60026 
59988 
59954 
59900 
59909 
59920 
59885 
59820 
59780 
59734 
59643 
59567 
59469 
59284 
59070 
58835 
58614 
58412 
58186 
57907 
57638 
57374 
57085 
56731 
56432 
56178 
55918 
55671 
55436 
55184 
54914 
54697 
54524 
54335 
54127 
53952 
53805 
53681 
53523 
53398 
53316 
53239 
53179 
53115 
53098 
53091 
53047 
52991 
52976 
53032 
53059 
53033 
53046 
53074 
53161 
53281 
53382 
53511 
53654 
53808 
53928 
54061 
54212 
54348 
54503 
54654 
54812 
54983 
55122 
55217 
55303 
55365 
55476 
55650 
55813 
55905 
55986 
56061 
56128 
56182 
56212 
56271 
56302 
56305 
56302 
56371 
56459 
56491 
56501 
56512 
56551 
56648 
56706 
56758 
56782 
56777 
56786 
56781 
56775 
56813 
56800 
56774 
56795 
56854 
56871 
56867 
56891 
56905 
56926 
56985 
57061 
57155 
57286 
57377 
57419 
57474 
57559 
57609 
57694 
57827 
57863 
57902 
57918 
57951 
58011 
58109 
58233 
58305 
58342 
58413 
58485 
58574 
58664 
58786 
58878 
58881 
58920 
58971 
59008 
59048 
59121 
59216 
59309 
59441 
59516 
59502 
59488 
59522 
59561 
59648 
59763 
59813 
59833 
59897 
59960 
59956 
59975 
60005 
60049 
60097 
60071 
60096 
60152 
60156 
60149 
60180 
60160 
60090 
60033 
59973 
59877 
59784 
59704 
59692 
59640 
59473 
59299 
59142 
58873 
58631 
58388 
58182 
57973 
57695 
57367 
57075 
56815 
56554 
56303 
56041 
55818 
55606 
55364 
55102 
54824 
54647 
54513 
54369 
54189 
54127 
54104 
54033 
53948 
53845 
53745 
53700 
53718 
53740 
53720 
53749 
53751 
53794 
53875 
53982 
54055 
54157 
54254 
54375 
54515 
54680 
54815 
54892 
54923 
55038 
55188 
55379 
55579 
55701 
55852 
55976 
56103 
56219 
56300 
56371 
56385 
56493 
56592 
56687 
56783 
56861 
56944 
56991 
57017 
57080 
57176 
57239 
57202 
57195 
57248 
57297 
57308 
57326 
57317 
57320 
57370 
57376 
57380 
57397 
57425 
57386 
57412 
57480 
57532 
57594 
57587 
57565 
57610 
57676 
57712 
57735 
57710 
57697 
57720 
57716 
57748 
57789 
57816 
57826 
57791 
57763 
57736 
57766 
57810 
57854 
57854 
57854 
57870 
57851 
57785 
57771 
57780 
57812 
57870 
57927 
57955 
57953 
57950 
57972 
58023 
58106 
58128 
58135 
58156 
58165 
58149 
58136 
58148 
58198 
58239 
58300 
58332 
58358 
58339 
58314 
58399 
58452 
58470 
58481 
58507 
58566 
58612 
58698 
58743 
58760 
58814 
58843 
58874 
58916 
58923 
58949 
58970 
58965 
58918 
58929 
58847 
58708 
58582 
58453 
58271 
58053 
57844 
57640 
57436 
57273 
57117 
56910 
56701 
56469 
56213 
55950 
55714 
55509 
55386 
55250 
55093 
54998 
54907 
54809 
54724 
54654 
54649 
54607 
54568 
54516 
54490 
54501 
54501 
54537 
54596 
54593 
54613 
54745 
54866 
54963 
55056 
55152 
55234 
55335 
55460 
55578 
55724 
55903 
56089 
56296 
56408 
56515 
56609 
56738 
56952 
57078 
57128 
57196 
57265 
57386 
57503 
57593 
57710 
57791 
57863 
57908 
57951 
58063 
58134 
58165 
58187 
58253 
58372 
58442 
58415 
58403 
58426 
58418 
58432 
58456 
58485 
58541 
58580 
58601 
58613 
58593 
58634 
58701 
58695 
58712 
58692 
58707 
58747 
58757 
58724 
58754 
58824 
58854 
58889 
58920 
58939 
58946 
58990 
59065 
59177 
59251 
59293 
59289 
59328 
59383 
59442 
59490 
59543 
59645 
59673 
59704 
59782 
59851 
59927 
60011 
60056 
60079 
60126 
60183 
60254 
60329 
60423 
60485 
60501 
60530 
60535 
60541 
60566 
60596 
60612 
60635 
60657 
60682 
60724 
60800 
60847 
60881 
60924 
60947 
60945 
60973 
61010 
61031 
61045 
61048 
61070 
61077 
61084 
61056 
61034 
61040 
61039 
61069 
61101 
61092 
61084 
61058 
61008 
60999 
61002 
60995 
60942 
60865 
60774 
60622 
60494 
60277 
60006 
59675 
59324 
59027 
58704 
58355 
58037 
57734 
57432 
57131 
56845 
56550 
56277 
56042 
55801 
55573 
55367 
55134 
54934 
54805 
54642 
54498 
54374 
54256 
54200 
54131 
54001 
53923 
53838 
53722 
53611 
53505 
53417 
53364 
53369 
53343 
53329 
53363 
53355 
53325 
53341 
53389 
53415 
53428 
53414 
53443 
53506 
53526 
53572 
53664 
53731 
53830 
53943 
54050 
54178 
54276 
54361 
54444 
54551 
54702 
54883 
55031 
55147 
55262 
55403 
55574 
55683 
55765 
55897 
56057 
56184 
56277 
56362 
56464 
56580 
56646 
56748 
56872 
56982 
57100 
57251 
57389 
57513 
57629 
57734 
57818 
57882 
57959 
58035 
58089 
58154 
58224 
58238 
58318 
58397 
58442 
58556 
58655 
58740 
58845 
58887 
58964 
59032 
59111 
59141 
59190 
59248 
59319 
59375 
59424 
59481 
59600 
59709 
59752 
59817 
59881 
59931 
59949 
59969 
59987 
60040 
60053 
60077 
60113 
60091 
60073 
60051 
60002 
59972 
59933 
59934 
59911 
59921 
59882 
59816 
59782 
59770 
59775 
59759 
59749 
59759 
59754 
59754 
59781 
59833 
59857 
59884 
59869 
59909 
59891 
59862 
59818 
59813 
59816 
59784 
59776 
59833 
59835 
59812 
59894 
59948 
59978 
60000 
60053 
60094 
60111 
60117 
60128 
60178 
60267 
60285 
60295 
60308 
60361 
60421 
60441 
60494 
60497 
60520 
60575 
60634 
60701 
60749 
60781 
60796 
60825 
60885 
60908 
60918 
60945 
61029 
61045 
61019 
61020 
61059 
61059 
61028 
61036 
61015 
61035 
61070 
61098 
61117 
61106 
61103 
61142 
61117 
61105 
61144 
61185 
61186 
61187 
61197 
61140 
61111 
61104 
61105 
61092 
61068 
61058 
61094 
61123 
61104 
61081 
61093 
61127 
61135 
61165 
61201 
61187 
61184 
61120 
61074 
61135 
61139 
61094 
61031 
61025 
61034 
61022 
61032 
61103 
61090 
61038 
61009 
61006 
60945 
60915 
60909 
60875 
60832 
60807 
60770 
60779 
60808 
60791 
60762 
60742 
60743 
60737 
60717 
60699 
60611 
60520 
60487 
60411 
60355 
60360 
60311 
60243 
60178 
60151 
60093 
60014 
59902 
59866 
59803 
59719 
59655 
59648 
59633 
59589 
59545 
59513 
59476 
59473 
59485 
59495 
59464 
59403 
59336 
59285 
59263 
59266 
59227 
59211 
59231 
59135 
59019 
59008 
58995 
58954 
58904 
58870 
58799 
58730 
58688 
58686 
58687 
58643 
58604 
58598 
58574 
58540 
58525 
58464 
58395 
58388 
58388 
58358 
58333 
58321 
58295 
58277 
58270 
58174 
58157 
58124 
58057 
58041 
58018 
57998 
57953 
57934 
57936 
57908 
57882 
57927 
57917 
57855 
57825 
57835 
57897 
57895 
57862 
57842 
57835 
57837 
57828 
57783 
57743 
57755 
57761 
57763 
57761 
57776 
57750 
57732 
57680 
57665 
57666 
57628 
57580 
57567 
57549 
57544 
57567 
57554 
57492 
57454 
57479 
57511 
57552 
57519 
57490 
57512 
57504 
57510 
57463 
57469 
57493 
57475 
57434 
57420 
57426 
57446 
57403 
57383 
57331 
57279 
57230 
57197 
57177 
57184 
57166 
57141 
57098 
57053 
57053 
57059 
57039 
57020 
56991 
56910 
56905 
56897 
56841 
56788 
56793 
56803 
56751 
56651 
56620 
56587 
56558 
56463 
56418 
56399 
56417 
56404 
56374 
56350 
56316 
56328 
56333 
56277 
56215 
56202 
56204 
56230 
56245 
56241 
56284 
56318 
56281 
56204 
56160 
56141 
56097 
56108 
56092 
56049 
56023 
56044 
56087 
56102 
56054 
56002 
56010 
56052 
56069 
56053 
56034 
56024 
55988 
56006 
56054 
56116 
56147 
56166 
56166 
56144 
56110 
56116 
56127 
56167 
56235 
56253 
56184 
56091 
56050 
56070 
56098 
56142 
56146 
56128 
56162 
56159 
56124 
56114 
56101 
56114 
56134 
56080 
56014 
55943 
55920 
55968 
56026 
56053 
56026 
55992 
56010 
56025 
55958 
55890 
55900 
55872 
55842 
55797 
55774 
55790 
55841 
55849 
55846 
55839 
55856 
55884 
55935 
55956 
55974 
55993 
55992 
55982 
56033 
56076 
56118 
56146 
56151 
56110 
56075 
56028 
56006 
55967 
55910 
55908 
55944 
55949 
55977 
55997 
56022 
56014 
55987 
55996 
56002 
55964 
55990 
56034 
56051 
56095 
56104 
56139 
56170 
56186 
56191 
56217 
56252 
56240 
56226 
56254 
56301 
56313 
56310 
56339 
56351 
56351 
56343 
56352 
56368 
56361 
56319 
56359 
56394 
56428 
56424 
56444 
56518 
56519 
56487 
56498 
56493 
56508 
56501 
56478 
56483 
56507 
56508 
56531 
56556 
56556 
56528 
56531 
56576 
56602 
56567 
56530 
56531 
56572 
56634 
56645 
56640 
56589 
56558 
56548 
56588 
56597 
56579 
56633 
56680 
56670 
56719 
56772 
56789 
56784 
56775 
56763 
56837 
56894 
56870 
56907 
56929 
56935 
56934 
56916 
56937 
56942 
56906 
56917 
56984 
57032 
57026 
57026 
57026 
57020 
57042 
57061 
57071 
57051 
57060 
57067 
57060 
57115 
57179 
57187 
57178 
57162 
57133 
57116 
57114 
57021 
56977 
57002 
56990 
57025 
57029 
57047 
57051 
57002 
56991 
56988 
57021 
57002 
56918 
56914 
56918 
56956 
56947 
56919 
56852 
56797 
56826 
56832 
56845 
56849 
56827 
56849 
56834 
56825 
56813 
56823 
56844 
56792 
56730 
56629 
56627 
56660 
56638 
56623 
56656 
56636 
56617 
56620 
56572 
56538 
56557 
56623 
56636 
56610 
56636 
56598 
56584 
56592 
56613 
56628 
56619 
56635 
56641 
56657 
56680 
56672 
56670 
56649 
56666 
56680 
56665 
56630 
56615 
56609 
56618 
56631 
56628 
56642 
56684 
56615 
56538 
56512 
56462 
56426 
56366 
56325 
56321 
56280 
56273 
56294 
56309 
56351 
56384 
56360 
56331 
56342 
56311 
56254 
56282 
56292 
56252 
56209 
56190 
56185 
56169 
56148 
56140 
56204 
56211 
56178 
56130 
56095 
56073 
56057 
56068 
56079 
56091 
56118 
56154 
56140 
56085 
56063 
56114 
56165 
56180 
56158 
56172 
56162 
56122 
56099 
56109 
56122 
56218 
56306 
56357 
56354 
56317 
56272 
56274 
56312 
56325 
56328 
56354 
56318 
56326 
56369 
56385 
56388 
56385 
56364 
56403 
56445 
56429 
56422 
56434 
56417 
56435 
56448 
56462 
56456 
56453 
56495 
56529 
56479 
56439 
56416 
56412 
56425 
56466 
56484 
56465 
56434 
56431 
56455 
56469 
56483 
56471 
56433 
56391 
56403 
56374 
56379 
56388 
56374 
56353 
56333 
56359 
56364 
56329 
56314 
56327 
56370 
56355 
56316 
56304 
56293 
56310 
56303 
56312 
56322 
56346 
56382 
56362 
56371 
56382 
56421 
56470 
56485 
56478 
56432 
56417 
56399 
56343 
56374 
56411 
56371 
56366 
56365 
56407 
56414 
56410 
56409 
56466 
56480 
56465 
56433 
56405 
56384 
56343 
56323 
56363 
56461 
56461 
56446 
56432 
56422 
56381 
56326 
56321 
56302 
56330 
56355 
56345 
56327 
56338 
56317 
56281 
56241 
56217 
56262 
56318 
56328 
56289 
56268 
56241 
56246 
56267 
56231 
56206 
56212 
56240 
56250 
56257 
56249 
56267 
56266 
56292 
56282 
56206 
56181 
56232 
56259 
56247 
56234 
56246 
56296 
56339 
56407 
56398 
56369 
56341 
56326 
56357 
56379 
56333 
56340 
56351 
56385 
56394 
56382 
56341 
56321 
56367 
56446 
56435 
56386 
56366 
56406 
56428 
56428 
56396 
56431 
56483 
56495 
56464 
56426 
56427 
56449 
56461 
56447 
56485 
56484 
56495 
56503 
56531 
56552 
56534 
56551 
56573 
56605 
56560 
56519 
56554 
56560 
56541 
56522 
56492 
56514 
56515 
56511 
56489 
56461 
56468 
56476 
56479 
56451 
56445 
56468 
56514 
56519 
56515 
56526 
56539 
56534 
56545 
56546 
56568 
56556 
56549 
56531 
56533 
56523 
56495 
56524 
56546 
56512 
56499 
56436 
56379 
56401 
56372 
56320 
56296 
56280 
56292 
56307 
56335 
56355 
56363 
56396 
56444 
56442 
56431 
56426 
56387 
56344 
56367 
56358 
56312 
56305 
56347 
56408 
56414 
56363 
56363 
56336 
56285 
56274 
56293 
56317 
56387 
56457 
56451 
56443 
56418 
56416 
56415 
56411 
56451 
56443 
56430 
56416 
56408 
56383 
56352 
56331 
56329 
56300 
56283 
56293 
56279 
56247 
56188 
56158 
56175 
56172 
56152 
56190 
56194 
56200 
56228 
56228 
56242 
56209 
56141 
56083 
56128 
56181 
56216 
56264 
56301 
56258 
56240 
56214 
56192 
56158 
56162 
56133 
56096 
56074 
56109 
56166 
56154 
56171 
56206 
56181 
56139 
56147 
56185 
56201 
56208 
56220 
56185 
56126 
56137 
56163 
56205 
56256 
56272 
56276 
56250 
56176 
56137 
56149 
56156 
56168 
56157 
56172 
56191 
56230 
56269 
56281 
56307 
56303 
56252 
56229 
56229 
56223 
56250 
56271 
56253 
56321 
56367 
56378 
56353 
56289 
56275 
56294 
56291 
56257 
56229 
56226 
56229 
56238 
56245 
56230 
56237 
56271 
56301 
56264 
56243 
56261 
56259 
56220 
56189 
56182 
56204 
56218 
56232 
56202 
56158 
56136 
56171 
56168 
56129 
56170 
56181 
56188 
56249 
56240 
56179 
56185 
56223 
56229 
56232 
56205 
56171 
56236 
56255 
56218 
56199 
56144 
56144 
56150 
56176 
56138 
56123 
56124 
56167 
56206 
56197 
56226 
56229 
56201 
56205 
56211 
56199 
56185 
56224 
56239 
56225 
56180 
56162 
56176 
56201 
56220 
56217 
56221 
56207 
56136 
56122 
56090 
56075 
56084 
56067 
56009 
55929 
55917 
55953 
55969 
55940 
55947 
55972 
55938 
55924 
55911 
55913 
55878 
55813 
55778 
55769 
55773 
55745 
55727 
55741 
55778 
55814 
55807 
55786 
55759 
55753 
55777 
55772 
55757 
55740 
55718 
55724 
55754 
55779 
55818 
55821 
55821 
55771 
55758 
55790 
55784 
55805 
55837 
55849 
55814 
55775 
55764 
55734 
55696 
55670 
55684 
55714 
55725 
55740 
55788 
55811 
55836 
55886 
55885 
55816 
55746 
55765 
55809 
55840 
55870 
55873 
55861 
55915 
55910 
55849 
55831 
55814 
55810 
55822 
55834 
55828 
55844 
55816 
55780 
55787 
55769 
55795 
55836 
55870 
55901 
55888 
55934 
56008 
56015 
55977 
55917 
55930 
55918 
55980 
56060 
56032 
56007 
55963 
55946 
55949 
55950 
55925 
55901 
55884 
55847 
55850 
55885 
55924 
55987 
56016 
55979 
55948 
55947 
55988 
56012 
56035 
56050 
56042 
56042 
56048 
56048 
56030 
55987 
55957 
55948 
55960 
55970 
55961 
55960 
55940 
55950 
55949 
55967 
55964 
55946 
55926 
55939 
55960 
55994 
56014 
56011 
56022 
56034 
56015 
55968 
55970 
55980 
55998 
56021 
56067 
56023 
56010 
55979 
56005 
56082 
56068 
56060 
56063 
56017 
55976 
55949 
55892 
55939 
56028 
56016 
55990 
55996 
55998 
55983 
55970 
55969 
55979 
55991 
56009 
56008 
55991 
55913 
55863 
55877 
55897 
55893 
55853 
55859 
55889 
55967 
55997 
55970 
55908 
55865 
55875 
55858 
55835 
55810 
55807 
55799 
55799 
55817 
55867 
55822 
55806 
55804 
55844 
55856 
55784 
55734 
55795 
55883 
55902 
55887 
55831 
55800 
55787 
55752 
55736 
55734 
55777 
55823 
55820 
55766 
55722 
55700 
55724 
55767 
55800 
55814 
55817 
55790 
55739 
55714 
55723 
55729 
55715 
55748 
55771 
55830 
55883 
55904 
55881 
55855 
55831 
55871 
55909 
55900 
55910 
55891 
55866 
55854 
55838 
55830 
55812 
55790 
55797 
55832 
55845 
55872 
55833 
55833 
55800 
55758 
55759 
55801 
55852 
55896 
55864 
55812 
55805 
55868 
55881 
55839 
55896 
55931 
55948 
55980 
55978 
55965 
55932 
55887 
55947 
55996 
56015 
55994 
55997 
56002 
56014 
56062 
56068 
56038 
56036 
56043 
56053 
56043 
56032 
56036 
56049 
56090 
56103 
56104 
56103 
56092 
56118 
56109 
56124 
56155 
56148 
56162 
56176 
56170 
56156 
56123 
56060 
56085 
56090 
56094 
56096 
56175 
56182 
56180 
56180 
56182 
56168 
56135 
56110 
56098 
56098 
56125 
56138 
56136 
56173 
56175 
56189 
56234 
56252 
56226 
56220 
56202 
56189 
56172 
56104 
56072 
56082 
56075 
56132 
56167 
56143 
56103 
56084 
56099 
56142 
56120 
56099 
56107 
56134 
56123 
56101 
56080 
56079 
56143 
56210 
56224 
56199 
56193 
56172 
56185 
56194 
56171 
56131 
56094 
56084 
56077 
56103 
56140 
56162 
56160 
56140 
56117 
56068 
56042 
56064 
56060 
56061 
56038 
56020 
55996 
56025 
56055 
56030 
56008 
56025 
56060 
56075 
56062 
56038 
56012 
56063 
56062 
56007 
55972 
55997 
56036 
56066 
56070 
56046 
55982 
55926 
55910 
55949 
56013 
56071 
56067 
56043 
55993 
55976 
56023 
56012 
55970 
55936 
55931 
55921 
55913 
55960 
55984 
56008 
55996 
55975 
55954 
55991 
56025 
56006 
55994 
56009 
55964 
55962 
55983 
55959 
55938 
55983 
56053 
56064 
56050 
56024 
56023 
56016 
56037 
56063 
56056 
56051 
56123 
56150 
56104 
56060 
56089 
56092 
56021 
55950 
55921 
55972 
55989 
55944 
55980 
56050 
56096 
56115 
56096 
56062 
56037 
56043 
56034 
56049 
56124 
56189 
56135 
56121 
56118 
56090 
56131 
56153 
56144 
56191 
56256 
56251 
56252 
56256 
56236 
56196 
56195 
56205 
56200 
56221 
56241 
56232 
56200 
56170 
56111 
56040 
55981 
55971 
56023 
56057 
56040 
56068 
56098 
56132 
56176 
56184 
56198 
56192 
56137 
56131 
56165 
56149 
56157 
56142 
56110 
56084 
56095 
56123 
56072 
56001 
55960 
55980 
56034 
56051 
56082 
56101 
56114 
56090 
56052 
56035 
56074 
56113 
56094 
56029 
56049 
56078 
56097 
56098 
56090 
56092 
56134 
56164 
56155 
56156 
56143 
56140 
56118 
56061 
56065 
56104 
56126 
56117 
56109 
56113 
56101 
56121 
56179 
56186 
56183 
56195 
56196 
56206 
56189 
56168 
56112 
56125 
56185 
56231 
56238 
56220 
56205 
56163 
56158 
56185 
56232 
56251 
56217 
56216 
56215 
56207 
56212 
56231 
56237 
56246 
56233 
56233 
56264 
56305 
56277 
56225 
56262 
56300 
56324 
56340 
56315 
56308 
56352 
56379 
56409 
56422 
56387 
56382 
56336 
56267 
56276 
56317 
56332 
56307 
56313 
56308 
56309 
56298 
56339 
56364 
56415 
56396 
56365 
56348 
56349 
56337 
56326 
56299 
56306 
56310 
56280 
56239 
56234 
56254 
56274 
56274 
56271 
56292 
56318 
56275 
56295 
56348 
56370 
56325 
56297 
56342 
56387 
56379 
56354 
56347 
56360 
56327 
56304 
56300 
56333 
56352 
56350 
56317 
56272 
56281 
56241 
56206 
56204 
56175 
56164 
56183 
56200 
56182 
56157 
56157 
56197 
56190 
56119 
56099 
56093 
56071 
56099 
56123 
56097 
56083 
56053 
55992 
55991 
55990 
55986 
55989 
56035 
56093 
56044 
55986 
55934 
55962 
56015 
56001 
55984 
55999 
55971 
55973 
55994 
56014 
56037 
56034 
56006 
55952 
55923 
55926 
55947 
55948 
55934 
55903 
55902 
55927 
55938 
55920 
55932 
55950 
55959 
55964 
55982 
55948 
55905 
55909 
55930 
55946 
55927 
55941 
55947 
55969 
55956 
55952 
55973 
55981 
55942 
55922 
55954 
55970 
55938 
55957 
55936 
55881 
55869 
55900 
55941 
55952 
55940 
55941 
55951 
55958 
55914 
55850 
55881 
55934 
55939 
55959 
55991 
56028 
56039 
56034 
56012 
56012 
56005 
55994 
56014 
55965 
55962 
56023 
56045 
56026 
56050 
56027 
55973 
55975 
55976 
56003 
56060 
56101 
56121 
56100 
56063 
56038 
56003 
56001 
55976 
56020 
56036 
56048 
56051 
56074 
56074 
55980 
55950 
55963 
55952 
55955 
55966 
55998 
56018 
56018 
55977 
55989 
55982 
55966 
56004 
55981 
55976 
55996 
55968 
56009 
56019 
55995 
55939 
55902 
55937 
55899 
55877 
55886 
55823 
55826 
55844 
55856 
55845 
55835 
55851 
55830 
55859 
55812 
55805 
55836 
55880 
55872 
55845 
55840 
55840 
55847 
55846 
55866 
55874 
55823 
55837 
55889 
55901 
55892 
55855 
55795 
55715 
55661 
55666 
55737 
55746 
55709 
55647 
55621 
55624 
55645 
55647 
55631 
55661 
55721 
55738 
55728 
55745 
55727 
55675 
55659 
55636 
55647 
55670 
55671 
55628 
55612 
55630 
55629 
55628 
55677 
55694 
55708 
55714 
55741 
55726 
55693 
55679 
55707 
55693 
55656 
55626 
55607 
55653 
55698 
55716 
55723 
55718 
55696 
55704 
55742 
55739 
55731 
55757 
55796 
55820 
55812 
55804 
55800 
55828 
55827 
55868 
55882 
55896 
55903 
55879 
55871 
55861 
55839 
55817 
55791 
55729 
55720 
55779 
55802 
55788 
55750 
55749 
55729 
55730 
55716 
55742 
55792 
55854 
55929 
55913 
55867 
55797 
55763 
55734 
55740 
55730 
55705 
55763 
55808 
55833 
55849 
55841 
55842 
55871 
55921 
55960 
55964 
55952 
55975 
56003 
55984 
55973 
55924 
55857 
55876 
55864 
55819 
55803 
55831 
55807 
55789 
55769 
55733 
55747 
55742 
55731 
55753 
55835 
55826 
55830 
55842 
55831 
55817 
55795 
55800 
55778 
55797 
55805 
55768 
55755 
55726 
55699 
55674 
55620 
55599 
55586 
55612 
55608 
55591 
55594 
55566 
55559 
55581 
55606 
55643 
55647 
55641 
55609 
55563 
55599 
55624 
55611 
55616 
55610 
55588 
55606 
55598 
55604 
55597 
55546 
55575 
55573 
55549 
55533 
55535 
55545 
55497 
55428 
55433 
55497 
55505 
55513 
55487 
55488 
55491 
55476 
55512 
55506 
55467 
55490 
55525 
55543 
55540 
55586 
55611 
55603 
55599 
55635 
55670 
55683 
55726 
55732 
55710 
55658 
55642 
55673 
55661 
55617 
55656 
55707 
55694 
55651 
55638 
55631 
55629 
55617 
55590 
55569 
55597 
55708 
55756 
55744 
55728 
55675 
55624 
55611 
55625 
55615 
55680 
55772 
55756 
55753 
55748 
55721 
55745 
55760 
55745 
55761 
55780 
55766 
55736 
55715 
55738 
55769 
55777 
55798 
55784 
55774 
55799 
55813 
55823 
55848 
55845 
55844 
55830 
55831 
55828 
55812 
55816 
55860 
55874 
55870 
55855 
55898 
55949 
55939 
55898 
55849 
55855 
55898 
55894 
55860 
55815 
55833 
55822 
55829 
55872 
55919 
55947 
55971 
56000 
55993 
55965 
55917 
55888 
55900 
55922 
55949 
55974 
56001 
56015 
56007 
55981 
55984 
55977 
55958 
55944 
55901 
55892 
55923 
55928 
55948 
55943 
55920 
55902 
55868 
55841 
55811 
55851 
55875 
55873 
55881 
55844 
55789 
55816 
55822 
55836 
55859 
55878 
55881 
55843 
55830 
55855 
55836 
55865 
55899 
55906 
55877 
55861 
55878 
55894 
55901 
55883 
55890 
55919 
55881 
55815 
55843 
55860 
55883 
55909 
55912 
55903 
55845 
55786 
55731 
55771 
55803 
55804 
55783 
55740 
55745 
55767 
55743 
55724 
55728 
55785 
55802 
55814 
55823 
55834 
55859 
55885 
55827 
55860 
55867 
55894 
55920 
55911 
55881 
55871 
55828 
55782 
55786 
55781 
55744 
55749 
55743 
55721 
55772 
55793 
55795 
55747 
55740 
55747 
55738 
55744 
55717 
55705 
55701 
55686 
55691 
55759 
55747 
55653 
55635 
55660 
55673 
55718 
55784 
55763 
55738 
55738 
55771 
55775 
55781 
55781 
55842 
55868 
55828 
55751 
55703 
55711 
55741 
55713 
55718 
55750 
55791 
55781 
55765 
55770 
55829 
55867 
55894 
55925 
55934 
55936 
55942 
55930 
55888 
55899 
55915 
55940 
55954 
55986 
55962 
55973 
56013 
55988 
55982 
55958 
55940 
55989 
56083 
56105 
56071 
56038 
55995 
55978 
56021 
56031 
56002 
56029 
56041 
56045 
56049 
56055 
56083 
56066 
56022 
56055 
56091 
56118 
56147 
56095 
56035 
56051 
56091 
56039 
55989 
55988 
56020 
56016 
56021 
56048 
56077 
56080 
56128 
56205 
56234 
56200 
56184 
56199 
56220 
56245 
56257 
56236 
56263 
56239 
56199 
56173 
56122 
56110 
56114 
56102 
56184 
56205 
56173 
56129 
56066 
56060 
56073 
56115 
56155 
56159 
56154 
56187 
56256 
56236 
56163 
56120 
56138 
56165 
56187 
56232 
56231 
56197 
56170 
56171 
56169 
56241 
56251 
56193 
56185 
56220 
56188 
56157 
56143 
56158 
56194 
56171 
56123 
56115 
56102 
56080 
56066 
56072 
56118 
56147 
56156 
56172 
56179 
56214 
56216 
56233 
56236 
56205 
56197 
56186 
56245 
56218 
56179 
56176 
56169 
56175 
56167 
56144 
56179 
56223 
56191 
56102 
56066 
56102 
56107 
56133 
56170 
56210 
56197 
56168 
56172 
56176 
56228 
56247 
56249 
56222 
56217 
56186 
56195 
56174 
56162 
56211 
56242 
56232 
56214 
56261 
56264 
56251 
56200 
56200 
56239 
56251 
56201 
56172 
56168 
56147 
56150 
56159 
56155 
56090 
56057 
56053 
56045 
56092 
56067 
56058 
56067 
56041 
56025 
56039 
56038 
56028 
55972 
55941 
55921 
55912 
55923 
55923 
55928 
55925 
55909 
55911 
55915 
55916 
55879 
55873 
55861 
55849 
55885 
55889 
55844 
55800 
55798 
55818 
55831 
55822 
55804 
55792 
55775 
55826 
55909 
55910 
55869 
55870 
55807 
55775 
55788 
55775 
55752 
55751 
55756 
55782 
55833 
55862 
55853 
55810 
55823 
55861 
55863 
55828 
55852 
55885 
55880 
55839 
55842 
55847 
55848 
55834 
55872 
55883 
55864 
55880 
55977 
55989 
55948 
55975 
55984 
55966 
55957 
55965 
55965 
56030 
56077 
56054 
56025 
56008 
55971 
55983 
55973 
55950 
55945 
55974 
56014 
56028 
56019 
56004 
55994 
55962 
55951 
55953 
55965 
55994 
55995 
55989 
55967 
55958 
55974 
55975 
55972 
55956 
55919 
55960 
55948 
55947 
55957 
55986 
55985 
55966 
55956 
55933 
55852 
55866 
55896 
55894 
55856 
55887 
55914 
55947 
55931 
55928 
55909 
55893 
55882 
55882 
55855 
55826 
55814 
55807 
55818 
55822 
55786 
55754 
55771 
55789 
55815 
55812 
55814 
55831 
55843 
55851 
55871 
55894 
55867 
55843 
55849 
55884 
55893 
55863 
55838 
55814 
55817 
55799 
55839 
55838 
55826 
55860 
55872 
55868 
55885 
55905 
55848 
55799 
55783 
55749 
55761 
55769 
55771 
55753 
55722 
55703 
55660 
55604 
55526 
55517 
55561 
55587 
55590 
55590 
55592 
55564 
55538 
55519 
55511 
55487 
55466 
55448 
55505 
55526 
55477 
55452 
55403 
55390 
55402 
55370 
55375 
55328 
55317 
55343 
55316 
55315 
55331 
55313 
55356 
55381 
55401 
55410 
55413 
55428 
55412 
55419 
55380 
55381 
55420 
55444 
55464 
55451 
55478 
55545 
55571 
55534 
55530 
55553 
55538 
55532 
55547 
55492 
55455 
55453 
55450 
55497 
55503 
55420 
55438 
55476 
55520 
55526 
55498 
55454 
55455 
55559 
55651 
55678 
55654 
55660 
55659 
55657 
55636 
55618 
55609 
55615 
55640 
55634 
55615 
55622 
55626 
55658 
55651 
55657 
55693 
55660 
55667 
55703 
55703 
55701 
55702 
55706 
55695 
55664 
55650 
55626 
55669 
55725 
55710 
55694 
55701 
55687 
55706 
55698 
55705 
55745 
55737 
55710 
55642 
55658 
55688 
55636 
55659 
55678 
55709 
55739 
55710 
55730 
55718 
55691 
55680 
55694 
55751 
55795 
55793 
55794 
55779 
55825 
55825 
55792 
55829 
55885 
55888 
55853 
55862 
55843 
55791 
55792 
55793 
55823 
55840 
55874 
55951 
55974 
55984 
56039 
56033 
56031 
56043 
56043 
56005 
56008 
55999 
55989 
55959 
55908 
55883 
55869 
55857 
55867 
55895 
55888 
55854 
55800 
55782 
55725 
55675 
55689 
55747 
55760 
55756 
55800 
55792 
55744 
55738 
55746 
55719 
55723 
55665 
55602 
55524 
55537 
55557 
55603 
55644 
55666 
55648 
55613 
55602 
55556 
55536 
55546 
55564 
55543 
55542 
55586 
55606 
55579 
55562 
55590 
55582 
55542 
55578 
55595 
55579 
55579 
55613 
55615 
55614 
55628 
55634 
55646 
55646 
55630 
55629 
55585 
55574 
55586 
55633 
55653 
55676 
55648 
55586 
55554 
55568 
55579 
55574 
55577 
55588 
55620 
55630 
55617 
55670 
55690 
55654 
55681 
55691 
55661 
55669 
55698 
55737 
55724 
55715 
55667 
55674 
55719 
55768 
55797 
55761 
55721 
55718 
55695 
55645 
55622 
55594 
55578 
55623 
55673 
55726 
55764 
55785 
55695 
55651 
55633 
55643 
55673 
55687 
55696 
55719 
55744 
55741 
55723 
55729 
55699 
55682 
55735 
55796 
55841 
55834 
55818 
55749 
55706 
55670 
55722 
55741 
55737 
55732 
55714 
55732 
55788 
55804 
55801 
55850 
55877 
55856 
55821 
55809 
55824 
55797 
55784 
55773 
55743 
55741 
55740 
55725 
55699 
55691 
55712 
55726 
55779 
55813 
55828 
55845 
55874 
55896 
55914 
55969 
56019 
56027 
55972 
55937 
55918 
55844 
55817 
55859 
55838 
55797 
55792 
55822 
55866 
55912 
55921 
55875 
55856 
55856 
55872 
55923 
55956 
55973 
55968 
55944 
55947 
55953 
55937 
55931 
55969 
55972 
55956 
55943 
55924 
55965 
55973 
55979 
55959 
55944 
55913 
55913 
55956 
55930 
55885 
55875 
55877 
55921 
55919 
55890 
55917 
55954 
55977 
55962 
55964 
55968 
55966 
55923 
55927 
55932 
55953 
55952 
55897 
55851 
55878 
55918 
55901 
55885 
55889 
55866 
55848 
55858 
55833 
55779 
55755 
55745 
55786 
55877 
55926 
55921 
55910 
55933 
55923 
55860 
55785 
55816 
55858 
55831 
55807 
55790 
55789 
55785 
55767 
55783 
55788 
55759 
55813 
55822 
55839 
55812 
55787 
55788 
55769 
55765 
55756 
55774 
55764 
55766 
55780 
55796 
55761 
55718 
55735 
55765 
55756 
55750 
55763 
55768 
55774 
55768 
55781 
55774 
55803 
55790 
55761 
55773 
55786 
55814 
55856 
55831 
55853 
55851 
55847 
55860 
55885 
55924 
55968 
56008 
55993 
55964 
55995 
56048 
56067 
56027 
55982 
56010 
56060 
56066 
56052 
56019 
56027 
56026 
56007 
56013 
56004 
56048 
56048 
56001 
55983 
55990 
56009 
56045 
56040 
56050 
56086 
56124 
56126 
56120 
56136 
56170 
56205 
56206 
56185 
56150 
56143 
56153 
56145 
56134 
56119 
56078 
56099 
56146 
56154 
56179 
56144 
56093 
56034 
55977 
56010 
56032 
56007 
55999 
55987 
55954 
55986 
56040 
56057 
56082 
56070 
56073 
56106 
56122 
56129 
56097 
56024 
56023 
55992 
56007 
56052 
56093 
56097 
56095 
56087 
56126 
56144 
56120 
56105 
56078 
56032 
56001 
55955 
55945 
55993 
56016 
56067 
56161 
56186 
56165 
56124 
56097 
56041 
55988 
56030 
56109 
56088 
56076 
56111 
56089 
56122 
56110 
56068 
56060 
56033 
56017 
56006 
55994 
56000 
56018 
56064 
56078 
56108 
56153 
56201 
56203 
56180 
56114 
56054 
56093 
56146 
56117 
56113 
56107 
56119 
56149 
56117 
56115 
56141 
56184 
56188 
56178 
56185 
56131 
56108 
56156 
56124 
56094 
56090 
56086 
56069 
56042 
56061 
56057 
56047 
56069 
56072 
56040 
55955 
55894 
55904 
55955 
56007 
56033 
55993 
55976 
55993 
55988 
55985 
55959 
55942 
55945 
55958 
55996 
55999 
55998 
56014 
56003 
55970 
55957 
55941 
55904 
55897 
55955 
55993 
56000 
55956 
55899 
55912 
55930 
55951 
56003 
56016 
56090 
56091 
56051 
55992 
55937 
55938 
55948 
55949 
56011 
55983 
55925 
55902 
55908 
55903 
55885 
55893 
55888 
55895 
55917 
55993 
56013 
55991 
56018 
56018 
56007 
55944 
55944 
55942 
55945 
55973 
55989 
55965 
55957 
55918 
55844 
55843 
55808 
55766 
55755 
55778 
55808 
55828 
55843 
55818 
55821 
55843 
55833 
55815 
55776 
55752 
55788 
55779 
55800 
55800 
55774 
55746 
55765 
55800 
55781 
55773 
55738 
55703 
55720 
55760 
55831 
55819 
55790 
55834 
55861 
55855 
55863 
55856 
55842 
55796 
55769 
55743 
55793 
55854 
55911 
55957 
56011 
55978 
55948 
55956 
55931 
55885 
55878 
55925 
55959 
55970 
55960 
55958 
55989 
56076 
56130 
56114 
56096 
56032 
56024 
56064 
56066 
56077 
56078 
56077 
56079 
56117 
56098 
56118 
56136 
56163 
56138 
56126 
56146 
56161 
56155 
56151 
56142 
56127 
56168 
56164 
56149 
56131 
56208 
56217 
56157 
56184 
56193 
56148 
56148 
56186 
56174 
56141 
56150 
56157 
56201 
56184 
56206 
56279 
56325 
56352 
56301 
56262 
56276 
56269 
56229 
56227 
56219 
56230 
56275 
56277 
56239 
56237 
56236 
56206 
56217 
56183 
56156 
56199 
56269 
56218 
56156 
56152 
56204 
56274 
56318 
56307 
56297 
56255 
56199 
56160 
56186 
56202 
56245 
56341 
56380 
56360 
56306 
56237 
56182 
56101 
56012 
55922 
55863 
55871 
55834 
55784 
55709 
55638 
55612 
55636 
55609 
55552 
55503 
55448 
55428 
55446 
55403 
55319 
55270 
55218 
55225 
55243 
55238 
55196 
55184 
55164 
55166 
55138 
55134 
55139 
55161 
55168 
55166 
55177 
55173 
55200 
55227 
55216 
55208 
55194 
55145 
55121 
55160 
55220 
55206 
55202 
55186 
55173 
55228 
55259 
55256 
55263 
55250 
55292 
55331 
55380 
55414 
55420 
55406 
55442 
55452 
55486 
55507 
55473 
55460 
55516 
55535 
55555 
55586 
55589 
55598 
55658 
55689 
55711 
55714 
55723 
55740 
55783 
55756 
55705 
55674 
55670 
55743 
55828 
55878 
55917 
55946 
55956 
55979 
56008 
56048 
56043 
56068 
56112 
56126 
56150 
56141 
56145 
56169 
56173 
56188 
56205 
56186 
56209 
56226 
56233 
56237 
56220 
56217 
56287 
56322 
56293 
56245 
56261 
56315 
56321 
56343 
56334 
56361 
56393 
56435 
56417 
56427 
56450 
56440 
56428 
56428 
56437 
56420 
56427 
56483 
56514 
56505 
56518 
56501 
56499 
56514 
56507 
56523 
56558 
56572 
56577 
56579 
56609 
56631 
56624 
56604 
56562 
56578 
56672 
56660 
56610 
56585 
56606 
56601 
56564 
56542 
56470 
56356 
56247 
56168 
56117 
56141 
56109 
56057 
56020 
55953 
55838 
55715 
55717 
55669 
55570 
55468 
55451 
55446 
55426 
55387 
55353 
55337 
55349 
55331 
55251 
55204 
55217 
55185 
55123 
55014 
54945 
54921 
54924 
54894 
54882 
54923 
54967 
55018 
55062 
55071 
55076 
55074 
55084 
55081 
55107 
55095 
55102 
55105 
55094 
55079 
55115 
55150 
55131 
55136 
55171 
55250 
55334 
55370 
55371 
55410 
55381 
55342 
55314 
55349 
55434 
55532 
55554 
55578 
55584 
55559 
55549 
55555 
55567 
55579 
55599 
55670 
55701 
55696 
55739 
55750 
55731 
55786 
55827 
55859 
55865 
55894 
55938 
55937 
55930 
55945 
55934 
55929 
55957 
56021 
56104 
56150 
56177 
56176 
56191 
56190 
56187 
56226 
56233 
56294 
56330 
56371 
56426 
56443 
56431 
56406 
56403 
56448 
56494 
56529 
56558 
56601 
56616 
56659 
56709 
56722 
56735 
56732 
56651 
56566 
56582 
56605 
56617 
56675 
56708 
56719 
56739 
56776 
56718 
56651 
56690 
56753 
56884 
56973 
56985 
56995 
56970 
56949 
57019 
57091 
57027 
56984 
57038 
57104 
57125 
57126 
57138 
57118 
57092 
57016 
56943 
56865 
56780 
56659 
56581 
56512 
56486 
56452 
56363 
56299 
56262 
56180 
56066 
55975 
55902 
55835 
55781 
55727 
55661 
55647 
55626 
55587 
55563 
55502 
55434 
55420 
55401 
55332 
55241 
55166 
55124 
55119 
55141 
55194 
55207 
55215 
55210 
55177 
55137 
55154 
55150 
55180 
55188 
55178 
55216 
55285 
55315 
55300 
55295 
55330 
55343 
55344 
55347 
55347 
55352 
55369 
55386 
55391 
55428 
55459 
55439 
55414 
55420 
55430 
55483 
55532 
55534 
55529 
55565 
55569 
55532 
55516 
55539 
55559 
55612 
55623 
55611 
55634 
55686 
55710 
55702 
55730 
55710 
55752 
55767 
55753 
55769 
55782 
55829 
55869 
55957 
56074 
56117 
56128 
56145 
56178 
56214 
56222 
56222 
56278 
56335 
56336 
56397 
56483 
56535 
56572 
56567 
56599 
56666 
56729 
56770 
56824 
56851 
56909 
56909 
56867 
56830 
56819 
56858 
56896 
56984 
57010 
57045 
57084 
57101 
57144 
57217 
57232 
57297 
57392 
57411 
57405 
57422 
57446 
57470 
57526 
57622 
57694 
57676 
57635 
57715 
57783 
57787 
57779 
57788 
57741 
57712 
57693 
57576 
57483 
57442 
57399 
57374 
57358 
57272 
57224 
57179 
57098 
56998 
56869 
56793 
56698 
56603 
56523 
56468 
56361 
56289 
56214 
56138 
56101 
56059 
56033 
55990 
55905 
55852 
55841 
55854 
55795 
55730 
55642 
55585 
55590 
55618 
55646 
55628 
55558 
55524 
55525 
55496 
55482 
55457 
55448 
55488 
55491 
55516 
55514 
55519 
55494 
55458 
55486 
55532 
55522 
55552 
55573 
55568 
55548 
55537 
55521 
55453 
55410 
55421 
55451 
55482 
55478 
55491 
55522 
55518 
55510 
55522 
55554 
55566 
55582 
55608 
55669 
55673 
55673 
55679 
55707 
55694 
55702 
55730 
55758 
55776 
55790 
55830 
55894 
55960 
56021 
56060 
56073 
56092 
56134 
56183 
56255 
56290 
56323 
56343 
56372 
56405 
56432 
56514 
56608 
56641 
56737 
56837 
56867 
56884 
56922 
56939 
56933 
56983 
57068 
57098 
57150 
57230 
57318 
57353 
57394 
57474 
57559 
57603 
57694 
57759 
57772 
57830 
57899 
57988 
58065 
58086 
58100 
58139 
58180 
58196 
58234 
58270 
58331 
58424 
58450 
58442 
58511 
58568 
58659 
58698 
58759 
58818 
58820 
58822 
58826 
58800 
58752 
58675 
58560 
58500 
58396 
58289 
58280 
58189 
58062 
57950 
57830 
57726 
57649 
57530 
57422 
57349 
57266 
57193 
57124 
57027 
56924 
56823 
56780 
56755 
56713 
56650 
56606 
56584 
56547 
56509 
56541 
56528 
56481 
56456 
56420 
56394 
56377 
56345 
56314 
56311 
56318 
56355 
56375 
56332 
56323 
56343 
56352 
56359 
56362 
56390 
56410 
56454 
56494 
56513 
56485 
56511 
56584 
56597 
56605 
56658 
56696 
56689 
56666 
56631 
56640 
56703 
56726 
56735 
56774 
56843 
56894 
56923 
56935 
56978 
57012 
57055 
57128 
57176 
57159 
57185 
57238 
57280 
57309 
57364 
57426 
57447 
57504 
57590 
57647 
57677 
57740 
57821 
57887 
58021 
58161 
58227 
58231 
58249 
58278 
58325 
58386 
58470 
58501 
58563 
58643 
58720 
58792 
58858 
58954 
59010 
59079 
59140 
59215 
59256 
59259 
59304 
59385 
59463 
59545 
59633 
59714 
59761 
59744 
59760 
59834 
59887 
59890 
59905 
59959 
59989 
60026 
60052 
60088 
60158 
60188 
60230 
60295 
60315 
60370 
60466 
60518 
60590 
60614 
60637 
60666 
60698 
60725 
60740 
60816 
60882 
60850 
60874 
60924 
60967 
61011 
61007 
60950 
60898 
60844 
60796 
60707 
60557 
60409 
60302 
60174 
60058 
59879 
59678 
59521 
59424 
59350 
59217 
59041 
58937 
58874 
58793 
58701 
58621 
58495 
58358 
58280 
58200 
58122 
58034 
57974 
57939 
57846 
57752 
57679 
57647 
57631 
57593 
57549 
57526 
57513 
57460 
57387 
57321 
57354 
57401 
57447 
57497 
57545 
57589 
57583 
57660 
57705 
57685 
57724 
57795 
57836 
57854 
57871 
57938 
57976 
57994 
58028 
58059 
58122 
58194 
58258 
58301 
58332 
58353 
58327 
58348 
58433 
58475 
58504 
58551 
58618 
58647 
58700 
58778 
58805 
58844 
58892 
58938 
58984 
59003 
59026 
59111 
59152 
59169 
59210 
59214 
59225 
59241 
59232 
59280 
59380 
59415 
59439 
59496 
59571 
59593 
59609 
59659 
59742 
59840 
59906 
59993 
60138 
60214 
60230 
60263 
60290 
60329 
60380 
60424 
60471 
60556 
60630 
60675 
60705 
60745 
60775 
60800 
60824 
60827 
60827 
60874 
60911 
60941 
60992 
61059 
61086 
61074 
61072 
61136 
61259 
61344 
61381 
61422 
61430 
61361 
61347 
61418 
61490 
61555 
61618 
61687 
61684 
61668 
61676 
61665 
61669 
61706 
61759 
61862 
61879 
61900 
61948 
61990 
62007 
62048 
62077 
62107 
62176 
62142 
62123 
62161 
62183 
62189 
62192 
62193 
62215 
62202 
62201 
62157 
62088 
62004 
61919 
61812 
61660 
61514 
61348 
61125 
60907 
60708 
60512 
60335 
60160 
60038 
59910 
59741 
59561 
59411 
59275 
59177 
59035 
58880 
58760 
58693 
58620 
58474 
58335 
58214 
58138 
58075 
58014 
57990 
57977 
57968 
57917 
57886 
57890 
57897 
57899 
57935 
57963 
57981 
58004 
57978 
58004 
58058 
58121 
58211 
58306 
58355 
58390 
58493 
58607 
58686 
58775 
58830 
58850 
58909 
59003 
59087 
59168 
59244 
59326 
59451 
59546 
59604 
59679 
59771 
59818 
59887 
59977 
60056 
60126 
60208 
60236 
60241 
60264 
60329 
60368 
60415 
60452 
60529 
60616 
60641 
60691 
60750 
60796 
60846 
60937 
60971 
61012 
61040 
61051 
61060 
61082 
61122 
61235 
61345 
61349 
61312 
61306 
61327 
61379 
61400 
61444 
61465 
61475 
61573 
61619 
61606 
61605 
61675 
61768 
61806 
61822 
61827 
61817 
61804 
61859 
61945 
62093 
62150 
62138 
62137 
62181 
62193 
62184 
62181 
62222 
62313 
62322 
62312 
62301 
62344 
62398 
62386 
62342 
62296 
62338 
62348 
62333 
62306 
62333 
62359 
62399 
62416 
62466 
62482 
62468 
62476 
62499 
62534 
62579 
62575 
62576 
62598 
62675 
62680 
62624 
62545 
62506 
62516 
62547 
62581 
62589 
62554 
62562 
62580 
62615 
62589 
62607 
62635 
62622 
62605 
62579 
62478 
62402 
62386 
62348 
62234 
62084 
61886 
61737 
61571 
61392 
61178 
60994 
60845 
60662 
60495 
60339 
60192 
60049 
59883 
59734 
59603 
59507 
59402 
59293 
59201 
59105 
59020 
58942 
58915 
58877 
58872 
58864 
58813 
58786 
58790 
58806 
58795 
58792 
58802 
58798 
58866 
58950 
58962 
58970 
59035 
59117 
59192 
59256 
59316 
59446 
59541 
59588 
59639 
59722 
59844 
59940 
60011 
60068 
60149 
60267 
60367 
60500 
60593 
60667 
60764 
60847 
60916 
61044 
61147 
61207 
61252 
61273 
61317 
61342 
61370 
61450 
61522 
61594 
61678 
61734 
61761 
61717 
61749 
61833 
61873 
61887 
61892 
61979 
62052 
62083 
62111 
62146 
62149 
62179 
62222 
62238 
62243 
62278 
62270 
62268 
62290 
62317 
62339 
62380 
62394 
62387 
62396 
62444 
62481 
62525 
62594 
62651 
62731 
62739 
62656 
62636 
62643 
62638 
62641 
62616 
62593 
62570 
62622 
62694 
62718 
62732 
62725 
62730 
62720 
62683 
62696 
62748 
62777 
62727 
62727 
62782 
62809 
62866 
62886 
62900 
62935 
62955 
62960 
62959 
62963 
62945 
62947 
62971 
62945 
62945 
62959 
62974 
63030 
63094 
63104 
63054 
63030 
63001 
62955 
62952 
62922 
62918 
62908 
62897 
62892 
62896 
62851 
62740 
62615 
62526 
62401 
62281 
62163 
62061 
61955 
61825 
61600 
61356 
61207 
61064 
60855 
60623 
60477 
60370 
60226 
60069 
59927 
59748 
59600 
59531 
59450 
59331 
59202 
59075 
58993 
58947 
58922 
58868 
58792 
58720 
58661 
58701 
58742 
58778 
58845 
58897 
58971 
59035 
59115 
59168 
59230 
59341 
59450 
59540 
59619 
59702 
59796 
59876 
59961 
60074 
60194 
60333 
60404 
60465 
60528 
60615 
60691 
60751 
60806 
60874 
60978 
61050 
61145 
61227 
61226 
61220 
61293 
61372 
61413 
61483 
61510 
61558 
61639 
61646 
61600 
61598 
61594 
61550 
61539 
61603 
61609 
61588 
61577 
61635 
61658 
61674 
61637 
61640 
61655 
61634 
61655 
61691 
61699 
61753 
61793 
61801 
61819 
61862 
61818 
61847 
61941 
61987 
61986 
61985 
62002 
62041 
62076 
62099 
62109 
62150 
62209 
62257 
62273 
62276 
62281 
62300 
62331 
62383 
62441 
62450 
62455 
62508 
62558 
62555 
62558 
62579 
62594 
62607 
62605 
62629 
62654 
62643 
62631 
62685 
62758 
62790 
62821 
62788 
62744 
62681 
62603 
62574 
62593 
62623 
62621 
62627 
62611 
62616 
62611 
62612 
62621 
62608 
62613 
62684 
62758 
62726 
62680 
62645 
62598 
62525 
62475 
62443 
62425 
62363 
62303 
62240 
62161 
62023 
61870 
61695 
61517 
61382 
61240 
61018 
60867 
60760 
60586 
60432 
60344 
60248 
60163 
60064 
59952 
59794 
59664 
59591 
59529 
59462 
59395 
59387 
59391 
59395 
59353 
59317 
59313 
59362 
59434 
59538 
59659 
59736 
59789 
59843 
59911 
60003 
60107 
60212 
60328 
60423 
60483 
60602 
60737 
60873 
61024 
61184 
61339 
61486 
61614 
61717 
61839 
61913 
61994 
62062 
62206 
62309 
62383 
62465 
62570 
62648 
62724 
62769 
62847 
62925 
62952 
62956 
62992 
63061 
63131 
63176 
63232 
63244 
63211 
63221 
63216 
63253 
63257 
63250 
63270 
63247 
63199 
63216 
63266 
63268 
63224 
63203 
63215 
63245 
63277 
63276 
63257 
63232 
63286 
63334 
63376 
63360 
63364 
63409 
63433 
63396 
63413 
63448 
63502 
63577 
63620 
63681 
63708 
63740 
63795 
63831 
63901 
63965 
63991 
63988 
63975 
63970 
63936 
63894 
63954 
64011 
64044 
64068 
64041 
64059 
64104 
64123 
64143 
64153 
64131 
64179 
64187 
64183 
64210 
64194 
64137 
64067 
64081 
64110 
64103 
64116 
64113 
64083 
64076 
64071 
64028 
64006 
64033 
64062 
64008 
63949 
63945 
63945 
63981 
63981 
63958 
63960 
63943 
63909 
63963 
63996 
63934 
63872 
63798 
63655 
63563 
63466 
63314 
63129 
62898 
62675 
62476 
62259 
62059 
61845 
61574 
61333 
61049 
60772 
60514 
60268 
60032 
59842 
59617 
59448 
59330 
59174 
59050 
58953 
58803 
58655 
58530 
58470 
58417 
58410 
58382 
58312 
58276 
58262 
58237 
58214 
58233 
58231 
58274 
58338 
58377 
58441 
58533 
58641 
58735 
58781 
58876 
58963 
59030 
59131 
59291 
59492 
59625 
59751 
59861 
59967 
60110 
60253 
60385 
60522 
60615 
60652 
60741 
60852 
60991 
61124 
61210 
61265 
61297 
61346 
61359 
61319 
61259 
61205 
61188 
61181 
61176 
61168 
61106 
61097 
61101 
61071 
61025 
60994 
60987 
60961 
60917 
60865 
60870 
60829 
60815 
60816 
60792 
60774 
60758 
60752 
60754 
60768 
60735 
60696 
60679 
60697 
60739 
60777 
60810 
60827 
60850 
60890 
60904 
60889 
60834 
60800 
60867 
60896 
60912 
60927 
60943 
60921 
60904 
60903 
60945 
61044 
61080 
61078 
61117 
61107 
61093 
61051 
61081 
61134 
61205 
61202 
61177 
61219 
61287 
61327 
61313 
61322 
61394 
61432 
61470 
61479 
61451 
61474 
61501 
61499 
61552 
61553 
61519 
61462 
61421 
61398 
61379 
61403 
61435 
61427 
61455 
61502 
61494 
61464 
61444 
61467 
61490 
61502 
61464 
61437 
61437 
61353 
61325 
61226 
61076 
60962 
60839 
60648 
60436 
60237 
60015 
59755 
59552 
59374 
59192 
58968 
58729 
58497 
58270 
58063 
57865 
57681 
57476 
57302 
57206 
57095 
56957 
56832 
56731 
56638 
56499 
56372 
56326 
56252 
56187 
56165 
56152 
56088 
56025 
55985 
55978 
55973 
56025 
56117 
56211 
56247 
56277 
56330 
56382 
56401 
56460 
56589 
56724 
56741 
56834 
56987 
57130 
57189 
57265 
57333 
57422 
57567 
57737 
57836 
57869 
57887 
57960 
58039 
58121 
58243 
58379 
58441 
58477 
58483 
58470 
58510 
58595 
58687 
58717 
58738 
58742 
58728 
58716 
58742 
58750 
58761 
58743 
58759 
58747 
58688 
58684 
58670 
58646 
58618 
58621 
58611 
58625 
58629 
58626 
58608 
58618 
58647 
58638 
58657 
58665 
58690 
58696 
58746 
58803 
58865 
58903 
58918 
58967 
59020 
59090 
59145 
59133 
59168 
59171 
59180 
59186 
59201 
59257 
59299 
59378 
59430 
59454 
59467 
59498 
59491 
59483 
59479 
59530 
59611 
59641 
59657 
59682 
59697 
59719 
59744 
59815 
59848 
59848 
59897 
59932 
59964 
59962 
59993 
59998 
60022 
60065 
60080 
60090 
60096 
60077 
60025 
59979 
59979 
60013 
60074 
60113 
60100 
60125 
60187 
60211 
60227 
60198 
60156 
60149 
60095 
60030 
59880 
59756 
59637 
59438 
59216 
59031 
58869 
58716 
58477 
58228 
58006 
57781 
57633 
57489 
57344 
57187 
57052 
56910 
56745 
56655 
56523 
56402 
56278 
56147 
56057 
55958 
55904 
55854 
55754 
55711 
55688 
55662 
55657 
55652 
55656 
55625 
55622 
55686 
55772 
55858 
55908 
55933 
55995 
56081 
56167 
56303 
56436 
56536 
56656 
56782 
56898 
57051 
57162 
57231 
57331 
57472 
57592 
57688 
57734 
57824 
57856 
57899 
57943 
58005 
58083 
58167 
58232 
58277 
58263 
58281 
58320 
58361 
58386 
58439 
58442 
58411 
58419 
58398 
58385 
58395 
58363 
58349 
58397 
58484 
58484 
58500 
58527 
58532 
58524 
58509 
58522 
58559 
58563 
58578 
58677 
58720 
58694 
58677 
58676 
58691 
58689 
58672 
58641 
58640 
58747 
58792 
58793 
58804 
58863 
58894 
58906 
58914 
58928 
58970 
58998 
59016 
59013 
59006 
59055 
59093 
59105 
59088 
59110 
59152 
59233 
59282 
59321 
59329 
59356 
59379 
59408 
59462 
59453 
59444 
59495 
59573 
59636 
59677 
59690 
59729 
59759 
59781 
59758 
59775 
59835 
59875 
59886 
59869 
59800 
59778 
59765 
59699 
59639 
59568 
59469 
59358 
59207 
59034 
58930 
58758 
58550 
58364 
58161 
57942 
57740 
57535 
57344 
57225 
57086 
56885 
56787 
56666 
56587 
56529 
56462 
56368 
56300 
56163 
56012 
55920 
55865 
55833 
55835 
55812 
55789 
55783 
55727 
55697 
55675 
55650 
55681 
55774 
55870 
55962 
56061 
56154 
56262 
56351 
56434 
56508 
56613 
56737 
56872 
56941 
57018 
57126 
57200 
57312 
57420 
57540 
57649 
57662 
57708 
57753 
57825 
57901 
57974 
58076 
58105 
58132 
58190 
58222 
58245 
58306 
58343 
58341 
58335 
58364 
58363 
58380 
58416 
58405 
58404 
58399 
58342 
58344 
58345 
58352 
58340 
58363 
58405 
58408 
58390 
58399 
58379 
58417 
58400 
58409 
58498 
58535 
58530 
58543 
58583 
58632 
58700 
58790 
58832 
58860 
58913 
58937 
58925 
58990 
59035 
59042 
59082 
59149 
59150 
59104 
59091 
59148 
59190 
59171 
59186 
59232 
59301 
59315 
59330 
59413 
59491 
59474 
59441 
59455 
59491 
59516 
59487 
59467 
59446 
59491 
59544 
59571 
59577 
59584 
59572 
59536 
59492 
59469 
59445 
59487 
59535 
59502 
59407 
59268 
59115 
59031 
58932 
58786 
58605 
58407 
58213 
58025 
57800 
57568 
57369 
57141 
56919 
56701 
56467 
56241 
56020 
55763 
55497 
55261 
55081 
54932 
54762 
54614 
54457 
54325 
54232 
54096 
53975 
53904 
53856 
53821 
53804 
53810 
53812 
53832 
53795 
53768 
53763 
53761 
53793 
53860 
53970 
54094 
54234 
54346 
54487 
54595 
54676 
54748 
54927 
55089 
55171 
55296 
55490 
55666 
55775 
55903 
56034 
56126 
56188 
56298 
56415 
56490 
56530 
56626 
56707 
56778 
56823 
56850 
56897 
56944 
56975 
56979 
57000 
57007 
57018 
57014 
57004 
57054 
57128 
57151 
57130 
57110 
57118 
57142 
57189 
57212 
57233 
57244 
57218 
57193 
57227 
57279 
57369 
57419 
57464 
57452 
57423 
57437 
57480 
57513 
57564 
57603 
57625 
57659 
57680 
57705 
57786 
57857 
57941 
58003 
58018 
58096 
58182 
58208 
58200 
58199 
58283 
58401 
58497 
58553 
58586 
58652 
58699 
58704 
58740 
58852 
58878 
58929 
59016 
59072 
59093 
59169 
59241 
59266 
59280 
59317 
59345 
59383 
59450 
59554 
59606 
59649 
59650 
59645 
59644 
59636 
59642 
59589 
59554 
59538 
59505 
59420 
59301 
59172 
59001 
58803 
58529 
58268 
58074 
57873 
57644 
57438 
57192 
56945 
56694 
56425 
56240 
56083 
55876 
55642 
55473 
55328 
55191 
55050 
54916 
54773 
54658 
54626 
54578 
54489 
54421 
54346 
54281 
54224 
54191 
54175 
54160 
54157 
54166 
54202 
54247 
54303 
54336 
54375 
54445 
54555 
54651 
54783 
54890 
55036 
55158 
55197 
55289 
55408 
55579 
55761 
55947 
56080 
56263 
56473 
56583 
56670 
56767 
56842 
56921 
56992 
57107 
57176 
57237 
57330 
57422 
57516 
57578 
57584 
57652 
57722 
57719 
57764 
57838 
57895 
57932 
57962 
58016 
58092 
58154 
58213 
58293 
58374 
58466 
58493 
58506 
58536 
58599 
58663 
58680 
58729 
58800 
58873 
58934 
59038 
59117 
59166 
59272 
59349 
59410 
59475 
59547 
59620 
59673 
59714 
59765 
59794 
59805 
59825 
59884 
59943 
60033 
60099 
60138 
60206 
60292 
60336 
60348 
60395 
60480 
60554 
60605 
60627 
60631 
60619 
60617 
60651 
60695 
60716 
60748 
60821 
60901 
60957 
60962 
60947 
60945 
61008 
61085 
61148 
61159 
61179 
61235 
61281 
61370 
61400 
61400 
61375 
61352 
61299 
61225 
61121 
60982 
60877 
60756 
60632 
60425 
60189 
59951 
59618 
59334 
59113 
58878 
58640 
58357 
58039 
57759 
57527 
57249 
56920 
56627 
56343 
56070 
55851 
55638 
55397 
55211 
55018 
54802 
54618 
54452 
54291 
54198 
54054 
53914 
53790 
53742 
53703 
53667 
53683 
53687 
53671 
53681 
53752 
53763 
53793 
53902 
53964 
54010 
54132 
54234 
54319 
54416 
54493 
54578 
54644 
54762 
54913 
55029 
55138 
55237 
55406 
55550 
55655 
55787 
55950 
56045 
56144 
56253 
56317 
56379 
56484 
56610 
56665 
56767 
56794 
56844 
56906 
56942 
57020 
57095 
57156 
57219 
57225 
57221 
57250 
57284 
57281 
57299 
57366 
57403 
57415 
57453 
57506 
57541 
57566 
57573 
57605 
57637 
57703 
57788 
57851 
57868 
57907 
57979 
58027 
58113 
58216 
58276 
58323 
58338 
58333 
58362 
58396 
58399 
58439 
58505 
58554 
58535 
58578 
58625 
58677 
58746 
58853 
58916 
58989 
59030 
59075 
59160 
59208 
59266 
59348 
59370 
59424 
59480 
59561 
59607 
59677 
59727 
59786 
59853 
59898 
59884 
59878 
59930 
59990 
60008 
60022 
60003 
60025 
60051 
60040 
60064 
60106 
60109 
60075 
60103 
60169 
60252 
60321 
60267 
60169 
60112 
60055 
59921 
59755 
59680 
59568 
59358 
59117 
58868 
58648 
58421 
58189 
57945 
57693 
57423 
57198 
56963 
56725 
56525 
56332 
56135 
55902 
55664 
55507 
55405 
55283 
55124 
55026 
54935 
54841 
54785 
54733 
54703 
54703 
54723 
54688 
54630 
54593 
54600 
54599 
54668 
54723 
54742 
54808 
54879 
54939 
55006 
55044 
55142 
55218 
55307 
55350 
55408 
55516 
55640 
55724 
55808 
55984 
56167 
56249 
56384 
56588 
56734 
56828 
56958 
57115 
57222 
57337 
57405 
57493 
57594 
57689 
57803 
57885 
57976 
58037 
58080 
58144 
58214 
58343 
58428 
58473 
58484 
58560 
58685 
58776 
58834 
58880 
58937 
59021 
59114 
59159 
59148 
59135 
59167 
59194 
59200 
59211 
59223 
59237 
59261 
59314 
59360 
59356 
59346 
59409 
59532 
59608 
59618 
59638 
59705 
59728 
59774 
59805 
59820 
59830 
59864 
59898 
59959 
60006 
60050 
60072 
60086 
60103 
60098 
60113 
60200 
60236 
60260 
60344 
60405 
60418 
60413 
60466 
60575 
60622 
60638 
60636 
60662 
60698 
60755 
60821 
60867 
60889 
60892 
60905 
60917 
60975 
61054 
61045 
61067 
61138 
61124 
61101 
61106 
61118 
61136 
61132 
61099 
61112 
61027 
60995 
61010 
60934 
60803 
60637 
60461 
60228 
60009 
59809 
59597 
59355 
59077 
58890 
58654 
58386 
58166 
58001 
57821 
57619 
57447 
57285 
57105 
56914 
56756 
56647 
56486 
56358 
56241 
56179 
56095 
55990 
55913 
55865 
55771 
55667 
55582 
55567 
55556 
55561 
55538 
55493 
55483 
55472 
55463 
55460 
55465 
55479 
55457 
55453 
55447 
55436 
55468 
55505 
55577 
55610 
55619 
55645 
55694 
55745 
55832 
55929 
56053 
56189 
56269 
56385 
56514 
56648 
56764 
56943 
57110 
57216 
57326 
57488 
57624 
57770 
57894 
57987 
58046 
58150 
58276 
58358 
58503 
58584 
58676 
58748 
58828 
58923 
59065 
59222 
59330 
59365 
59423 
59513 
59631 
59750 
59822 
59963 
60121 
60230 
60305 
60390 
60465 
60553 
60645 
60728 
60835 
60903 
60947 
60992 
61024 
61095 
61138 
61119 
61142 
61241 
61306 
61329 
61360 
61383 
61437 
61490 
61555 
61629 
61683 
61717 
61791 
61823 
61861 
61895 
61942 
62022 
62068 
62115 
62134 
62123 
62115 
62114 
62076 
62085 
62101 
62135 
62191 
62164 
62148 
62127 
62128 
62114 
62122 
62115 
62126 
62151 
62160 
62238 
62307 
62314 
62342 
62321 
62305 
62295 
62313 
62305 
62312 
62299 
62294 
62306 
62308 
62274 
62194 
62101 
61970 
61758 
61533 
61352 
61156 
60970 
60805 
60625 
60437 
60299 
60148 
59977 
59863 
59756 
59583 
59455 
59341 
59229 
59133 
59014 
58866 
58710 
58603 
58487 
58382 
58285 
58260 
58179 
58051 
57953 
57862 
57799 
57733 
57664 
57548 
57457 
57379 
57318 
57253 
57231 
57275 
57314 
57315 
57341 
57350 
57353 
57385 
57390 
57366 
57413 
57474 
57460 
57498 
57510 
57571 
57654 
57701 
57764 
57867 
57947 
58025 
58114 
58176 
58249 
58315 
58435 
58581 
58722 
58809 
58846 
58941 
59048 
59169 
59277 
59367 
59447 
59487 
59597 
59704 
59793 
59882 
59940 
60017 
60101 
60225 
60319 
60398 
60453 
60546 
60634 
60687 
60698 
60756 
60802 
60876 
60909 
60959 
61013 
61077 
61123 
61229 
61307 
61313 
61342 
61418 
61520 
61595 
61653 
61662 
61654 
61690 
61771 
61844 
61910 
61938 
61970 
61989 
62012 
62079 
62144 
62211 
62239 
62234 
62287 
62342 
62354 
62388 
62411 
62479 
62518 
62599 
62677 
62733 
62771 
62822 
62850 
62867 
62912 
62938 
62928 
62873 
62800 
62764 
62735 
62728 
62696 
62659 
62588 
62543 
62491 
62475 
62498 
62518 
62496 
62455 
62482 
62507 
62458 
62432 
62416 
62420 
62374 
62361 
62344 
62322 
62257 
62197 
62170 
62104 
62043 
61995 
61909 
61795 
61711 
61668 
61616 
61516 
61440 
61392 
61328 
61310 
61281 
61238 
61184 
61152 
61160 
61205 
61193 
61127 
61055 
61067 
61065 
61042 
61013 
60974 
60922 
60873 
60829 
60835 
60849 
60852 
60857 
60788 
60760 
60770 
60757 
60709 
60639 
60600 
60593 
60590 
60573 
60585 
60560 
60469 
60429 
60399 
60332 
60313 
60270 
60225 
60186 
60121 
60048 
60064 
59996 
59965 
59930 
59856 
59816 
59769 
59701 
59662 
59623 
59570 
59541 
59500 
59476 
59507 
59527 
59509 
59506 
59491 
59485 
59497 
59452 
59400 
59404 
59385 
59406 
59431 
59439 
59414 
59394 
59380 
59408 
59401 
59357 
59316 
59274 
59238 
59211 
59225 
59249 
59208 
59173 
59161 
59171 
59141 
59136 
59146 
59147 
59110 
59080 
59032 
59010 
59041 
59031 
58985 
58900 
58812 
58771 
58804 
58792 
58755 
58723 
58720 
58694 
58658 
58608 
58550 
58522 
58509 
58498 
58491 
58462 
58428 
58430 
58378 
58341 
58322 
58303 
58316 
58331 
58362 
58347 
58328 
58317 
58293 
58243 
58206 
58223 
58226 
58195 
58198 
58208 
58232 
58221 
58241 
58292 
58306 
58289 
58282 
58218 
58204 
58204 
58221 
58200 
58208 
58193 
58143 
58133 
58158 
58174 
58144 
58145 
58180 
58195 
58192 
58192 
58206 
58233 
58246 
58188 
58105 
58102 
58127 
58131 
58162 
58178 
58211 
58197 
58225 
58262 
58289 
58270 
58281 
58308 
58297 
58306 
58285 
58276 
58305 
58276 
58233 
58204 
58225 
58246 
58276 
58285 
58299 
58292 
58255 
58278 
58235 
58270 
58316 
58260 
58258 
58259 
58241 
58288 
58326 
58329 
58361 
58379 
58383 
58394 
58413 
58424 
58485 
58500 
58452 
58433 
58483 
58534 
58588 
58599 
58555 
58513 
58504 
58503 
58426 
58408 
58424 
58463 
58462 
58446 
58457 
58510 
58524 
58511 
58541 
58552 
58565 
58584 
58572 
58613 
58654 
58642 
58646 
58630 
58598 
58588 
58594 
58643 
58641 
58638 
58637 
58605 
58591 
58601 
58608 
58588 
58581 
58554 
58542 
58543 
58557 
58565 
58543 
58511 
58483 
58475 
58491 
58507 
58488 
58488 
58531 
58569 
58568 
58571 
58561 
58485 
58479 
58488 
58466 
58485 
58477 
58508 
58534 
58461 
58387 
58394 
58364 
58332 
58303 
58333 
58420 
58427 
58406 
58410 
58382 
58355 
58384 
58420 
58396 
58356 
58354 
58362 
58395 
58381 
58363 
58345 
58377 
58385 
58399 
58373 
58316 
58282 
58249 
58295 
58318 
58280 
58272 
58270 
58260 
58253 
58322 
58362 
58376 
58361 
58334 
58313 
58313 
58281 
58291 
58299 
58313 
58326 
58291 
58274 
58278 
58247 
58248 
58187 
58158 
58184 
58185 
58100 
58083 
58153 
58180 
58177 
58190 
58226 
58220 
58194 
58183 
58219 
58198 
58181 
58203 
58158 
58120 
58172 
58126 
58061 
58075 
58088 
58115 
58102 
58072 
58100 
58099 
58075 
58078 
58070 
58057 
58041 
58062 
58076 
58128 
58150 
58170 
58189 
58174 
58203 
58204 
58149 
58137 
58150 
58211 
58266 
58210 
58184 
58218 
58196 
58187 
58196 
58169 
58138 
58154 
58159 
58154 
58134 
58126 
58101 
58089 
58105 
58110 
58117 
58163 
58220 
58254 
58261 
58287 
58286 
58273 
58303 
58307 
58303 
58342 
58339 
58326 
58305 
58285 
58288 
58252 
58240 
58290 
58341 
58407 
58400 
58379 
58397 
58417 
58394 
58358 
58376 
58381 
58377 
58389 
58398 
58415 
58412 
58401 
58407 
58429 
58487 
58573 
58605 
58578 
58539 
58516 
58541 
58611 
58596 
58561 
58551 
58524 
58535 
58561 
58516 
58482 
58455 
58434 
58459 
58481 
58507 
58505 
58518 
58554 
58574 
58588 
58602 
58555 
58557 
58599 
58613 
58645 
58664 
58634 
58576 
58534 
58551 
58519 
58515 
58525 
58575 
58589 
58599 
58556 
58523 
58507 
58509 
58533 
58568 
58592 
58555 
58482 
58446 
58437 
58436 
58470 
58511 
58522 
58531 
58486 
58430 
58440 
58454 
58470 
58501 
58504 
58511 
58493 
58513 
58519 
58426 
58424 
58441 
58424 
58413 
58445 
58433 
58425 
58435 
58419 
58379 
58412 
58484 
58537 
58521 
58493 
58462 
58485 
58474 
58471 
58473 
58496 
58475 
58467 
58490 
58489 
58461 
58445 
58425 
58414 
58431 
58420 
58442 
58499 
58567 
58565 
58470 
58458 
58451 
58423 
58412 
58447 
58495 
58495 
58494 
58506 
58555 
58614 
58615 
58619 
58587 
58540 
58495 
58480 
58464 
58483 
58550 
58605 
58635 
58671 
58630 
58611 
58636 
58622 
58607 
58592 
58597 
58586 
58623 
58626 
58651 
58724 
58743 
58693 
58681 
58732 
58756 
58753 
58731 
58720 
58737 
58760 
58768 
58759 
58731 
58727 
58770 
58771 
58776 
58817 
58872 
58919 
58949 
58952 
58916 
58859 
58841 
58883 
58921 
58948 
58989 
59049 
59053 
59057 
59083 
59093 
59086 
59132 
59146 
59115 
59092 
59040 
59068 
59100 
59105 
59094 
59092 
59117 
59163 
59156 
59141 
59116 
59106 
59103 
59124 
59129 
59118 
59121 
59112 
59129 
59198 
59217 
59201 
59198 
59161 
59128 
59089 
59076 
59052 
59026 
59001 
59006 
59012 
59046 
59004 
58956 
58895 
58853 
58899 
58964 
58980 
58986 
58982 
58988 
59033 
59038 
58996 
58937 
58910 
58904 
58869 
58839 
58823 
58765 
58753 
58719 
58655 
58670 
58721 
58732 
58680 
58679 
58720 
58692 
58665 
58651 
58612 
58612 
58669 
58685 
58675 
58656 
58651 
58600 
58564 
58574 
58576 
58562 
58542 
58532 
58503 
58494 
58469 
58437 
58416 
58408 
58429 
58442 
58455 
58422 
58448 
58459 
58436 
58381 
58323 
58280 
58248 
58276 
58290 
58302 
58331 
58383 
58366 
58322 
58291 
58277 
58265 
58246 
58194 
58206 
58242 
58249 
58261 
58255 
58269 
58254 
58203 
58129 
58093 
58092 
58063 
58032 
58016 
58023 
58048 
58068 
58099 
58146 
58153 
58152 
58198 
58224 
58204 
58207 
58190 
58144 
58120 
58152 
58177 
58140 
58094 
58108 
58118 
58112 
58055 
58027 
58028 
58018 
57967 
57950 
57961 
57989 
57989 
57991 
58051 
58030 
57991 
57994 
57981 
57935 
57942 
58008 
58029 
58012 
57995 
58003 
58015 
57958 
57903 
57832 
57755 
57729 
57761 
57779 
57756 
57779 
57805 
57793 
57810 
57854 
57807 
57752 
57741 
57790 
57781 
57756 
57810 
57853 
57869 
57854 
57787 
57749 
57709 
57700 
57725 
57716 
57707 
57673 
57698 
57770 
57773 
57741 
57712 
57711 
57742 
57717 
57708 
57742 
57819 
57813 
57778 
57796 
57832 
57874 
57869 
57842 
57862 
57877 
57886 
57910 
57903 
57856 
57849 
57867 
57900 
57935 
57936 
57924 
57903 
57887 
57845 
57756 
57760 
57778 
57805 
57817 
57856 
57843 
57780 
57780 
57828 
57894 
57895 
57862 
57921 
57962 
57914 
57872 
57866 
57855 
57878 
57910 
57886 
57866 
57895 
57932 
57932 
57891 
57842 
57799 
57825 
57792 
57796 
57797 
57781 
57764 
57770 
57763 
57751 
57761 
57787 
57838 
57862 
57867 
57842 
57805 
57846 
57846 
57876 
57879 
57883 
57918 
57914 
57913 
57865 
57873 
57872 
57843 
57782 
57772 
57756 
57801 
57870 
57836 
57883 
57930 
57986 
58000 
57980 
57992 
58006 
58019 
58013 
57995 
57982 
57965 
57951 
57900 
57908 
57935 
57914 
57918 
57951 
57998 
58043 
58059 
58049 
58029 
58005 
58048 
58096 
58111 
58102 
58071 
58034 
58017 
58035 
58031 
58030 
58011 
58013 
58017 
58072 
58103 
58064 
58016 
58032 
58044 
58056 
58043 
58042 
58067 
58108 
58102 
58128 
58142 
58160 
58142 
58101 
58083 
58071 
58057 
58056 
58128 
58155 
58137 
58066 
57996 
57991 
57985 
57982 
57971 
57944 
57902 
57896 
57925 
57957 
57928 
57930 
57910 
57925 
57920 
57893 
57868 
57839 
57845 
57887 
57923 
57946 
57929 
57915 
57894 
57905 
57955 
57996 
58034 
58053 
58082 
58031 
57984 
57999 
58080 
58156 
58171 
58105 
58088 
58101 
58095 
58095 
58113 
58086 
58047 
58065 
58031 
58044 
58101 
58127 
58068 
58019 
58008 
58001 
58027 
58059 
58054 
58073 
58045 
58026 
58065 
58089 
58100 
58100 
58090 
58099 
58114 
58090 
58087 
58078 
58065 
58026 
57995 
57954 
57982 
57991 
57947 
57935 
57963 
57983 
58055 
58077 
58061 
58032 
58025 
58069 
58061 
57997 
57943 
57925 
57976 
57992 
57970 
57921 
57892 
57883 
57915 
57983 
58061 
58044 
58005 
57990 
57983 
57945 
57895 
57869 
57881 
57882 
57934 
57998 
58015 
57987 
57996 
57994 
57991 
57995 
58017 
58044 
58053 
58053 
58076 
58106 
58124 
58107 
58074 
58140 
58171 
58165 
58148 
58119 
58103 
58110 
58171 
58234 
58254 
58242 
58206 
58213 
58224 
58237 
58233 
58225 
58223 
58220 
58203 
58174 
58132 
58112 
58129 
58150 
58161 
58152 
58159 
58113 
58097 
58111 
58082 
58086 
58113 
58146 
58136 
58151 
58190 
58229 
58243 
58233 
58180 
58114 
58088 
58099 
58153 
58153 
58121 
58091 
58099 
58129 
58126 
58119 
58114 
58091 
58065 
58052 
58054 
58100 
58112 
58170 
58160 
58146 
58159 
58153 
58171 
58156 
58125 
58127 
58162 
58119 
58120 
58177 
58196 
58187 
58181 
58162 
58160 
58145 
58147 
58172 
58115 
58108 
58124 
58129 
58126 
58155 
58203 
58209 
58171 
58148 
58140 
58109 
58061 
58041 
58089 
58097 
58095 
58165 
58165 
58182 
58207 
58173 
58170 
58154 
58152 
58181 
58166 
58219 
58264 
58237 
58208 
58222 
58203 
58197 
58174 
58172 
58221 
58269 
58273 
58278 
58259 
58253 
58255 
58252 
58259 
58321 
58349 
58345 
58294 
58284 
58310 
58314 
58290 
58270 
58268 
58300 
58336 
58305 
58275 
58222 
58220 
58243 
58205 
58173 
58149 
58150 
58148 
58161 
58187 
58211 
58247 
58262 
58257 
58228 
58206 
58187 
58168 
58172 
58188 
58194 
58141 
58095 
58088 
58116 
58145 
58148 
58197 
58227 
58259 
58259 
58230 
58218 
58261 
58224 
58162 
58159 
58165 
58157 
58118 
58083 
58086 
58134 
58208 
58163 
58102 
58094 
58061 
58064 
58071 
58030 
58035 
58055 
58066 
58065 
58048 
58033 
58006 
57977 
57990 
57996 
57979 
57964 
57933 
57897 
57908 
57953 
57960 
57933 
57905 
57892 
57920 
57941 
57950 
57903 
57896 
57908 
57912 
57903 
57937 
57963 
57983 
58000 
57949 
57934 
57961 
57990 
58019 
57984 
57982 
57994 
58044 
58064 
58076 
58067 
58054 
58019 
58012 
58029 
58042 
58021 
57993 
58015 
58017 
58048 
58061 
58083 
58058 
58038 
58051 
58083 
58073 
58085 
58092 
58109 
58074 
58062 
58101 
58076 
58038 
58068 
58070 
58102 
58091 
58098 
58140 
58153 
58089 
58058 
58101 
58164 
58140 
58156 
58172 
58152 
58086 
58055 
58074 
58066 
58062 
58074 
58062 
58093 
58072 
58016 
57999 
57988 
57998 
58017 
58019 
58040 
57984 
57972 
57971 
57975 
57972 
58008 
58069 
58083 
58033 
57997 
57964 
57971 
57993 
58070 
58109 
58113 
58121 
58118 
58114 
58109 
58127 
58138 
58140 
58150 
58148 
58090 
58059 
58085 
58106 
58086 
58044 
58049 
58090 
58148 
58174 
58175 
58176 
58165 
58121 
58106 
58087 
58127 
58194 
58223 
58213 
58203 
58179 
58177 
58217 
58224 
58188 
58178 
58204 
58246 
58261 
58211 
58173 
58166 
58192 
58205 
58169 
58166 
58196 
58229 
58236 
58229 
58205 
58175 
58137 
58149 
58203 
58210 
58163 
58172 
58180 
58194 
58193 
58153 
58122 
58141 
58161 
58159 
58217 
58271 
58234 
58155 
58114 
58103 
58087 
58109 
58148 
58179 
58169 
58159 
58200 
58262 
58307 
58315 
58312 
58300 
58285 
58276 
58223 
58157 
58233 
58243 
58182 
58159 
58105 
58044 
58000 
57959 
57997 
58034 
58034 
58060 
58083 
58099 
58019 
57906 
57896 
57874 
57816 
57755 
57706 
57714 
57785 
57787 
57767 
57757 
57782 
57786 
57744 
57731 
57730 
57684 
57672 
57701 
57675 
57629 
57635 
57607 
57604 
57637 
57617 
57598 
57628 
57686 
57734 
57771 
57771 
57768 
57743 
57776 
57792 
57858 
57840 
57767 
57687 
57639 
57600 
57595 
57598 
57639 
57646 
57670 
57662 
57681 
57730 
57740 
57731 
57703 
57726 
57757 
57740 
57754 
57766 
57785 
57797 
57831 
57831 
57796 
57843 
57905 
57936 
57947 
57907 
57903 
57923 
57994 
58018 
58009 
58021 
58008 
58001 
58071 
58100 
58071 
58059 
58059 
58044 
57986 
58008 
58045 
58074 
58163 
58149 
58106 
58113 
58149 
58171 
58176 
58167 
58182 
58170 
58160 
58205 
58246 
58263 
58242 
58184 
58185 
58220 
58205 
58186 
58209 
58250 
58313 
58358 
58378 
58407 
58390 
58356 
58326 
58298 
58278 
58278 
58314 
58331 
58333 
58371 
58363 
58341 
58328 
58321 
58351 
58374 
58400 
58381 
58385 
58368 
58339 
58322 
58295 
58271 
58262 
58258 
58257 
58253 
58244 
58239 
58199 
58183 
58157 
58083 
57981 
57901 
57813 
57708 
57774 
57820 
57805 
57770 
57703 
57722 
57727 
57693 
57638 
57597 
57570 
57539 
57505 
57503 
57510 
57500 
57452 
57377 
57302 
57322 
57331 
57326 
57351 
57363 
57325 
57302 
57303 
57316 
57321 
57322 
57314 
57331 
57394 
57362 
57330 
57358 
57353 
57343 
57312 
57325 
57321 
57353 
57310 
57348 
57419 
57434 
57421 
57406 
57391 
57384 
57392 
57385 
57417 
57533 
57558 
57551 
57561 
57562 
57561 
57597 
57607 
57633 
57704 
57765 
57736 
57735 
57766 
57816 
57813 
57809 
57829 
57891 
57917 
57945 
57948 
57975 
58006 
58040 
58085 
58110 
58105 
58148 
58183 
58154 
58136 
58152 
58179 
58167 
58157 
58183 
58240 
58268 
58291 
58313 
58319 
58330 
58356 
58370 
58374 
58410 
58420 
58429 
58432 
58448 
58473 
58488 
58526 
58504 
58519 
58543 
58509 
58552 
58577 
58562 
58522 
58515 
58530 
58561 
58586 
58558 
58542 
58603 
58617 
58598 
58557 
58617 
58694 
58771 
58811 
58821 
58834 
58820 
58756 
58749 
58763 
58741 
58715 
58660 
58613 
58549 
58470 
58414 
58345 
58244 
58098 
58037 
57992 
57914 
57812 
57695 
57617 
57515 
57399 
57363 
57327 
57270 
57192 
57132 
57070 
57015 
56978 
56932 
56868 
56830 
56757 
56669 
56628 
56553 
56518 
56473 
56385 
56298 
56259 
56274 
56267 
56269 
56260 
56305 
56324 
56317 
56274 
56262 
56193 
56194 
56152 
56156 
56164 
56165 
56169 
56125 
56069 
56018 
56006 
56023 
56045 
56033 
55993 
55969 
55944 
55948 
55997 
56020 
56036 
56046 
56066 
56069 
56069 
56067 
56039 
56033 
56036 
56016 
55985 
56005 
55994 
56013 
56044 
56025 
56051 
56115 
56153 
56170 
56199 
56225 
56228 
56234 
56247 
56273 
56318 
56360 
56366 
56404 
56441 
56483 
56544 
56596 
56655 
56681 
56694 
56737 
56804 
56856 
56924 
56921 
56976 
57041 
57095 
57121 
57137 
57198 
57287 
57318 
57337 
57393 
57403 
57390 
57472 
57570 
57637 
57709 
57777 
57809 
57881 
57881 
57898 
57897 
57935 
57961 
58061 
58112 
58129 
58146 
58132 
58084 
58048 
58054 
57999 
57880 
57767 
57649 
57487 
57350 
57270 
57177 
57165 
57167 
57089 
57027 
57000 
56938 
56866 
56799 
56766 
56705 
56652 
56632 
56590 
56588 
56563 
56542 
56521 
56440 
56404 
56378 
56361 
56348 
56328 
56289 
56293 
56314 
56363 
56337 
56365 
56403 
56430 
56513 
56580 
56652 
56765 
56801 
56793 
56809 
56820 
56831 
56853 
56879 
56911 
56933 
56929 
56949 
56955 
57008 
57037 
57065 
57125 
57165 
57214 
57283 
57294 
57321 
57350 
57379 
57429 
57481 
57541 
57613 
57683 
57726 
57805 
57902 
57993 
58035 
58068 
58133 
58237 
58341 
58405 
58434 
58492 
58536 
58607 
58648 
58731 
58810 
58878 
58928 
58989 
59070 
59176 
59245 
59312 
59371 
59454 
59559 
59668 
59754 
59789 
59852 
59964 
60085 
60164 
60238 
60338 
60424 
60472 
60505 
60525 
60585 
60682 
60718 
60757 
60836 
60901 
60944 
61022 
61102 
61169 
61238 
61295 
61362 
61440 
61489 
61488 
61571 
61669 
61773 
61867 
61964 
61984 
61998 
62059 
62148 
62182 
62209 
62232 
62295 
62274 
62249 
62199 
62095 
61993 
61875 
61758 
61629 
61460 
61316 
61227 
61082 
60958 
60821 
60644 
60504 
60375 
60240 
60122 
60006 
59890 
59801 
59699 
59599 
59496 
59419 
59315 
59234 
59098 
58994 
58982 
58976 
58863 
58829 
58815 
58797 
58738 
58700 
58691 
58687 
58695 
58714 
58758 
58822 
58871 
58932 
59014 
59101 
59158 
59235 
59323 
59371 
59461 
59531 
59593 
59633 
59714 
59806 
59867 
59992 
60107 
60244 
60304 
60387 
60477 
60554 
60629 
60715 
60701 
60692 
60778 
60899 
60958 
61005 
61073 
61118 
61188 
61273 
61378 
61394 
61408 
61434 
61473 
61533 
61574 
61622 
61662 
61691 
61747 
61829 
61941 
62004 
62004 
62077 
62151 
62202 
62207 
62231 
62275 
62289 
62294 
62371 
62446 
62493 
62525 
62545 
62532 
62531 
62575 
62641 
62675 
62705 
62719 
62749 
62777 
62808 
62890 
62988 
63028 
63031 
63062 
63093 
63114 
63156 
63167 
63184 
63257 
63327 
63392 
63444 
63448 
63493 
63533 
63653 
63710 
63728 
63744 
63770 
63812 
63807 
63794 
63860 
63908 
63962 
64009 
64010 
64004 
63990 
63989 
63924 
63786 
63673 
63561 
63436 
63290 
63079 
62857 
62594 
62380 
62158 
61910 
61670 
61384 
61131 
60914 
60703 
60447 
60232 
60060 
59854 
59687 
59588 
59464 
59359 
59261 
59110 
59001 
58917 
58851 
58772 
58670 
58566 
58477 
58453 
58447 
58390 
58330 
58328 
58308 
58312 
58287 
58340 
58447 
58499 
58541 
58577 
58694 
58780 
58798 
58861 
59008 
59137 
59242 
59361 
59483 
59559 
59669 
59876 
60013 
60058 
60153 
60265 
60302 
60356 
60475 
60591 
60658 
60697 
60763 
60822 
60901 
60961 
61016 
61081 
61135 
61179 
61248 
61321 
61378 
61406 
61471 
61536 
61569 
61653 
61733 
61778 
61848 
61902 
61937 
62010 
62052 
62097 
62165 
62181 
62199 
62182 
62166 
62210 
62254 
62306 
62371 
62486 
62559 
62591 
62659 
62705 
62713 
62704 
62704 
62789 
62868 
62876 
62895 
62869 
62947 
63047 
63086 
63186 
63238 
63234 
63226 
63261 
63317 
63341 
63329 
63320 
63362 
63396 
63409 
63426 
63455 
63455 
63422 
63449 
63505 
63513 
63518 
63553 
63592 
63635 
63657 
63656 
63720 
63799 
63815 
63792 
63798 
63756 
63615 
63518 
63430 
63329 
63196 
63099 
63027 
62841 
62606 
62398 
62227 
62010 
61767 
61554 
61368 
61219 
60989 
60763 
60583 
60380 
60168 
59972 
59756 
59536 
59368 
59198 
58997 
58836 
58692 
58529 
58387 
58260 
58166 
58072 
57984 
57893 
57806 
57776 
57750 
57712 
57657 
57597 
57545 
57581 
57600 
57672 
57724 
57752 
57822 
57931 
58046 
58176 
58281 
58362 
58468 
58540 
58638 
58725 
58796 
58897 
59016 
59120 
59227 
59394 
59539 
59668 
59746 
59836 
59947 
60098 
60185 
60224 
60296 
60383 
60492 
60602 
60697 
60800 
60888 
60926 
60953 
60988 
61018 
61056 
61086 
61186 
61223 
61253 
61302 
61356 
61396 
61472 
61594 
61658 
61718 
61751 
61812 
61919 
61972 
61999 
62073 
62192 
62307 
62407 
62479 
62588 
62639 
62656 
62750 
62836 
62884 
62958 
63027 
63105 
63158 
63208 
63229 
63241 
63305 
63354 
63404 
63481 
63592 
63632 
63625 
63683 
63742 
63822 
63939 
63994 
64064 
64137 
64187 
64247 
64314 
64378 
64502 
64609 
64649 
64682 
64738 
64737 
64724 
64752 
64792 
64816 
64828 
64815 
64811 
64810 
64828 
64837 
64845 
64872 
64914 
64955 
64970 
64945 
64902 
64836 
64749 
64723 
64710 
64603 
64469 
64317 
64167 
63964 
63734 
63499 
63249 
62990 
62743 
62514 
62261 
61998 
61728 
61469 
61216 
60930 
60659 
60406 
60151 
59924 
59715 
59515 
59348 
59206 
59092 
58959 
58825 
58693 
58563 
58480 
58419 
58386 
58390 
58366 
58331 
58315 
58294 
58347 
58404 
58457 
58575 
58673 
58767 
58872 
58958 
59075 
59211 
59317 
59424 
59589 
59700 
59784 
59912 
60052 
60188 
60344 
60435 
60507 
60592 
60701 
60873 
61002 
61106 
61146 
61188 
61259 
61334 
61442 
61496 
61537 
61600 
61654 
61712 
61784 
61927 
62013 
62075 
62105 
62072 
62035 
62045 
62042 
62117 
62230 
62252 
62242 
62247 
62273 
62280 
62304 
62280 
62239 
62276 
62360 
62394 
62436 
62479 
62475 
62460 
62478 
62468 
62480 
62545 
62626 
62671 
62751 
62780 
62774 
62779 
62860 
62952 
63013 
63066 
63078 
63116 
63190 
63284 
63320 
63337 
63363 
63355 
63388 
63398 
63412 
63452 
63510 
63567 
63647 
63711 
63775 
63775 
63808 
63864 
63943 
63946 
63916 
63910 
63937 
63996 
64043 
64065 
64073 
64123 
64122 
64102 
64090 
64080 
63993 
63906 
63807 
63715 
63580 
63426 
63226 
62975 
62723 
62528 
62291 
62082 
61938 
61766 
61565 
61365 
61163 
60914 
60661 
60466 
60298 
60095 
59873 
59679 
59504 
59331 
59163 
59030 
58935 
58878 
58774 
58688 
58610 
58577 
58607 
58601 
58601 
58614 
58604 
58621 
58678 
58772 
58849 
58859 
58962 
59123 
59252 
59346 
59433 
59541 
59704 
59814 
59896 
60013 
60190 
60415 
60519 
60590 
60707 
60795 
60874 
60939 
61032 
61113 
61221 
61318 
61369 
61490 
61589 
61599 
61628 
61628 
61676 
61678 
61674 
61712 
61777 
61775 
61818 
61849 
61824 
61801 
61781 
61736 
61713 
61702 
61665 
61638 
61618 
61576 
61574 
61547 
61484 
61445 
61399 
61349 
61372 
61417 
61397 
61454 
61481 
61497 
61536 
61576 
61634 
61711 
61745 
61731 
61779 
61848 
61886 
61914 
61967 
62047 
62113 
62108 
62075 
62101 
62126 
62177 
62228 
62265 
62325 
62299 
62246 
62263 
62313 
62370 
62395 
62409 
62438 
62462 
62468 
62427 
62406 
62473 
62506 
62552 
62607 
62632 
62631 
62670 
62671 
62746 
62779 
62730 
62689 
62669 
62648 
62627 
62610 
62559 
62488 
62389 
62186 
61955 
61729 
61513 
61307 
61071 
60887 
60673 
60383 
60108 
59841 
59597 
59326 
59095 
58850 
58576 
58312 
58046 
57810 
57534 
57326 
57168 
57030 
56901 
56742 
56609 
56547 
56498 
56414 
56321 
56265 
56238 
56211 
56180 
56166 
56178 
56214 
56257 
56369 
56434 
56483 
56596 
56723 
56842 
56972 
57094 
57272 
57423 
57546 
57739 
57917 
58079 
58234 
58373 
58524 
58670 
58834 
58971 
59121 
59292 
59436 
59571 
59673 
59730 
59764 
59835 
59935 
59979 
60103 
60238 
60337 
60352 
60395 
60407 
60391 
60414 
60478 
60540 
60579 
60593 
60623 
60671 
60683 
60714 
60747 
60760 
60787 
60778 
60784 
60868 
60931 
60926 
60955 
60995 
61008 
60994 
61046 
61097 
61105 
61143 
61142 
61174 
61195 
61222 
61283 
61313 
61387 
61468 
61479 
61523 
61542 
61555 
61594 
61639 
61665 
61748 
61800 
61764 
61819 
61874 
61933 
61951 
62000 
62080 
62104 
62125 
62170 
62173 
62173 
62195 
62199 
62238 
62253 
62267 
62299 
62346 
62397 
62446 
62497 
62548 
62597 
62642 
62669 
62656 
62637 
62615 
62650 
62647 
62641 
62653 
62624 
62600 
62527 
62375 
62219 
62083 
61914 
61635 
61370 
61117 
60890 
60612 
60302 
60031 
59773 
59519 
59295 
59038 
58741 
58525 
58326 
58097 
57888 
57640 
57438 
57333 
57159 
56956 
56790 
56626 
56473 
56371 
56298 
56210 
56203 
56141 
56045 
56043 
56071 
56076 
56032 
56010 
56038 
56032 
56040 
56105 
56174 
56294 
56409 
56517 
56617 
56698 
56770 
56869 
57030 
57203 
57302 
57454 
57646 
57788 
57930 
58030 
58127 
58210 
58257 
58306 
58413 
58514 
58608 
58676 
58668 
58703 
58726 
58752 
58800 
58862 
58864 
58864 
58876 
58932 
58977 
58961 
58918 
58928 
58944 
58945 
58955 
58983 
58945 
58892 
58856 
58854 
58858 
58865 
58886 
58885 
58873 
58933 
58948 
58912 
58866 
58861 
58899 
58952 
58935 
58917 
58991 
59077 
59170 
59208 
59220 
59247 
59316 
59377 
59445 
59478 
59518 
59563 
59588 
59625 
59665 
59706 
59727 
59807 
59916 
59929 
59919 
59951 
59932 
59910 
59955 
59998 
60111 
60167 
60208 
60301 
60351 
60366 
60418 
60431 
60448 
60437 
60462 
60504 
60524 
60526 
60549 
60571 
60666 
60744 
60738 
60701 
60675 
60650 
60629 
60638 
60562 
60446 
60358 
60215 
60060 
59925 
59719 
59508 
59282 
59083 
58892 
58664 
58413 
58145 
57860 
57587 
57320 
57048 
56813 
56556 
56270 
56062 
55846 
55602 
55406 
55236 
55104 
54955 
54790 
54682 
54613 
54534 
54441 
54342 
54304 
54264 
54221 
54209 
54244 
54316 
54389 
54473 
54525 
54561 
54696 
54832 
54997 
55150 
55284 
55425 
55537 
55607 
55723 
55889 
56064 
56211 
56430 
56637 
56780 
56907 
57078 
57236 
57387 
57526 
57630 
57696 
57746 
57837 
57940 
58031 
58099 
58106 
58097 
58108 
58141 
58197 
58262 
58274 
58260 
58269 
58275 
58272 
58282 
58296 
58339 
58422 
58404 
58415 
58462 
58477 
58442 
58439 
58493 
58490 
58586 
58638 
58625 
58645 
58698 
58719 
58720 
58726 
58761 
58841 
58908 
58968 
59040 
59119 
59138 
59186 
59239 
59293 
59335 
59333 
59382 
59424 
59499 
59527 
59530 
59580 
59643 
59669 
59726 
59758 
59822 
59885 
59950 
59967 
59987 
60029 
60067 
60104 
60179 
60236 
60250 
60245 
60255 
60242 
60260 
60335 
60381 
60365 
60363 
60421 
60426 
60418 
60402 
60406 
60395 
60348 
60209 
60050 
59952 
59905 
59787 
59581 
59346 
59131 
58926 
58730 
58468 
58198 
57958 
57715 
57483 
57289 
57076 
56898 
56730 
56499 
56268 
56063 
55914 
55779 
55662 
55553 
55448 
55356 
55251 
55212 
55228 
55221 
55172 
55126 
55129 
55124 
55133 
55159 
55198 
55254 
55354 
55448 
55546 
55655 
55773 
55924 
56065 
56183 
56280 
56413 
56561 
56694 
56845 
56919 
56977 
57068 
57108 
57185 
57275 
57417 
57504 
57598 
57703 
57804 
57897 
57919 
57973 
58032 
58067 
58132 
58210 
58253 
58253 
58260 
58288 
58295 
58325 
58329 
58362 
58433 
58501 
58515 
58487 
58490 
58536 
58578 
58594 
58584 
58565 
58548 
58510 
58532 
58565 
58560 
58541 
58522 
58520 
58504 
58518 
58553 
58568 
58601 
58646 
58693 
58757 
58801 
58852 
58932 
58931 
58919 
59041 
59056 
59043 
59075 
59104 
59126 
59170 
59225 
59259 
59313 
59352 
59313 
59315 
59429 
59489 
59503 
59471 
59496 
59534 
59532 
59493 
59505 
59525 
59534 
59585 
59641 
59674 
59691 
59660 
59596 
59515 
59396 
59288 
59191 
59100 
58951 
58736 
58484 
58261 
58074 
57850 
57557 
57318 
57121 
56924 
56715 
56509 
56295 
56073 
55894 
55696 
55444 
55244 
55098 
54932 
54755 
54667 
54621 
54570 
54496 
54459 
54445 
54408 
54397 
54406 
54397 
54376 
54386 
54434 
54518 
54619 
54687 
54800 
54936 
55064 
55124 
55207 
55335 
55510 
55634 
55718 
55868 
56134 
56355 
56437 
56561 
56689 
56805 
56935 
57033 
57146 
57279 
57347 
57421 
57502 
57591 
57643 
57655 
57695 
57738 
57823 
57929 
58015 
58099 
58140 
58146 
58197 
58237 
58280 
58324 
58351 
58388 
58457 
58453 
58401 
58356 
58357 
58348 
58329 
58396 
58418 
58411 
58446 
58488 
58496 
58499 
58516 
58500 
58536 
58615 
58677 
58699 
58634 
58623 
58658 
58708 
58748 
58748 
58787 
58869 
58942 
58982 
58993 
59014 
59005 
58997 
59052 
59116 
59166 
59248 
59347 
59446 
59534 
59580 
59613 
59583 
59608 
59661 
59751 
59875 
59991 
60022 
60051 
60083 
60073 
60075 
60075 
60086 
60050 
60036 
60020 
59953 
59832 
59694 
59509 
59268 
59029 
58813 
58586 
58329 
58083 
57866 
57667 
57442 
57187 
56891 
56603 
56364 
56157 
55959 
55724 
55531 
55327 
55104 
54931 
54803 
54665 
54579 
54477 
54373 
54282 
54217 
54136 
54028 
53982 
54003 
54003 
54021 
54044 
54070 
54120 
54149 
54205 
54290 
54376 
54455 
54618 
54743 
54866 
55035 
55186 
55262 
55381 
55550 
55716 
55830 
55949 
56110 
56354 
56522 
56616 
56693 
56804 
56934 
57037 
57148 
57257 
57365 
57424 
57499 
57538 
57585 
57619 
57678 
57737 
57752 
57781 
57818 
57882 
57933 
57972 
57969 
57977 
57997 
58019 
58075 
58140 
58193 
58236 
58260 
58303 
58380 
58375 
58345 
58331 
58364 
58452 
58496 
58531 
58588 
58635 
58657 
58712 
58808 
58909 
58938 
58966 
59033 
59101 
59152 
59151 
59170 
59197 
59249 
59352 
59496 
59598 
59671 
59721 
59804 
59928 
60030 
60101 
60128 
60164 
60202 
60253 
60391 
60449 
60467 
60486 
60480 
60499 
60605 
60676 
60699 
60746 
60783 
60806 
60823 
60841 
60825 
60784 
60718 
60573 
60386 
60248 
60101 
59882 
59615 
59317 
59067 
58861 
58609 
58351 
58096 
57847 
57601 
57391 
57133 
56896 
56682 
56465 
56248 
56043 
55866 
55761 
55628 
55482 
55361 
55226 
55116 
55005 
54955 
54937 
54878 
54808 
54766 
54773 
54769 
54788 
54839 
54867 
54929 
55027 
55116 
55233 
55317 
55405 
55519 
55689 
55820 
55925 
56059 
56216 
56349 
56474 
56621 
56769 
56925 
57037 
57109 
57237 
57357 
57450 
57530 
57646 
57762 
57804 
57910 
58039 
58118 
58223 
58313 
58343 
58357 
58376 
58449 
58517 
58535 
58597 
58644 
58641 
58679 
58707 
58705 
58747 
58779 
58801 
58903 
58928 
58929 
58923 
58956 
59013 
59048 
59105 
59166 
59220 
59243 
59253 
59301 
59272 
59278 
59355 
59384 
59433 
59514 
59595 
59627 
59614 
59654 
59681 
59740 
59834 
59845 
59823 
59854 
59957 
60010 
60023 
60033 
60077 
60145 
60209 
60266 
60355 
60430 
60522 
60640 
60651 
60688 
60715 
60732 
60758 
60836 
60922 
60960 
60961 
60970 
60986 
61014 
61024 
61009 
61001 
60985 
60976 
60954 
60842 
60698 
60544 
60375 
60154 
59916 
59677 
59447 
59207 
58919 
58642 
58365 
58090 
57857 
57640 
57411 
57106 
56909 
56721 
56548 
56332 
56106 
55927 
55790 
55620 
55472 
55380 
55300 
55202 
55091 
55053 
55031 
54998 
54984 
54997 
55040 
55088 
55143 
55189 
55208 
55249 
55251 
55307 
55425 
55541 
55644 
55746 
55900 
56029 
56121 
56256 
56390 
56553 
56752 
56915 
57095 
57221 
57293 
57406 
57596 
57725 
57818 
57934 
58030 
58101 
58202 
58313 
58407 
58536 
58626 
58671 
58767 
58845 
58850 
58869 
58840 
58869 
58907 
58949 
58945 
58965 
59014 
59043 
59066 
59067 
58990 
58933 
58946 
58956 
58910 
58919 
58934 
58992 
59067 
59085 
59141 
59170 
59157 
59160 
59179 
59174 
59197 
59253 
59305 
59373 
59414 
59436 
59481 
59498 
59539 
59600 
59641 
59668 
59702 
59772 
59854 
59874 
59927 
60023 
60071 
60117 
60146 
60214 
60278 
60338 
60395 
60414 
60407 
60470 
60502 
60529 
60617 
60703 
60732 
60801 
60854 
60912 
60956 
60964 
60968 
60984 
61018 
61008 
60997 
60972 
60924 
60859 
60776 
60658 
60540 
60416 
60248 
60027 
59811 
59655 
59456 
59208 
58973 
58717 
58508 
58260 
58015 
57801 
57569 
57307 
57074 
56875 
56672 
56508 
56371 
56263 
56170 
56046 
55899 
55807 
55746 
55667 
55589 
55575 
55579 
55498 
55483 
55519 
55539 
55537 
55565 
55582 
55595 
55684 
55786 
55885 
55991 
56109 
56240 
56385 
56534 
56631 
56750 
56836 
56915 
56974 
57034 
57154 
57338 
57512 
57622 
57721 
57820 
57954 
58064 
58106 
58153 
58192 
58178 
58247 
58323 
58349 
58404 
58391 
58400 
58440 
58409 
58374 
58399 
58436 
58454 
58426 
58413 
58495 
58582 
58677 
58705 
58687 
58676 
58720 
58789 
58831 
58810 
58809 
58833 
58886 
58937 
58950 
58930 
58945 
58979 
58996 
59010 
59063 
59144 
59186 
59213 
59274 
59334 
59330 
59329 
59339 
59364 
59433 
59507 
59566 
59573 
59581 
59611 
59608 
59688 
59725 
59783 
59841 
59863 
59871 
59886 
59834 
59840 
59819 
59770 
59731 
59764 
59813 
59888 
59940 
59930 
59867 
59876 
59899 
59898 
59877 
59849 
59779 
59693 
59624 
59542 
59466 
59302 
59096 
58918 
58689 
58459 
58262 
58078 
57867 
57658 
57442 
57241 
56969 
56677 
56419 
56206 
56016 
55773 
55527 
55340 
55088 
54860 
54704 
54570 
54429 
54283 
54191 
54160 
54067 
53968 
53912 
53890 
53896 
53890 
53897 
53904 
53952 
53954 
53969 
54015 
54083 
54177 
54297 
54428 
54553 
54645 
54772 
54919 
55100 
55244 
55317 
55448 
55619 
55759 
55879 
56019 
56221 
56391 
56474 
56535 
56581 
56635 
56733 
56841 
56913 
56983 
57053 
57071 
57064 
57031 
57023 
57040 
57131 
57146 
57154 
57173 
57161 
57128 
57121 
57129 
57137 
57186 
57230 
57232 
57208 
57222 
57237 
57298 
57302 
57284 
57290 
57274 
57306 
57305 
57316 
57327 
57317 
57329 
57401 
57480 
57535 
57559 
57594 
57614 
57691 
57754 
57816 
57887 
57939 
57964 
57996 
58058 
58149 
58216 
58261 
58355 
58437 
58513 
58579 
58700 
58827 
58910 
59000 
59027 
59076 
59151 
59230 
59357 
59472 
59567 
59606 
59669 
59741 
59804 
59869 
59930 
60023 
60058 
60107 
60189 
60241 
60230 
60214 
60237 
60245 
60260 
60219 
60125 
60031 
59910 
59753 
59570 
59331 
59048 
58779 
58528 
58275 
58071 
57857 
57602 
57373 
57166 
56955 
56766 
56604 
56425 
56278 
56153 
56017 
55877 
55748 
55608 
55509 
55459 
55398 
55361 
55356 
55338 
55313 
55265 
55237 
55265 
55285 
55351 
55397 
55432 
55431 
55477 
55535 
55602 
55723 
55853 
55950 
56059 
56197 
56325 
56450 
56587 
56733 
56836 
56939 
57058 
57250 
57390 
57485 
57593 
57683 
57761 
57828 
57897 
57968 
58074 
58154 
58192 
58207 
58234 
58241 
58284 
58312 
58346 
58365 
58406 
58484 
58525 
58569 
58589 
58635 
58691 
58787 
58841 
58878 
58945 
59021 
59056 
59034 
59103 
59168 
59246 
59357 
59408 
59423 
59498 
59584 
59661 
59720 
59749 
59853 
59932 
59974 
60088 
60171 
60198 
60226 
60275 
60317 
60382 
60423 
60491 
60577 
60627 
60621 
60667 
60735 
60772 
60810 
60886 
60964 
61001 
61022 
61082 
61155 
61185 
61256 
61316 
61333 
61387 
61430 
61475 
61529 
61602 
61610 
61636 
61701 
61736 
61790 
61826 
61878 
61884 
61890 
61901 
61898 
61899 
61940 
61920 
61896 
61876 
61828 
61757 
61724 
61634 
61478 
61299 
61132 
60959 
60753 
60521 
60218 
59951 
59623 
59311 
59062 
58802 
58446 
58112 
57833 
57555 
57287 
57024 
56787 
56555 
56310 
56108 
55923 
55742 
55574 
55421 
55273 
55126 
55009 
54909 
54814 
54736 
54698 
54649 
54604 
54608 
54605 
54552 
54559 
54593 
54598 
54594 
54624 
54622 
54615 
54685 
54750 
54794 
54877 
54976 
55047 
55085 
55145 
55267 
55412 
55584 
55723 
55786 
55887 
55982 
56121 
56300 
56440 
56613 
56746 
56852 
56959 
57089 
57263 
57417 
57584 
57715 
57850 
58031 
58206 
58339 
58499 
58645 
58794 
58929 
59033 
59134 
59294 
59452 
59592 
59699 
59806 
59888 
59969 
60053 
60139 
60252 
60454 
60596 
60703 
60834 
60932 
61058 
61162 
61218 
61328 
61397 
61467 
61603 
61743 
61832 
61902 
61997 
62076 
62121 
62159 
62214 
62308 
62365 
62412 
62461 
62481 
62502 
62538 
62577 
62635 
62717 
62749 
62825 
62891 
62918 
62978 
63051 
63134 
63157 
63165 
63173 
63223 
63309 
63381 
63406 
63443 
63451 
63483 
63451 
63422 
63392 
63366 
63330 
63285 
63220 
63151 
63168 
63162 
63120 
63093 
63083 
63100 
63106 
63125 
63097 
63073 
63089 
63105 
63135 
63141 
63145 
63135 
63211 
63288 
63274 
63241 
63234 
63274 
63292 
63273 
63238 
63182 
63145 
63195 
63205 
63135 
63110 
63097 
63109 
63123 
63081 
63059 
63041 
62973 
62959 
62935 
62888 
62874 
62883 
62853 
62830 
62785 
62729 
62663 
62674 
62695 
62656 
62568 
62508 
62478 
62430 
62429 
62433 
62378 
62352 
62393 
62428 
62410 
62428 
62443 
62398 
62360 
62326 
62309 
62253 
62238 
62210 
62189 
62153 
62110 
62088 
62058 
62040 
62044 
62003 
62014 
61981 
61939 
61890 
61842 
61852 
61876 
61834 
61785 
61760 
61730 
61691 
61628 
61598 
61627 
61630 
61619 
61627 
61677 
61688 
61658 
61589 
61533 
61547 
61563 
61557 
61595 
61575 
61516 
61493 
61492 
61471 
61473 
61468 
61443 
61399 
61341 
61327 
61300 
61280 
61242 
61244 
61231 
61201 
61183 
61149 
61147 
61119 
61126 
61128 
61117 
61063 
61055 
61086 
61082 
61053 
61039 
61041 
60995 
60959 
60938 
60891 
60886 
60878 
60857 
60809 
60731 
60669 
60629 
60580 
60545 
60457 
60355 
60298 
60201 
60163 
60134 
60074 
60021 
60003 
59993 
59945 
59856 
59777 
59710 
59611 
59537 
59513 
59494 
59438 
59347 
59289 
59300 
59318 
59242 
59193 
59195 
59168 
59134 
59171 
59177 
59148 
59069 
58995 
58933 
58882 
58844 
58814 
58802 
58783 
58724 
58661 
58635 
58600 
58554 
58497 
58477 
58477 
58459 
58432 
58353 
58289 
58269 
58217 
58141 
58119 
58086 
58079 
58089 
58087 
58028 
58058 
58140 
58146 
58080 
58005 
57971 
57953 
57902 
57906 
57875 
57834 
57767 
57732 
57709 
57734 
57741 
57762 
57764 
57730 
57698 
57654 
57686 
57715 
57738 
57804 
57805 
57764 
57754 
57738 
57732 
57734 
57687 
57593 
57573 
57591 
57608 
57592 
57553 
57531 
57503 
57501 
57484 
57470 
57456 
57507 
57533 
57522 
57517 
57534 
57572 
57590 
57588 
57599 
57602 
57637 
57654 
57678 
57702 
57746 
57733 
57709 
57740 
57770 
57814 
57839 
57851 
57882 
57916 
57927 
57937 
57931 
57898 
57902 
57908 
57962 
58044 
58053 
58024 
58049 
58076 
58064 
58045 
58061 
58111 
58146 
58160 
58133 
58100 
58118 
58142 
58134 
58106 
58117 
58175 
58235 
58276 
58276 
58246 
58273 
58260 
58266 
58310 
58310 
58316 
58307 
58311 
58329 
58343 
58345 
58355 
58391 
58381 
58404 
58490 
58521 
58466 
58408 
58388 
58377 
58334 
58308 
58345 
58361 
58382 
58346 
58303 
58281 
58280 
58298 
58273 
58257 
58288 
58265 
58213 
58168 
58156 
58154 
58132 
58163 
58222 
58217 
58189 
58181 
58190 
58198 
58205 
58206 
58250 
58269 
58236 
58253 
58276 
58337 
58308 
58219 
58177 
58176 
58225 
58320 
58291 
58289 
58281 
58264 
58253 
58211 
58242 
58232 
58201 
58206 
58226 
58246 
58304 
58325 
58318 
58314 
58263 
58221 
58178 
58176 
58205 
58165 
58157 
58200 
58212 
58192 
58174 
58178 
58231 
58223 
58146 
58069 
58062 
58136 
58158 
58111 
58090 
58081 
58099 
58127 
58121 
58112 
58104 
58114 
58142 
58157 
58141 
58084 
58053 
58025 
58013 
58028 
58069 
58066 
58066 
58085 
58036 
58023 
58026 
58032 
58034 
58021 
58067 
58109 
58094 
58065 
58027 
58059 
58061 
58048 
58058 
57993 
58001 
58080 
58094 
58054 
57998 
57940 
57914 
57924 
57914 
57935 
57917 
57927 
57928 
57955 
57965 
57964 
57966 
57979 
57971 
57923 
57895 
57932 
57962 
57959 
57946 
57956 
57948 
57918 
57901 
57932 
57939 
57908 
57924 
57933 
57992 
58022 
58018 
58059 
58066 
58014 
57981 
57954 
57960 
57981 
57974 
57973 
58040 
58023 
58014 
58054 
58068 
58106 
58117 
58117 
58090 
58089 
58076 
58033 
58048 
58071 
58056 
58070 
58090 
58076 
58111 
58125 
58085 
58086 
58197 
58249 
58254 
58239 
58222 
58176 
58190 
58188 
58163 
58089 
58050 
58054 
58062 
58093 
58102 
58076 
58048 
58090 
58113 
58104 
58096 
58067 
58085 
58121 
58145 
58185 
58203 
58219 
58272 
58260 
58214 
58166 
58178 
58181 
58182 
58153 
58127 
58134 
58119 
58149 
58155 
58161 
58176 
58176 
58181 
58164 
58126 
58131 
58207 
58268 
58280 
58243 
58200 
58195 
58218 
58199 
58228 
58270 
58311 
58305 
58249 
58226 
58190 
58172 
58162 
58196 
58211 
58235 
58251 
58220 
58197 
58205 
58183 
58150 
58141 
58123 
58118 
58152 
58166 
58213 
58207 
58207 
58238 
58229 
58127 
58087 
58105 
58089 
58058 
58057 
58102 
58121 
58106 
58087 
58109 
58134 
58156 
58187 
58178 
58143 
58109 
58086 
58089 
58060 
58042 
58000 
58005 
58037 
57991 
57987 
58026 
58064 
58095 
58092 
58077 
58067 
58075 
58105 
58112 
58067 
58016 
58010 
58019 
58018 
58003 
57940 
57913 
57967 
58041 
58049 
58050 
58028 
58020 
58009 
57998 
57993 
58006 
57969 
57969 
57912 
57892 
57922 
57949 
57968 
57970 
57940 
57887 
57847 
57820 
57783 
57800 
57807 
57782 
57773 
57771 
57759 
57740 
57730 
57780 
57868 
57883 
57852 
57872 
57914 
57878 
57862 
57868 
57883 
57872 
57856 
57852 
57823 
57817 
57802 
57789 
57818 
57852 
57869 
57858 
57827 
57783 
57786 
57759 
57698 
57689 
57688 
57718 
57784 
57859 
57911 
57945 
57914 
57919 
57914 
57903 
57876 
57879 
57832 
57827 
57850 
57843 
57823 
57798 
57816 
57816 
57809 
57853 
57902 
57925 
57932 
57880 
57854 
57858 
57896 
57915 
57904 
57876 
57804 
57798 
57884 
57961 
57974 
57937 
57961 
57996 
58001 
57959 
57865 
57829 
57843 
57834 
57813 
57819 
57873 
57877 
57875 
57843 
57784 
57836 
57865 
57850 
57870 
57902 
57960 
57964 
57955 
57926 
57902 
57923 
57915 
57933 
57985 
58002 
57994 
57978 
58007 
58019 
58015 
57998 
57996 
58046 
58090 
58072 
58059 
58090 
58104 
58083 
58039 
58034 
58051 
58070 
58057 
58042 
58041 
58050 
58079 
58091 
58124 
58149 
58150 
58138 
58106 
58077 
58115 
58130 
58105 
58097 
58076 
58067 
58060 
58055 
58055 
58033 
57969 
57917 
57920 
57979 
58011 
58018 
58028 
58004 
58000 
57967 
57891 
57860 
57901 
57928 
57960 
57965 
57963 
57977 
57987 
57956 
57937 
57946 
57977 
57957 
57895 
57841 
57800 
57809 
57816 
57822 
57860 
57863 
57836 
57824 
57862 
57875 
57826 
57780 
57810 
57848 
57857 
57879 
57909 
57920 
57927 
57903 
57885 
57883 
57855 
57817 
57845 
57872 
57891 
57919 
57904 
57895 
57865 
57829 
57831 
57818 
57833 
57836 
57823 
57823 
57847 
57849 
57819 
57819 
57858 
57869 
57858 
57851 
57862 
57902 
57893 
57865 
57857 
57838 
57826 
57804 
57823 
57847 
57906 
57968 
57958 
57912 
57912 
57933 
57960 
57957 
57938 
57930 
57917 
57986 
58055 
58047 
58083 
58074 
58023 
58004 
57998 
57993 
57977 
57953 
57925 
57930 
57936 
57995 
57979 
57953 
57941 
57943 
57963 
57995 
58045 
58065 
58064 
58060 
58037 
58097 
58123 
58092 
58053 
58050 
58022 
58033 
58080 
58034 
57949 
57934 
58008 
58022 
58003 
58008 
57994 
57961 
57911 
57884 
57859 
57863 
57845 
57883 
57914 
57934 
57930 
57955 
57969 
57938 
57889 
57863 
57883 
57922 
57943 
57943 
57885 
57871 
57867 
57862 
57895 
57926 
57910 
57830 
57792 
57835 
57851 
57888 
57887 
57847 
57828 
57817 
57838 
57872 
57865 
57839 
57861 
57863 
57816 
57731 
57690 
57713 
57754 
57807 
57775 
57773 
57756 
57763 
57771 
57764 
57807 
57841 
57844 
57911 
57914 
57854 
57823 
57798 
57785 
57787 
57797 
57815 
57859 
57946 
57966 
57907 
57890 
57893 
57862 
57817 
57778 
57708 
57701 
57720 
57716 
57728 
57759 
57776 
57774 
57737 
57691 
57716 
57780 
57784 
57769 
57747 
57749 
57759 
57746 
57765 
57830 
57863 
57898 
57939 
57962 
57968 
57934 
57957 
57961 
57961 
57956 
57895 
57881 
57884 
57926 
57956 
57952 
57948 
57949 
57981 
58003 
57973 
57972 
57930 
57900 
57859 
57914 
57991 
58015 
57957 
57916 
57911 
57929 
57961 
57944 
57919 
57951 
58007 
58068 
58052 
58070 
58063 
58034 
57997 
57963 
57957 
57969 
57974 
57995 
58012 
58005 
58000 
57971 
57954 
57916 
57882 
57868 
57850 
57824 
57827 
57850 
57894 
57906 
57898 
57855 
57867 
57888 
57910 
57929 
57916 
57909 
57878 
57839 
57798 
57773 
57752 
57733 
57792 
57820 
57821 
57788 
57730 
57750 
57812 
57845 
57834 
57817 
57788 
57729 
57704 
57724 
57714 
57668 
57672 
57699 
57689 
57734 
57763 
57755 
57736 
57690 
57674 
57667 
57702 
57744 
57718 
57700 
57724 
57774 
57747 
57742 
57769 
57760 
57772 
57794 
57814 
57791 
57769 
57808 
57826 
57763 
57714 
57721 
57681 
57629 
57612 
57616 
57626 
57625 
57664 
57663 
57643 
57643 
57579 
57563 
57595 
57627 
57661 
57698 
57695 
57688 
57686 
57722 
57738 
57746 
57761 
57748 
57734 
57775 
57800 
57755 
57753 
57761 
57734 
57747 
57768 
57761 
57811 
57805 
57784 
57826 
57888 
57894 
57873 
57852 
57838 
57862 
57865 
57842 
57804 
57779 
57760 
57766 
57789 
57829 
57837 
57814 
57788 
57796 
57801 
57790 
57776 
57749 
57741 
57734 
57735 
57718 
57719 
57722 
57726 
57777 
57815 
57813 
57815 
57823 
57795 
57770 
57770 
57818 
57854 
57827 
57790 
57730 
57738 
57778 
57808 
57795 
57773 
57773 
57735 
57696 
57637 
57642 
57694 
57719 
57733 
57727 
57710 
57690 
57672 
57666 
57680 
57688 
57674 
57700 
57738 
57771 
57766 
57746 
57759 
57750 
57733 
57748 
57758 
57765 
57789 
57775 
57791 
57765 
57733 
57738 
57725 
57729 
57713 
57688 
57699 
57766 
57777 
57715 
57715 
57735 
57766 
57717 
57709 
57728 
57734 
57710 
57694 
57719 
57699 
57660 
57647 
57691 
57743 
57746 
57713 
57658 
57638 
57666 
57688 
57691 
57708 
57742 
57748 
57726 
57734 
57744 
57729 
57745 
57717 
57723 
57756 
57731 
57765 
57870 
57884 
57848 
57808 
57744 
57733 
57737 
57710 
57701 
57745 
57785 
57751 
57728 
57711 
57697 
57718 
57741 
57773 
57777 
57825 
57870 
57915 
57889 
57873 
57825 
57801 
57774 
57766 
57767 
57815 
57831 
57768 
57710 
57712 
57743 
57758 
57831 
57851 
57835 
57810 
57804 
57786 
57765 
57753 
57749 
57776 
57806 
57778 
57780 
57783 
57834 
57910 
57915 
57855 
57808 
57792 
57764 
57772 
57783 
57727 
57673 
57687 
57685 
57706 
57699 
57672 
57669 
57714 
57729 
57709 
57698 
57674 
57682 
57711 
57671 
57655 
57665 
57647 
57635 
57600 
57562 
57547 
57574 
57623 
57635 
57619 
57624 
57654 
57687 
57668 
57634 
57656 
57655 
57651 
57653 
57648 
57645 
57624 
57609 
57551 
57520 
57518 
57539 
57502 
57464 
57460 
57430 
57431 
57473 
57477 
57449 
57455 
57460 
57486 
57457 
57435 
57496 
57537 
57537 
57513 
57475 
57492 
57524 
57500 
57477 
57465 
57444 
57466 
57498 
57496 
57508 
57499 
57464 
57438 
57387 
57411 
57434 
57445 
57411 
57440 
57461 
57427 
57472 
57514 
57513 
57493 
57489 
57513 
57536 
57583 
57620 
57651 
57661 
57626 
57592 
57553 
57577 
57567 
57500 
57493 
57506 
57515 
57517 
57457 
57450 
57501 
57541 
57553 
57555 
57562 
57569 
57628 
57648 
57601 
57571 
57622 
57611 
57569 
57575 
57585 
57585 
57586 
57599 
57590 
57612 
57647 
57648 
57600 
57589 
57621 
57665 
57615 
57573 
57620 
57656 
57641 
57670 
57688 
57701 
57694 
57682 
57636 
57571 
57520 
57545 
57548 
57556 
57583 
57572 
57565 
57550 
57540 
57495 
57447 
57472 
57495 
57532 
57562 
57522 
57493 
57514 
57547 
57542 
57565 
57548 
57525 
57499 
57466 
57436 
57448 
57450 
57436 
57495 
57518 
57495 
57534 
57557 
57563 
57569 
57540 
57558 
57556 
57499 
57489 
57506 
57520 
57530 
57521 
57506 
57571 
57637 
57646 
57630 
57598 
57580 
57550 
57552 
57540 
57476 
57447 
57443 
57423 
57432 
57434 
57417 
57360 
57364 
57352 
57309 
57327 
57321 
57365 
57350 
57313 
57328 
57343 
57340 
57329 
57272 
57248 
57245 
57295 
57353 
57345 
57348 
57388 
57419 
57441 
57441 
57402 
57406 
57446 
57432 
57353 
57293 
57294 
57248 
57194 
57156 
57165 
57175 
57163 
57168 
57183 
57189 
57219 
57263 
57246 
57251 
57272 
57295 
57279 
57256 
57235 
57210 
57186 
57197 
57201 
57209 
57217 
57214 
57228 
57219 
57191 
57189 
57148 
57203 
57271 
57276 
57252 
57290 
57313 
57329 
57316 
57291 
57276 
57294 
57306 
57299 
57276 
57250 
57239 
57283 
57296 
57279 
57252 
57277 
57265 
57251 
57286 
57281 
57273 
57287 
57298 
57301 
57294 
57298 
57263 
57289 
57360 
57356 
57345 
57323 
57307 
57306 
57334 
57377 
57379 
57394 
57463 
57507 
57528 
57535 
57534 
57502 
57444 
57408 
57407 
57436 
57475 
57474 
57415 
57370 
57384 
57427 
57379 
57366 
57392 
57382 
57377 
57380 
57395 
57415 
57398 
57425 
57469 
57515 
57516 
57489 
57576 
57607 
57591 
57575 
57554 
57547 
57534 
57542 
57505 
57496 
57540 
57578 
57624 
57660 
57685 
57700 
57696 
57639 
57570 
57545 
57544 
57525 
57489 
57475 
57523 
57524 
57553 
57558 
57606 
57639 
57628 
57594 
57574 
57565 
57599 
57643 
57623 
57619 
57640 
57655 
57631 
57598 
57565 
57524 
57529 
57564 
57551 
57518 
57493 
57515 
57552 
57544 
57512 
57502 
57511 
57565 
57612 
57575 
57550 
57566 
57567 
57526 
57515 
57487 
57463 
57491 
57518 
57549 
57569 
57553 
57555 
57551 
57561 
57561 
57594 
57580 
57560 
57511 
57523 
57563 
57557 
57552 
57507 
57491 
57502 
57524 
57535 
57534 
57586 
57591 
57569 
57547 
57517 
57532 
57570 
57551 
57507 
57506 
57522 
57472 
57463 
57513 
57552 
57556 
57552 
57581 
57553 
57517 
57506 
57521 
57545 
57558 
57544 
57523 
57519 
57493 
57492 
57526 
57535 
57474 
57458 
57441 
57423 
57455 
57485 
57477 
57489 
57455 
57423 
57407 
57365 
57340 
57370 
57390 
57390 
57410 
57418 
57406 
57374 
57370 
57391 
57353 
57294 
57264 
57282 
57325 
57373 
57378 
57353 
57351 
57338 
57318 
57336 
57335 
57334 
57310 
57285 
57244 
57204 
57209 
57247 
57316 
57326 
57317 
57348 
57331 
57268 
57246 
57267 
57296 
57264 
57264 
57277 
57287 
57314 
57356 
57360 
57340 
57331 
57338 
57323 
57338 
57346 
57315 
57310 
57293 
57293 
57317 
57305 
57385 
57413 
57336 
57344 
57378 
57397 
57424 
57420 
57416 
57405 
57363 
57321 
57340 
57371 
57418 
57430 
57391 
57370 
57375 
57390 
57380 
57387 
57342 
57317 
57302 
57274 
57294 
57305 
57333 
57349 
57344 
57312 
57283 
57309 
57344 
57350 
57336 
57380 
57375 
57389 
57426 
57443 
57459 
57449 
57426 
57407 
57418 
57417 
57401 
57372 
57335 
57354 
57444 
57450 
57439 
57496 
57500 
57464 
57459 
57431 
57403 
57405 
57428 
57419 
57402 
57412 
57427 
57415 
57459 
57498 
57514 
57461 
57419 
57439 
57496 
57498 
57466 
57403 
57371 
57342 
57356 
57416 
57420 
57420 
57472 
57450 
57433 
57439 
57439 
57463 
57503 
57550 
57574 
57599 
57619 
57606 
57549 
57545 
57567 
57569 
57569 
57593 
57592 
57504 
57457 
57455 
57449 
57460 
57454 
57440 
57430 
57469 
57484 
57465 
57484 
57489 
57479 
57484 
57455 
57448 
57441 
57409 
57375 
57349 
57320 
57324 
57327 
57375 
57422 
57398 
57397 
57402 
57387 
57372 
57398 
57437 
57439 
57427 
57417 
57427 
57426 
57447 
57450 
57434 
57433 
57458 
57470 
57461 
57467 
57463 
57483 
57492 
57521 
57550 
57498 
57453 
57428 
57426 
57419 
57405 
57365 
57345 
57357 
57425 
57424 
57381 
57417 
57482 
57465 
57424 
57405 
57407 
57358 
57309 
57316 
57302 
57292 
57311 
57386 
57413 
57386 
57369 
57390 
57410 
57414 
57371 
57340 
57331 
57324 
57347 
57349 
57363 
57395 
57413 
57431 
57441 
57383 
57388 
57383 
57349 
57395 
57402 
57389 
57445 
57497 
57512 
57491 
57468 
57461 
57454 
57476 
57519 
57503 
57455 
57404 
57376 
57382 
57371 
57389 
57416 
57436 
57453 
57405 
57353 
57363 
57346 
57341 
57411 
57451 
57474 
57525 
57532 
57511 
57487 
57442 
57407 
57355 
57316 
57350 
57379 
57347 
57335 
57399 
57474 
57468 
57460 
57443 
57425 
57404 
57407 
57382 
57359 
57414 
57505 
57492 
57511 
57541 
57552 
57526 
57515 
57543 
57555 
57581 
57599 
57635 
57593 
57535 
57446 
57380 
57328 
57350 
57429 
57478 
57433 
57413 
57428 
57441 
57443 
57437 
57452 
57405 
57367 
57348 
57345 
57404 
57399 
57406 
57434 
57406 
57389 
57397 
57342 
57305 
57334 
57339 
57357 
57375 
57331 
57293 
57311 
57320 
57340 
57364 
57365 
57366 
57419 
57426 
57382 
57347 
57378 
57411 
57456 
57497 
57490 
57458 
57439 
57476 
57486 
57486 
57475 
57464 
57461 
57518 
57479 
57426 
57430 
57442 
57400 
57369 
57390 
57416 
57376 
57354 
57405 
57427 
57392 
57348 
57339 
57370 
57385 
57373 
57391 
57394 
57388 
57426 
57422 
57431 
57411 
57380 
57431 
57472 
57476 
57460 
57447 
57502 
57527 
57545 
57523 
57488 
57435 
57421 
57452 
57461 
57490 
57456 
57449 
57483 
57477 
57475 
57493 
57510 
57463 
57476 
57544 
57594 
57578 
57552 
57510 
57472 
57459 
57471 
57502 
57526 
57515 
57494 
57452 
57411 
57416 
57421 
57430 
57447 
57475 
57561 
57584 
57553 
57523 
57528 
57547 
57523 
57516 
57512 
57516 
57483 
57496 
57559 
57572 
57600 
57594 
57594 
57595 
57548 
57522 
57518 
57496 
57466 
57478 
57493 
57465 
57419 
57423 
57425 
57433 
57441 
57494 
57565 
57516 
57483 
