370 
734 
735 
494 
201 
438 
616 
550 
264 
455 
597 
493 
258 
359 
638 
556 
198 
230 
615 
589 
380 
287 
621 
663 
442 
260 
618 
696 
483 
211 
415 
605 
526 
261 
477 
676 
601 
242 
329 
691 
703 
470 
425 
734 
687 
466 
406 
793 
787 
626 
438 
694 
831 
698 
477 
603 
660 
584 
335 
472 
731 
710 
495 
546 
765 
709 
426 
386 
716 
699 
432 
267 
610 
613 
387 
191 
550 
649 
477 
189 
414 
630 
484 
152 
370 
640 
517 
239 
374 
683 
501 
276 
322 
643 
623 
358 
175 
557 
639 
427 
260 
517 
618 
493 
300 
624 
873 
669 
370 
573 
816 
654 
323 
356 
662 
683 
475 
281 
613 
650 
413 
238 
566 
658 
485 
248 
561 
691 
500 
192 
464 
665 
539 
289 
460 
674 
551 
288 
299 
632 
631 
402 
351 
621 
523 
278 
229 
570 
696 
532 
238 
505 
628 
494 
237 
452 
685 
611 
258 
397 
634 
536 
282 
326 
725 
661 
391 
243 
557 
580 
379 
224 
518 
622 
471 
200 
531 
737 
560 
270 
489 
719 
596 
276 
406 
700 
619 
315 
301 
631 
656 
418 
294 
652 
666 
413 
116 
462 
636 
403 
190 
472 
619 
443 
126 
369 
607 
532 
212 
294 
593 
585 
378 
466 
890 
1161 
1158 
1130 
1319 
1034 
622 
390 
704 
703 
453 
195 
488 
640 
502 
216 
435 
647 
560 
220 
330 
629 
530 
226 
288 
649 
614 
409 
299 
608 
604 
362 
233 
601 
684 
499 
286 
474 
629 
533 
215 
488 
749 
629 
322 
430 
687 
619 
355 
389 
742 
708 
489 
335 
685 
742 
496 
351 
665 
579 
443 
264 
616 
773 
640 
367 
573 
837 
737 
483 
542 
869 
807 
562 
466 
717 
739 
488 
344 
649 
670 
480 
227 
513 
638 
500 
228 
478 
615 
501 
246 
409 
686 
561 
284 
362 
638 
585 
262 
258 
633 
604 
347 
248 
534 
568 
387 
173 
657 
909 
672 
356 
607 
779 
612 
279 
464 
715 
683 
400 
403 
658 
598 
352 
286 
600 
617 
404 
281 
609 
660 
491 
222 
506 
610 
488 
260 
492 
787 
617 
194 
395 
619 
557 
239 
285 
568 
591 
397 
266 
586 
562 
318 
159 
508 
594 
422 
232 
580 
689 
495 
222 
466 
776 
622 
144 
287 
633 
609 
305 
296 
606 
571 
275 
223 
630 
667 
422 
218 
557 
605 
407 
182 
506 
634 
510 
235 
448 
693 
553 
233 
353 
606 
580 
256 
291 
625 
618 
347 
238 
621 
658 
483 
283 
611 
668 
466 
281 
494 
656 
533 
320 
575 
649 
470 
203 
365 
627 
548 
243 
234 
552 
540 
254 
156 
560 
598 
445 
184 
444 
578 
574 
465 
949 
1293 
1343 
1045 
1033 
987 
743 
360 
440 
670 
606 
276 
266 
694 
651 
281 
202 
547 
516 
387 
193 
501 
583 
418 
203 
465 
646 
527 
223 
401 
635 
593 
382 
545 
705 
572 
293 
366 
692 
580 
338 
215 
573 
602 
430 
242 
577 
743 
588 
358 
517 
688 
548 
310 
564 
774 
646 
450 
531 
600 
508 
302 
367 
733 
787 
575 
357 
689 
759 
562 
377 
649 
795 
665 
451 
583 
716 
627 
290 
433 
671 
621 
341 
398 
633 
552 
223 
210 
588 
566 
303 
142 
514 
651 
458 
288 
469 
574 
432 
201 
492 
644 
515 
230 
377 
639 
570 
271 
340 
858 
776 
465 
428 
735 
725 
462 
261 
601 
662 
448 
230 
549 
678 
592 
250 
464 
680 
551 
226 
445 
698 
565 
361 
345 
547 
532 
346 
342 
687 
590 
353 
264 
540 
623 
433 
206 
528 
643 
499 
191 
417 
631 
515 
252 
424 
647 
580 
253 
284 
622 
590 
319 
281 
610 
612 
389 
203 
521 
655 
453 
234 
508 
611 
497 
203 
422 
644 
530 
240 
365 
705 
631 
370 
309 
649 
567 
326 
327 
701 
667 
336 
322 
627 
589 
420 
188 
446 
627 
478 
179 
377 
637 
524 
367 
431 
652 
598 
228 
224 
559 
576 
324 
311 
766 
732 
504 
539 
1042 
1289 
1227 
778 
857 
747 
578 
256 
345 
567 
561 
307 
374 
573 
497 
218 
194 
581 
587 
324 
280 
527 
522 
392 
223 
554 
623 
438 
164 
461 
587 
462 
212 
462 
688 
593 
322 
327 
666 
590 
268 
315 
696 
671 
439 
355 
704 
703 
480 
304 
629 
709 
577 
373 
661 
801 
576 
147 
367 
737 
618 
289 
413 
678 
700 
519 
548 
844 
761 
495 
349 
738 
790 
577 
285 
544 
639 
439 
187 
497 
652 
476 
161 
319 
576 
548 
204 
334 
635 
542 
254 
227 
609 
562 
303 
220 
535 
570 
405 
271 
672 
650 
420 
178 
579 
928 
747 
399 
572 
756 
598 
302 
383 
626 
634 
322 
306 
627 
644 
403 
210 
541 
616 
415 
169 
527 
644 
419 
174 
420 
533 
468 
207 
414 
647 
555 
211 
260 
597 
552 
311 
325 
641 
577 
316 
155 
501 
574 
390 
163 
479 
596 
473 
261 
528 
638 
472 
220 
416 
683 
582 
285 
279 
540 
565 
288 
211 
573 
544 
338 
195 
496 
554 
389 
154 
486 
607 
473 
212 
432 
555 
403 
183 
371 
623 
508 
125 
203 
575 
546 
310 
234 
575 
587 
347 
208 
548 
641 
432 
256 
550 
634 
437 
120 
335 
623 
500 
137 
263 
554 
457 
171 
197 
526 
504 
229 
117 
452 
499 
297 
216 
757 
1084 
1056 
979 
1187 
967 
591 
320 
607 
627 
424 
138 
326 
545 
473 
184 
219 
532 
502 
271 
270 
631 
576 
303 
155 
530 
647 
514 
235 
476 
617 
505 
237 
521 
747 
502 
197 
385 
632 
576 
322 
346 
682 
632 
367 
342 
615 
612 
408 
292 
629 
712 
486 
83 
353 
626 
518 
183 
431 
683 
630 
362 
525 
780 
702 
486 
484 
822 
795 
528 
473 
838 
937 
584 
359 
732 
768 
544 
256 
519 
695 
568 
211 
408 
584 
462 
128 
301 
654 
544 
186 
175 
512 
464 
260 
198 
525 
566 
337 
107 
423 
511 
401 
160 
399 
538 
391 
149 
363 
600 
609 
341 
519 
737 
641 
323 
318 
621 
552 
293 
254 
619 
639 
382 
221 
576 
629 
391 
149 
463 
657 
500 
202 
359 
533 
411 
130 
257 
535 
462 
164 
170 
512 
480 
213 
175 
526 
575 
313 
93 
421 
487 
361 
127 
372 
518 
393 
169 
405 
640 
548 
264 
283 
463 
435 
277 
298 
612 
645 
363 
246 
505 
573 
358 
147 
499 
632 
436 
150 
462 
637 
499 
194 
350 
603 
476 
189 
257 
547 
487 
279 
327 
622 
574 
269 
171 
533 
491 
341 
187 
521 
615 
483 
207 
428 
594 
506 
261 
439 
637 
471 
189 
361 
637 
540 
265 
284 
623 
590 
311 
222 
554 
608 
384 
141 
524 
600 
326 
69 
408 
610 
463 
120 
295 
597 
447 
136 
273 
635 
680 
550 
713 
1252 
1386 
1166 
824 
877 
692 
477 
297 
544 
583 
431 
174 
466 
634 
427 
145 
322 
583 
485 
228 
296 
570 
500 
225 
203 
529 
554 
279 
183 
534 
575 
356 
141 
492 
553 
418 
185 
448 
562 
471 
277 
426 
629 
524 
243 
300 
605 
581 
341 
332 
369 
423 
298 
201 
553 
592 
405 
258 
565 
707 
543 
259 
520 
716 
595 
369 
591 
758 
682 
400 
450 
762 
712 
457 
375 
695 
650 
442 
286 
606 
585 
369 
170 
488 
634 
436 
136 
381 
587 
456 
128 
297 
591 
493 
196 
296 
661 
544 
275 
190 
542 
519 
296 
179 
534 
548 
423 
367 
584 
687 
544 
326 
585 
698 
469 
156 
323 
601 
541 
196 
297 
674 
567 
231 
140 
531 
591 
264 
133 
507 
589 
394 
138 
469 
604 
411 
147 
401 
532 
423 
141 
358 
687 
448 
152 
242 
538 
512 
210 
231 
601 
497 
245 
105 
501 
535 
301 
85 
443 
511 
396 
121 
370 
563 
459 
143 
270 
538 
441 
211 
284 
628 
564 
277 
165 
502 
508 
287 
133 
456 
542 
457 
299 
499 
558 
427 
156 
408 
644 
568 
225 
365 
621 
575 
275 
287 
587 
511 
277 
311 
587 
556 
316 
134 
498 
569 
388 
153 
437 
533 
391 
141 
328 
490 
380 
158 
296 
537 
471 
208 
325 
776 
912 
901 
942 
1125 
862 
440 
151 
479 
547 
346 
148 
471 
539 
405 
148 
382 
599 
408 
95 
320 
598 
488 
184 
196 
571 
530 
206 
145 
592 
620 
323 
164 
438 
510 
373 
165 
441 
621 
512 
186 
379 
579 
513 
220 
374 
696 
648 
335 
320 
654 
637 
362 
296 
645 
693 
265 
89 
512 
656 
547 
306 
540 
666 
594 
420 
578 
795 
666 
328 
470 
750 
699 
392 
396 
746 
688 
351 
274 
595 
605 
317 
106 
474 
531 
283 
63 
412 
541 
351 
97 
316 
533 
437 
175 
280 
504 
434 
167 
197 
554 
518 
246 
127 
587 
595 
453 
511 
778 
762 
522 
232 
554 
771 
513 
212 
459 
645 
578 
329 
388 
641 
563 
240 
271 
584 
553 
306 
189 
576 
601 
356 
137 
468 
553 
402 
182 
486 
592 
403 
116 
383 
591 
446 
184 
328 
615 
527 
179 
200 
590 
536 
208 
166 
542 
588 
355 
172 
490 
523 
297 
107 
508 
653 
480 
186 
357 
639 
559 
247 
409 
677 
546 
269 
302 
638 
602 
316 
285 
621 
568 
369 
216 
511 
562 
346 
126 
428 
615 
427 
112 
303 
543 
471 
198 
308 
508 
473 
301 
354 
704 
857 
878 
934 
1248 
1073 
600 
273 
554 
580 
392 
135 
429 
594 
425 
185 
380 
577 
481 
212 
257 
543 
448 
241 
235 
545 
584 
382 
182 
515 
558 
372 
217 
541 
600 
369 
106 
378 
590 
491 
175 
456 
724 
550 
297 
321 
635 
636 
380 
326 
655 
632 
428 
314 
602 
466 
228 
96 
459 
577 
495 
294 
575 
721 
618 
368 
513 
708 
694 
390 
478 
740 
665 
395 
398 
691 
632 
358 
235 
540 
619 
436 
160 
458 
547 
351 
99 
394 
570 
391 
157 
350 
615 
495 
181 
217 
492 
454 
226 
235 
537 
518 
253 
142 
547 
579 
337 
89 
440 
699 
667 
364 
530 
651 
514 
270 
411 
602 
504 
203 
264 
573 
591 
306 
236 
511 
510 
308 
173 
468 
570 
366 
119 
443 
557 
407 
141 
419 
542 
420 
169 
361 
628 
518 
151 
218 
528 
475 
285 
241 
494 
519 
265 
169 
545 
579 
312 
92 
471 
573 
403 
157 
421 
552 
390 
126 
361 
598 
499 
188 
243 
537 
477 
269 
284 
583 
548 
232 
132 
502 
538 
342 
141 
509 
562 
374 
123 
407 
617 
454 
85 
254 
542 
416 
185 
339 
576 
489 
167 
175 
535 
524 
322 
175 
516 
526 
389 
173 
471 
629 
415 
107 
403 
571 
468 
237 
414 
642 
471 
201 
200 
478 
469 
213 
141 
532 
497 
217 
46 
416 
575 
353 
138 
423 
579 
531 
308 
705 
1151 
1243 
1070 
1100 
1099 
712 
464 
467 
628 
559 
280 
207 
539 
547 
302 
196 
512 
619 
351 
188 
449 
499 
375 
156 
437 
642 
445 
175 
349 
561 
440 
180 
236 
611 
574 
306 
272 
606 
575 
396 
267 
549 
618 
400 
177 
560 
662 
539 
267 
313 
440 
357 
85 
299 
556 
593 
302 
381 
646 
636 
398 
286 
689 
754 
492 
294 
701 
777 
565 
313 
627 
735 
616 
341 
540 
700 
558 
270 
352 
663 
578 
256 
203 
518 
507 
222 
166 
536 
475 
201 
73 
464 
543 
315 
74 
362 
495 
337 
90 
319 
568 
441 
116 
257 
559 
488 
168 
177 
516 
691 
464 
381 
720 
635 
418 
239 
552 
632 
502 
204 
478 
642 
511 
274 
423 
582 
514 
259 
371 
559 
509 
283 
259 
537 
504 
278 
232 
583 
639 
329 
132 
472 
587 
428 
157 
521 
651 
397 
147 
428 
601 
517 
181 
326 
638 
553 
261 
255 
561 
547 
296 
168 
483 
579 
403 
244 
515 
564 
341 
150 
454 
597 
503 
196 
339 
611 
499 
159 
286 
557 
514 
250 
264 
546 
517 
255 
143 
485 
529 
413 
213 
490 
563 
340 
125 
353 
549 
429 
139 
343 
549 
402 
145 
273 
577 
517 
190 
198 
529 
569 
341 
257 
604 
512 
273 
140 
464 
556 
389 
130 
431 
627 
446 
186 
367 
565 
424 
201 
304 
588 
463 
214 
239 
533 
450 
210 
111 
448 
476 
299 
81 
381 
479 
363 
151 
444 
762 
900 
818 
1218 
1463 
1064 
434 
395 
683 
592 
288 
263 
561 
499 
229 
111 
490 
519 
340 
153 
466 
504 
321 
80 
436 
563 
435 
138 
339 
555 
482 
138 
248 
589 
501 
263 
257 
541 
588 
369 
220 
543 
590 
432 
173 
534 
610 
413 
162 
361 
456 
366 
129 
372 
544 
487 
299 
432 
664 
606 
349 
290 
641 
692 
434 
313 
634 
710 
513 
326 
658 
763 
537 
255 
578 
726 
614 
239 
415 
646 
503 
175 
242 
634 
464 
146 
133 
429 
461 
285 
86 
447 
596 
366 
131 
443 
481 
328 
105 
410 
517 
404 
133 
284 
548 
470 
120 
241 
565 
486 
185 
186 
552 
751 
548 
295 
580 
658 
467 
225 
532 
625 
361 
108 
413 
615 
468 
151 
325 
553 
455 
147 
274 
658 
522 
221 
160 
474 
524 
269 
185 
580 
498 
286 
88 
460 
554 
382 
58 
324 
531 
356 
123 
389 
588 
492 
133 
216 
526 
460 
202 
176 
533 
520 
219 
96 
481 
538 
370 
164 
408 
511 
363 
21 
354 
607 
462 
111 
281 
530 
489 
158 
247 
587 
592 
181 
157 
511 
549 
295 
117 
476 
474 
389 
141 
409 
570 
383 
117 
451 
612 
386 
142 
325 
591 
544 
234 
241 
518 
472 
189 
118 
524 
568 
362 
160 
415 
492 
312 
108 
410 
478 
287 
-3 
326 
604 
486 
209 
432 
757 
919 
841 
906 
1093 
731 
300 
291 
555 
488 
252 
190 
486 
484 
306 
115 
385 
505 
383 
75 
393 
499 
403 
139 
340 
599 
426 
182 
215 
566 
512 
213 
188 
596 
600 
287 
100 
477 
590 
378 
154 
472 
606 
437 
194 
433 
585 
438 
184 
390 
639 
597 
276 
299 
633 
412 
81 
129 
520 
542 
375 
269 
610 
698 
531 
326 
621 
801 
592 
237 
489 
737 
713 
332 
405 
594 
564 
348 
368 
638 
596 
267 
126 
482 
483 
290 
160 
524 
520 
306 
38 
348 
496 
394 
131 
347 
543 
350 
104 
259 
576 
509 
344 
411 
694 
630 
340 
263 
655 
561 
281 
106 
445 
568 
426 
237 
493 
571 
344 
52 
393 
598 
459 
193 
282 
563 
451 
131 
166 
557 
545 
287 
126 
514 
488 
219 
112 
480 
575 
304 
54 
382 
485 
296 
56 
290 
481 
399 
149 
261 
503 
433 
187 
170 
524 
483 
200 
153 
481 
487 
192 
7 
417 
533 
360 
129 
394 
497 
315 
65 
319 
531 
425 
171 
339 
608 
466 
167 
171 
493 
501 
245 
110 
476 
506 
225 
-36 
330 
472 
245 
23 
301 
361 
286 
124 
319 
353 
284 
88 
327 
739 
894 
771 
855 
1083 
819 
297 
101 
521 
525 
261 
-7 
341 
428 
245 
0 
329 
500 
317 
-27 
230 
433 
393 
109 
180 
464 
392 
155 
132 
471 
496 
215 
22 
403 
492 
199 
-16 
414 
495 
291 
57 
300 
499 
329 
6 
266 
496 
401 
153 
253 
546 
470 
164 
226 
533 
231 
27 
0 
438 
520 
292 
151 
423 
517 
388 
182 
476 
670 
555 
207 
467 
621 
456 
169 
295 
579 
494 
124 
135 
506 
454 
160 
23 
364 
382 
185 
10 
323 
407 
252 
13 
300 
405 
253 
-45 
214 
452 
342 
18 
137 
377 
337 
109 
171 
538 
655 
448 
217 
490 
504 
302 
115 
483 
532 
286 
11 
326 
485 
348 
40 
188 
502 
475 
137 
171 
459 
417 
184 
154 
423 
384 
145 
33 
343 
411 
198 
19 
343 
445 
265 
25 
268 
403 
296 
87 
231 
416 
321 
15 
105 
428 
317 
67 
88 
443 
398 
114 
9 
395 
391 
198 
21 
351 
431 
287 
58 
307 
466 
320 
58 
230 
477 
408 
121 
168 
492 
400 
153 
143 
503 
419 
216 
132 
461 
498 
321 
44 
381 
461 
224 
-48 
252 
450 
350 
36 
170 
390 
259 
-25 
126 
446 
321 
125 
182 
612 
879 
841 
850 
1221 
1001 
519 
167 
458 
480 
332 
6 
223 
403 
296 
5 
167 
446 
317 
40 
125 
398 
333 
158 
121 
386 
392 
243 
131 
386 
412 
165 
38 
392 
429 
289 
24 
286 
462 
356 
73 
241 
474 
377 
98 
185 
494 
433 
204 
149 
543 
502 
71 
-119 
256 
377 
288 
126 
382 
441 
380 
145 
391 
570 
470 
177 
364 
650 
531 
294 
384 
600 
538 
323 
247 
530 
470 
253 
108 
438 
490 
234 
-21 
308 
423 
348 
84 
257 
383 
201 
-65 
194 
439 
341 
25 
86 
404 
357 
86 
34 
402 
410 
167 
1 
331 
370 
192 
-5 
345 
544 
573 
251 
380 
564 
360 
48 
243 
533 
417 
134 
163 
491 
449 
159 
66 
397 
376 
187 
43 
393 
508 
265 
-41 
297 
461 
238 
-35 
217 
517 
344 
34 
176 
447 
338 
47 
137 
454 
417 
160 
68 
459 
450 
174 
-5 
367 
422 
245 
-2 
282 
390 
240 
-15 
255 
461 
278 
31 
174 
452 
406 
109 
117 
357 
288 
73 
65 
407 
389 
138 
-12 
404 
473 
180 
-24 
268 
482 
333 
-7 
220 
436 
356 
52 
184 
420 
353 
111 
132 
371 
349 
98 
38 
355 
388 
133 
-69 
358 
377 
165 
-62 
294 
425 
214 
-61 
216 
451 
331 
73 
232 
696 
896 
844 
1018 
1179 
882 
387 
193 
473 
421 
180 
9 
320 
414 
222 
-6 
280 
365 
218 
-39 
209 
430 
327 
-39 
64 
332 
312 
120 
120 
413 
357 
54 
-24 
399 
415 
203 
-26 
306 
396 
231 
46 
300 
369 
237 
15 
218 
430 
332 
3 
151 
323 
75 
-158 
-107 
215 
195 
19 
-42 
182 
162 
-57 
-264 
23 
8 
-271 
-651 
-401 
-393 
-685 
-987 
-796 
-562 
-507 
-146 
570 
554 
551 
395 
535 
855 
701 
308 
252 
626 
565 
302 
145 
600 
644 
367 
110 
433 
593 
469 
117 
386 
628 
495 
170 
227 
511 
477 
165 
92 
360 
425 
210 
82 
453 
594 
438 
372 
777 
811 
537 
257 
603 
762 
575 
290 
463 
735 
594 
253 
305 
540 
475 
239 
196 
424 
358 
126 
-4 
334 
416 
276 
92 
381 
557 
422 
244 
603 
786 
639 
315 
491 
705 
645 
246 
252 
563 
454 
107 
31 
271 
146 
-128 
-277 
15 
-32 
-267 
-598 
-260 
-140 
-354 
-560 
-252 
45 
-69 
-308 
-34 
240 
190 
-92 
10 
364 
308 
7 
5 
339 
336 
130 
-24 
434 
497 
198 
-11 
341 
518 
415 
109 
366 
680 
564 
251 
479 
719 
630 
385 
403 
706 
648 
392 
403 
722 
702 
444 
302 
634 
658 
450 
263 
653 
824 
750 
650 
1125 
1311 
1090 
531 
535 
696 
486 
222 
354 
612 
538 
283 
204 
574 
566 
332 
252 
634 
673 
385 
176 
556 
628 
477 
210 
491 
610 
389 
27 
230 
518 
373 
44 
153 
519 
430 
147 
144 
466 
431 
179 
80 
403 
433 
156 
32 
392 
421 
281 
45 
324 
494 
337 
-187 
72 
372 
314 
30 
128 
444 
441 
254 
125 
474 
480 
252 
141 
492 
550 
353 
94 
439 
509 
308 
5 
262 
449 
323 
-13 
61 
328 
247 
-94 
-22 
347 
273 
-63 
-124 
292 
330 
29 
-137 
246 
378 
147 
-94 
222 
342 
176 
-127 
168 
404 
380 
217 
281 
515 
344 
-24 
76 
414 
378 
83 
36 
330 
292 
51 
-8 
353 
339 
93 
-195 
113 
299 
170 
-106 
114 
328 
152 
-164 
25 
317 
254 
-43 
-54 
265 
221 
-42 
-126 
260 
282 
89 
-58 
264 
346 
107 
-148 
217 
349 
181 
-74 
191 
432 
325 
49 
177 
463 
454 
165 
178 
596 
572 
208 
55 
399 
384 
190 
3 
254 
248 
72 
-151 
158 
278 
130 
-105 
157 
376 
210 
-73 
79 
389 
336 
54 
74 
311 
296 
37 
-90 
246 
283 
36 
-74 
311 
350 
148 
-100 
203 
370 
184 
-129 
182 
514 
521 
419 
765 
1144 
1111 
577 
299 
445 
392 
105 
16 
299 
308 
154 
-27 
321 
347 
188 
-56 
278 
420 
231 
-8 
259 
398 
302 
35 
186 
442 
368 
102 
141 
517 
452 
164 
56 
436 
499 
253 
64 
422 
503 
352 
112 
370 
505 
343 
30 
236 
534 
531 
158 
57 
173 
149 
-60 
-10 
366 
370 
142 
19 
391 
433 
200 
32 
367 
488 
358 
153 
444 
596 
387 
62 
268 
505 
414 
99 
231 
458 
409 
86 
15 
355 
384 
114 
19 
375 
403 
151 
-30 
375 
474 
321 
27 
249 
385 
197 
-78 
164 
441 
306 
-27 
70 
340 
226 
-31 
28 
333 
231 
-7 
96 
514 
415 
147 
-68 
211 
265 
116 
-142 
97 
174 
55 
-250 
-57 
175 
94 
-215 
-145 
111 
44 
-238 
-243 
133 
96 
-119 
-228 
95 
85 
-108 
-252 
113 
285 
130 
-135 
185 
363 
280 
18 
286 
553 
494 
224 
357 
731 
718 
427 
367 
737 
678 
499 
408 
664 
693 
529 
294 
624 
755 
664 
414 
636 
758 
585 
306 
486 
696 
577 
252 
266 
532 
459 
176 
46 
363 
326 
43 
-82 
324 
434 
177 
5 
381 
455 
233 
-14 
256 
421 
337 
24 
161 
381 
333 
31 
107 
440 
427 
99 
52 
382 
390 
205 
206 
697 
963 
977 
878 
1076 
881 
488 
183 
374 
499 
403 
84 
209 
476 
364 
59 
69 
392 
305 
1 
0 
343 
297 
58 
-69 
268 
304 
114 
-63 
277 
364 
103 
-153 
79 
323 
168 
-111 
49 
314 
249 
-47 
52 
322 
278 
37 
-79 
275 
302 
111 
-79 
106 
101 
-71 
-260 
92 
196 
60 
-71 
201 
344 
265 
2 
115 
365 
356 
163 
197 
482 
448 
257 
271 
548 
508 
290 
132 
428 
515 
331 
90 
372 
467 
258 
-19 
177 
279 
179 
-119 
21 
251 
184 
-204 
-194 
212 
134 
-113 
-227 
102 
184 
1 
-101 
271 
338 
205 
10 
340 
742 
741 
399 
615 
801 
730 
417 
533 
778 
720 
460 
425 
679 
628 
402 
284 
570 
681 
411 
189 
457 
507 
327 
105 
356 
492 
329 
38 
177 
379 
313 
51 
221 
456 
344 
61 
99 
410 
323 
128 
51 
358 
424 
170 
-52 
252 
282 
195 
-23 
227 
359 
220 
-51 
153 
352 
221 
-88 
17 
337 
316 
-18 
-23 
303 
230 
19 
-44 
251 
337 
39 
-183 
142 
301 
120 
-146 
59 
221 
84 
-159 
106 
298 
134 
-187 
-42 
238 
155 
-97 
-65 
288 
362 
110 
-132 
180 
235 
-51 
-247 
74 
187 
3 
-286 
31 
158 
13 
-250 
-94 
88 
-33 
-312 
-171 
141 
71 
-163 
-161 
171 
114 
-164 
-216 
200 
339 
211 
205 
802 
1070 
939 
462 
453 
436 
254 
-30 
44 
293 
227 
-115 
49 
302 
202 
5 
-2 
301 
301 
31 
-135 
278 
329 
89 
-100 
162 
240 
128 
-94 
123 
279 
182 
-105 
93 
295 
228 
-41 
53 
379 
323 
14 
-26 
323 
383 
112 
25 
449 
468 
93 
-155 
247 
369 
236 
-82 
193 
418 
363 
50 
267 
593 
523 
270 
335 
618 
541 
237 
239 
615 
660 
449 
293 
611 
717 
458 
198 
445 
511 
298 
-1 
228 
355 
247 
-6 
54 
260 
167 
-97 
-37 
242 
159 
-167 
-193 
174 
132 
-172 
-284 
47 
84 
-135 
-456 
-190 
-68 
-241 
-465 
-223 
-49 
-218 
-598 
-371 
-61 
23 
-278 
-257 
4 
-60 
-385 
-433 
-29 
-95 
-343 
-483 
-175 
-107 
-270 
-472 
-221 
-85 
-200 
-488 
-234 
-83 
-171 
-460 
-322 
-125 
-283 
-578 
-565 
-248 
-256 
-557 
-598 
-252 
-202 
-477 
-672 
-195 
-143 
-334 
-537 
-136 
60 
-113 
-391 
-45 
146 
23 
-292 
-80 
307 
142 
-202 
-131 
269 
268 
43 
-40 
318 
357 
139 
-35 
340 
414 
189 
-21 
221 
342 
136 
-115 
169 
403 
238 
-73 
116 
400 
316 
-10 
95 
500 
403 
157 
88 
487 
527 
310 
75 
429 
550 
323 
68 
376 
497 
343 
66 
408 
656 
491 
148 
278 
517 
408 
144 
189 
496 
496 
351 
332 
742 
925 
894 
810 
1087 
855 
404 
82 
433 
562 
322 
-14 
229 
476 
335 
110 
186 
438 
340 
31 
95 
532 
420 
117 
25 
345 
368 
127 
-8 
302 
334 
189 
13 
325 
420 
227 
-112 
175 
373 
220 
-65 
107 
371 
296 
-6 
-3 
359 
349 
51 
-8 
386 
359 
137 
-58 
121 
113 
56 
-160 
173 
402 
243 
-80 
245 
516 
359 
78 
270 
583 
463 
199 
267 
562 
542 
265 
173 
513 
497 
320 
143 
473 
560 
364 
127 
377 
500 
372 
88 
334 
583 
469 
168 
280 
539 
472 
253 
238 
532 
481 
145 
22 
502 
730 
575 
267 
502 
575 
297 
-1 
283 
406 
216 
-117 
41 
264 
194 
-99 
46 
334 
223 
-50 
-98 
208 
174 
4 
-60 
231 
289 
26 
-288 
76 
303 
82 
-218 
98 
336 
162 
-184 
79 
372 
252 
-35 
135 
437 
346 
45 
67 
421 
416 
190 
87 
432 
492 
270 
64 
350 
447 
325 
88 
341 
524 
404 
127 
313 
532 
433 
122 
188 
481 
455 
89 
23 
399 
402 
154 
30 
401 
438 
219 
-22 
273 
418 
215 
-82 
140 
329 
216 
-113 
69 
343 
266 
-35 
18 
341 
320 
69 
89 
619 
890 
792 
717 
888 
643 
211 
-77 
228 
347 
228 
-111 
124 
346 
246 
-116 
0 
322 
253 
-70 
13 
334 
258 
-4 
-32 
330 
328 
91 
-63 
309 
376 
158 
-99 
198 
391 
260 
-64 
149 
381 
250 
-29 
95 
420 
321 
28 
123 
461 
397 
104 
13 
392 
401 
166 
-218 
189 
318 
84 
-142 
209 
352 
237 
37 
281 
506 
390 
68 
206 
519 
418 
105 
160 
489 
409 
165 
115 
436 
389 
91 
-106 
243 
350 
179 
-102 
207 
317 
178 
-73 
133 
378 
236 
-111 
14 
344 
321 
-29 
6 
366 
293 
8 
-44 
305 
337 
177 
1 
320 
494 
406 
88 
385 
516 
332 
-39 
148 
418 
373 
-60 
25 
380 
307 
20 
82 
376 
282 
31 
-49 
307 
332 
115 
-56 
297 
359 
168 
-75 
230 
445 
168 
-141 
98 
326 
182 
-99 
95 
436 
336 
-19 
-11 
369 
354 
98 
17 
340 
324 
109 
-87 
293 
400 
205 
-50 
207 
322 
190 
-87 
180 
422 
335 
-3 
77 
358 
315 
61 
59 
400 
420 
192 
22 
350 
365 
191 
-1 
323 
383 
259 
40 
256 
345 
174 
-116 
93 
352 
215 
-57 
40 
328 
227 
-32 
-42 
324 
237 
-26 
-84 
370 
522 
556 
568 
1030 
1156 
755 
183 
269 
446 
286 
-6 
130 
343 
245 
-60 
16 
356 
257 
-54 
-65 
296 
257 
-9 
-60 
286 
294 
67 
-94 
294 
292 
102 
-140 
135 
311 
186 
-58 
111 
372 
296 
-54 
-8 
344 
342 
116 
32 
338 
354 
149 
-10 
376 
473 
188 
-245 
31 
294 
220 
-78 
207 
441 
342 
1 
179 
459 
344 
83 
136 
469 
452 
173 
100 
485 
522 
247 
79 
445 
469 
293 
40 
265 
350 
221 
-88 
119 
369 
245 
-60 
48 
370 
258 
-47 
8 
299 
277 
30 
-70 
305 
327 
100 
-63 
269 
318 
136 
-131 
156 
366 
254 
-56 
155 
367 
233 
-94 
181 
646 
414 
79 
127 
453 
364 
45 
0 
380 
384 
208 
0 
272 
336 
149 
-52 
245 
398 
263 
-130 
74 
324 
249 
-83 
58 
348 
266 
-67 
-40 
362 
257 
30 
-29 
287 
253 
44 
-109 
253 
338 
170 
-26 
208 
381 
225 
-114 
111 
356 
275 
9 
111 
375 
317 
40 
0 
359 
309 
92 
23 
447 
443 
201 
3 
394 
498 
304 
3 
309 
490 
298 
-52 
163 
440 
309 
-2 
130 
441 
372 
65 
30 
364 
332 
109 
-30 
331 
461 
281 
249 
820 
1020 
813 
358 
409 
427 
257 
-53 
135 
331 
253 
-50 
80 
337 
276 
-36 
-111 
271 
275 
37 
-46 
294 
342 
101 
-105 
250 
362 
238 
-52 
149 
240 
111 
-104 
123 
275 
190 
-80 
-31 
261 
175 
-57 
-83 
241 
240 
40 
-27 
280 
352 
125 
-122 
250 
364 
100 
-340 
2 
228 
110 
-104 
42 
363 
324 
-11 
80 
393 
343 
130 
71 
408 
382 
135 
11 
370 
395 
157 
-59 
198 
222 
40 
-180 
72 
270 
97 
-294 
-87 
171 
105 
-151 
-76 
245 
169 
-121 
-201 
150 
83 
-108 
-168 
200 
224 
-8 
-258 
73 
105 
-90 
-274 
237 
399 
190 
-103 
80 
396 
236 
-96 
-144 
222 
232 
-29 
-90 
242 
285 
18 
-199 
161 
258 
121 
-133 
163 
244 
72 
-172 
42 
188 
149 
-92 
5 
274 
128 
-206 
-148 
189 
186 
-95 
-159 
219 
234 
-45 
-239 
101 
168 
-19 
-228 
88 
185 
50 
-229 
-12 
196 
41 
-272 
-136 
135 
52 
-204 
-190 
103 
89 
-151 
-272 
110 
153 
-112 
-271 
105 
202 
35 
-188 
64 
232 
13 
-260 
14 
204 
56 
-246 
-98 
146 
56 
-196 
-193 
134 
51 
-239 
-345 
77 
157 
-161 
-336 
60 
242 
63 
-109 
349 
719 
705 
428 
445 
458 
168 
-238 
-158 
192 
97 
-194 
-252 
85 
108 
-155 
-286 
72 
94 
-114 
-300 
36 
67 
-93 
-338 
-69 
139 
37 
-252 
-135 
91 
-7 
-331 
-257 
60 
-18 
-236 
-220 
110 
101 
-203 
-356 
0 
68 
-89 
-347 
-21 
118 
-83 
-393 
-327 
-230 
-298 
-526 
-314 
-21 
-34 
-346 
-263 
56 
22 
-218 
-213 
53 
42 
-152 
-260 
88 
122 
-92 
-333 
-4 
80 
-108 
-402 
-131 
-10 
-206 
-465 
-240 
24 
-117 
-445 
-388 
-49 
-102 
-445 
-493 
-93 
-94 
-362 
-504 
-146 
-79 
-376 
-604 
-240 
-109 
-303 
-570 
-340 
-110 
-224 
-569 
-390 
-64 
-138 
-492 
-476 
52 
73 
-254 
-364 
-21 
-18 
-325 
-503 
-161 
-94 
-220 
-486 
-229 
-79 
-268 
-582 
-320 
-44 
-202 
-587 
-412 
-136 
-245 
-549 
-540 
-206 
-212 
-472 
-540 
-206 
-242 
-481 
-602 
-256 
-218 
-415 
-603 
-283 
-177 
-348 
-648 
-438 
-204 
-298 
-569 
-465 
-205 
-283 
-600 
-556 
-262 
-280 
-544 
-688 
-320 
-296 
-574 
-751 
-427 
-297 
-522 
-728 
-437 
-253 
-387 
-743 
-553 
-324 
-406 
-659 
-521 
-255 
-332 
-662 
-681 
-340 
-326 
-561 
-663 
-275 
-289 
-512 
-759 
-405 
-337 
-607 
-917 
-525 
-308 
-479 
-803 
-598 
-364 
-522 
-760 
-642 
-358 
-446 
-742 
-713 
-362 
-304 
-444 
-359 
238 
405 
83 
-363 
-247 
-268 
-454 
-725 
-541 
-428 
-487 
-771 
-597 
-370 
-473 
-800 
-680 
-385 
-446 
-748 
-763 
-395 
-417 
-685 
-817 
-453 
-425 
-606 
-800 
-503 
-422 
-621 
-856 
-581 
-329 
-484 
-776 
-606 
-406 
-484 
-787 
-683 
-412 
-462 
-745 
-730 
-375 
-388 
-918 
-1067 
-634 
-494 
-638 
-870 
-498 
-344 
-501 
-759 
-484 
-291 
-414 
-720 
-490 
-224 
-325 
-619 
-556 
-264 
-288 
-587 
-580 
-249 
-311 
-606 
-724 
-359 
-322 
-625 
-853 
-503 
-366 
-554 
-828 
-528 
-396 
-483 
-785 
-673 
-387 
-479 
-780 
-733 
-410 
-396 
-700 
-769 
-405 
-382 
-626 
-747 
-384 
-296 
-500 
-736 
-354 
-217 
-410 
-722 
-223 
170 
-84 
-514 
-396 
-137 
-229 
-515 
-462 
-168 
-248 
-527 
-605 
-258 
-239 
-563 
-730 
-299 
-288 
-492 
-838 
-458 
-307 
-475 
-767 
-470 
-339 
-532 
-716 
-471 
-219 
-320 
-586 
-545 
-216 
-260 
-647 
-704 
-355 
-298 
-561 
-781 
-409 
-322 
-468 
-663 
-381 
-243 
-434 
-766 
-541 
-331 
-445 
-774 
-613 
-292 
-397 
-679 
-687 
-383 
-475 
-714 
-847 
-579 
-602 
-770 
-886 
-582 
-519 
-675 
-890 
-656 
-571 
-697 
-871 
-620 
-411 
-539 
-839 
-654 
-402 
-459 
-690 
-653 
-323 
-345 
-568 
-639 
-289 
-309 
-500 
-677 
-419 
-298 
-471 
-782 
-552 
-339 
-459 
-780 
-574 
-368 
-503 
-805 
-684 
-428 
-568 
-837 
-793 
-491 
-513 
-779 
-898 
-544 
-546 
-732 
-860 
-524 
-415 
-538 
-686 
-237 
155 
156 
27 
45 
-73 
-348 
-682 
-518 
-334 
-485 
-752 
-710 
-301 
-353 
-609 
-659 
-403 
-404 
-560 
-715 
-392 
-391 
-549 
-744 
-503 
-350 
-479 
-693 
-590 
-572 
-616 
-859 
-766 
-437 
-500 
-703 
-660 
-345 
-402 
-669 
-732 
-365 
-356 
-533 
-712 
-391 
-350 
-508 
-695 
-449 
-324 
-411 
-657 
-428 
-207 
-361 
-673 
-550 
-238 
-315 
-555 
-543 
-196 
-256 
-479 
-588 
-260 
-155 
-311 
-500 
-247 
-162 
-277 
-552 
-331 
-221 
-347 
-601 
-463 
-245 
-379 
-661 
-628 
-346 
-300 
-591 
-685 
-413 
-361 
-594 
-717 
-426 
-368 
-556 
-752 
-408 
-286 
-420 
-691 
-521 
-400 
-446 
-695 
-514 
-310 
-440 
-665 
-410 
-99 
-235 
-482 
-584 
-366 
-344 
-465 
-624 
-398 
-357 
-496 
-695 
-493 
-373 
-460 
-704 
-458 
-329 
-402 
-689 
-634 
-452 
-476 
-700 
-635 
-362 
-381 
-638 
-734 
-464 
-396 
-574 
-720 
-475 
-410 
-546 
-711 
-433 
-361 
-504 
-725 
-601 
-402 
-460 
-720 
-604 
-279 
-388 
-655 
-592 
-330 
-402 
-608 
-618 
-308 
-312 
-531 
-610 
-302 
-329 
-538 
-738 
-523 
-336 
-408 
-557 
-449 
-337 
-382 
-537 
-516 
-384 
-312 
-460 
-483 
-297 
-310 
-443 
-517 
-371 
-323 
-399 
-567 
-486 
-425 
-435 
-485 
-414 
-408 
-476 
-611 
-513 
-402 
-465 
-601 
-518 
-301 
-220 
-319 
-208 
203 
345 
208 
-105 
-242 
-299 
-362 
-562 
-452 
-403 
-488 
-633 
-560 
-443 
-488 
-637 
-546 
-424 
-472 
-542 
-572 
-477 
-465 
-541 
-552 
-378 
-419 
-532 
-567 
-453 
-437 
-507 
-622 
-447 
-380 
-435 
-555 
-482 
-349 
-363 
-496 
-474 
-403 
-482 
-618 
-591 
-401 
-399 
-477 
-581 
-682 
-569 
-600 
-657 
-561 
-500 
-491 
-587 
-465 
-377 
-467 
-635 
-510 
-284 
-324 
-455 
-439 
-326 
-353 
-447 
-460 
-339 
-343 
-508 
-610 
-433 
-403 
-520 
-642 
-505 
-442 
-513 
-627 
-512 
-487 
-522 
-655 
-536 
-426 
-490 
-619 
-576 
-430 
-469 
-612 
-612 
-477 
-505 
-579 
-671 
-510 
-538 
-640 
-687 
-542 
-484 
-542 
-672 
-277 
-154 
-347 
-498 
-427 
-385 
-405 
-552 
-496 
-328 
-299 
-460 
-446 
-242 
-295 
-459 
-471 
-298 
-191 
-306 
-450 
-242 
-231 
-334 
-452 
-253 
-150 
-293 
-468 
-364 
-254 
-303 
-455 
-444 
-310 
-349 
-531 
-571 
-366 
-388 
-536 
-614 
-516 
-458 
-538 
-645 
-534 
-541 
-609 
-702 
-573 
-492 
-541 
-608 
-518 
-424 
-532 
-673 
-622 
-469 
-543 
-658 
-665 
-485 
-436 
-530 
-603 
-464 
-458 
-525 
-569 
-371 
-341 
-470 
-655 
-526 
-449 
-528 
-662 
-519 
-403 
-520 
-629 
-624 
-466 
-448 
-607 
-617 
-493 
-466 
-583 
-686 
-511 
-515 
-618 
-645 
-523 
-508 
-602 
-710 
-462 
-379 
-506 
-736 
-581 
-442 
-520 
-663 
-477 
-247 
-223 
-204 
34 
360 
351 
-46 
-381 
-320 
-317 
-474 
-660 
-385 
-329 
-511 
-734 
-500 
-335 
-512 
-703 
-477 
-305 
-412 
-640 
-588 
-406 
-460 
-718 
-661 
-377 
-432 
-673 
-691 
-385 
-418 
-586 
-717 
-451 
-391 
-539 
-718 
-484 
-326 
-451 
-671 
-454 
-270 
-364 
-653 
-517 
-306 
-572 
-857 
-713 
-467 
-480 
-624 
-692 
-376 
-350 
-581 
-669 
-327 
-270 
-448 
-596 
-369 
-194 
-297 
-568 
-344 
-185 
-279 
-522 
-380 
-195 
-294 
-540 
-536 
-304 
-293 
-522 
-673 
-390 
-383 
-555 
-652 
-393 
-371 
-505 
-711 
-494 
-378 
-506 
-734 
-499 
-343 
-422 
-639 
-542 
-344 
-372 
-616 
-640 
-414 
-391 
-612 
-674 
-238 
-76 
-380 
-583 
-311 
-252 
-451 
-694 
-397 
-288 
-486 
-709 
-508 
-352 
-436 
-636 
-424 
-314 
-364 
-661 
-636 
-298 
-341 
-708 
-773 
-455 
-431 
-587 
-741 
-419 
-374 
-587 
-780 
-375 
-252 
-398 
-682 
-443 
-235 
-353 
-668 
-549 
-284 
-340 
-638 
-623 
-320 
-362 
-545 
-631 
-308 
-238 
-466 
-638 
-342 
-249 
-414 
-633 
-331 
-210 
-385 
-673 
-440 
-267 
-373 
-593 
-469 
-180 
-292 
-591 
-539 
-216 
-284 
-574 
-622 
-256 
-259 
-507 
-686 
-403 
-342 
-474 
-679 
-388 
-280 
-454 
-652 
-498 
-346 
-394 
-664 
-535 
-241 
-306 
-630 
-624 
-230 
-260 
-557 
-686 
-305 
-258 
-494 
-667 
-304 
-270 
-492 
-767 
-467 
-269 
-427 
-684 
-520 
-273 
-365 
-712 
-579 
-298 
-355 
-600 
-519 
-44 
171 
166 
182 
400 
204 
-268 
-537 
-231 
-161 
-344 
-633 
-379 
-268 
-400 
-656 
-419 
-200 
-344 
-635 
-515 
-283 
-345 
-563 
-568 
-262 
-281 
-488 
-636 
-284 
-269 
-430 
-597 
-289 
-266 
-354 
-633 
-357 
-120 
-283 
-599 
-386 
-123 
-256 
-514 
-433 
-166 
-243 
-435 
-438 
-217 
-435 
-675 
-722 
-301 
-234 
-418 
-661 
-361 
-202 
-340 
-561 
-254 
-80 
-221 
-550 
-381 
-107 
-117 
-338 
-257 
-36 
-159 
-409 
-398 
-143 
-193 
-446 
-548 
-222 
-200 
-414 
-646 
-333 
-209 
-396 
-663 
-410 
-276 
-438 
-698 
-478 
-272 
-425 
-656 
-541 
-261 
-292 
-454 
-520 
-21 
86 
-270 
-448 
-120 
-68 
-286 
-502 
-197 
-109 
-297 
-569 
-279 
-121 
-318 
-609 
-309 
-61 
-144 
-468 
-407 
-166 
-209 
-460 
-498 
-203 
-212 
-435 
-567 
-216 
-184 
-387 
-603 
-302 
-154 
-292 
-580 
-338 
-146 
-261 
-552 
-403 
-160 
-257 
-563 
-496 
-165 
-156 
-521 
-591 
-208 
-172 
-465 
-542 
-188 
-175 
-375 
-604 
-296 
-197 
-339 
-530 
-319 
-167 
-292 
-611 
-426 
-157 
-228 
-514 
-442 
-182 
-242 
-488 
-493 
-128 
-135 
-401 
-556 
-221 
-211 
-485 
-582 
-223 
-161 
-313 
-569 
-292 
-131 
-275 
-522 
-339 
-117 
-232 
-485 
-358 
-33 
-122 
-430 
-469 
-166 
-211 
-456 
-599 
-233 
-191 
-437 
-690 
-359 
-165 
-342 
-581 
-259 
-134 
-266 
-558 
-241 
98 
-15 
-273 
-50 
509 
594 
230 
-36 
108 
-7 
-241 
-454 
-157 
-97 
-289 
-495 
-177 
-111 
-285 
-570 
-317 
-102 
-215 
-559 
-449 
-138 
-123 
-452 
-395 
-116 
-185 
-425 
-445 
-82 
-98 
-392 
-495 
-92 
-109 
-350 
-525 
-183 
-69 
-252 
-455 
-219 
-76 
-198 
-442 
-232 
-51 
-185 
-393 
-297 
-56 
-339 
-654 
-586 
-155 
-162 
-336 
-403 
-99 
-79 
-200 
-368 
-86 
54 
-105 
-408 
-198 
24 
-50 
-238 
-81 
43 
-98 
-344 
-309 
30 
-69 
-379 
-434 
-39 
-81 
-326 
-510 
-169 
-99 
-327 
-566 
-264 
-123 
-269 
-563 
-279 
-91 
-224 
-575 
-411 
-143 
-130 
-183 
-142 
95 
39 
-191 
-302 
7 
-45 
-316 
-489 
-150 
-64 
-260 
-484 
-193 
-48 
-228 
-538 
-331 
-146 
-256 
-552 
-431 
-144 
-227 
-577 
-523 
-210 
-208 
-464 
-583 
-267 
-280 
-450 
-626 
-303 
-250 
-455 
-656 
-361 
-216 
-340 
-581 
-318 
-138 
-286 
-489 
-306 
-37 
-95 
-356 
-345 
2 
-20 
-294 
-365 
44 
113 
-111 
-305 
-62 
69 
-81 
-341 
-6 
101 
-102 
-402 
-187 
-17 
-187 
-429 
-317 
-94 
-279 
-577 
-493 
-158 
-189 
-452 
-488 
-150 
-151 
-345 
-466 
-150 
-62 
-244 
-422 
-94 
85 
53 
-31 
363 
639 
325 
-263 
-342 
-121 
-142 
-404 
-370 
-41 
-139 
-412 
-482 
-176 
-149 
-379 
-525 
-187 
-120 
-296 
-547 
-239 
-40 
-213 
-535 
-353 
25 
-145 
-487 
-341 
-53 
-117 
-378 
-347 
-45 
-113 
-377 
-477 
-116 
-40 
-260 
-459 
-152 
-44 
-201 
-443 
-134 
95 
-39 
-344 
-175 
-31 
-120 
-301 
-227 
-196 
-247 
-434 
-381 
-88 
-92 
-291 
-324 
5 
23 
-135 
-288 
19 
78 
-93 
-346 
-67 
83 
-90 
-392 
-193 
4 
-119 
-416 
-321 
-51 
-146 
-407 
-395 
-50 
-66 
-331 
-380 
-82 
-77 
-292 
-402 
-43 
44 
-138 
-387 
-103 
127 
123 
-145 
20 
118 
-68 
-336 
-251 
22 
-99 
-369 
-293 
13 
4 
-238 
-334 
-43 
-17 
-215 
-397 
-103 
-19 
-184 
-435 
-186 
-6 
-121 
-425 
-224 
-9 
-101 
-368 
-233 
28 
-37 
-328 
-311 
-23 
-52 
-286 
-375 
-4 
2 
-207 
-371 
-85 
-2 
-189 
-412 
-103 
40 
-61 
-314 
-166 
87 
-45 
-357 
-223 
74 
0 
-296 
-298 
36 
-27 
-298 
-409 
-97 
-83 
-224 
-305 
12 
-20 
-249 
-504 
-214 
79 
-38 
-343 
-31 
329 
463 
340 
445 
546 
157 
-320 
-355 
-44 
-67 
-256 
-316 
-33 
-40 
-253 
-494 
-169 
-41 
-183 
-473 
-209 
-99 
-213 
-452 
-227 
-6 
-186 
-459 
-311 
-82 
-38 
-275 
-347 
-40 
-54 
-233 
-340 
-27 
16 
-206 
-349 
-15 
-4 
-179 
-414 
-118 
12 
-107 
-371 
-144 
134 
-57 
-573 
-483 
-97 
-100 
-303 
-326 
-17 
-61 
-314 
-373 
58 
157 
-105 
-335 
42 
136 
-3 
-239 
22 
162 
10 
-274 
-165 
-9 
-122 
-395 
-280 
-31 
-164 
-470 
-472 
-159 
-130 
-286 
-423 
-56 
-23 
-280 
-432 
-52 
-23 
-240 
-549 
-274 
-84 
-163 
-406 
-32 
185 
-10 
-292 
-157 
107 
-21 
-307 
-331 
-9 
23 
-251 
-422 
-55 
-51 
-263 
-489 
-109 
23 
-157 
-387 
-130 
-23 
-169 
-425 
-236 
1 
-93 
-370 
-316 
-43 
-152 
-354 
-346 
-50 
-45 
-287 
-451 
-102 
-42 
-279 
-405 
-77 
11 
-143 
-394 
-149 
40 
-100 
-377 
-152 
68 
-43 
-292 
-180 
111 
20 
-290 
-332 
-26 
-59 
-325 
-402 
-83 
-80 
-253 
-476 
-183 
-50 
-221 
-423 
-160 
-55 
-189 
-438 
-269 
31 
94 
23 
350 
809 
781 
319 
12 
193 
114 
-229 
-350 
30 
53 
-188 
-337 
-62 
13 
-184 
-428 
-157 
53 
-113 
-377 
-155 
22 
-129 
-386 
-208 
85 
-50 
-323 
-325 
68 
59 
-229 
-432 
-103 
-6 
-182 
-418 
-68 
60 
-126 
-397 
-137 
91 
1 
-306 
-167 
67 
-18 
-295 
-295 
-234 
-207 
-427 
-468 
-55 
2 
-288 
-371 
42 
76 
-125 
-301 
0 
130 
-36 
-314 
-36 
264 
49 
-305 
-88 
119 
-12 
-276 
-229 
83 
29 
-267 
-340 
-50 
-72 
-335 
-446 
-94 
-91 
-297 
-506 
-210 
-80 
-225 
-503 
-289 
-91 
-206 
-518 
-409 
-138 
-193 
-451 
-408 
-86 
-118 
-397 
-278 
188 
129 
-158 
-362 
-62 
12 
-96 
-301 
4 
124 
0 
-225 
-31 
121 
-38 
-338 
-166 
96 
-11 
-317 
-287 
-22 
-80 
-371 
-436 
-49 
-35 
-277 
-382 
-73 
-32 
-171 
-390 
-79 
27 
-175 
-457 
-235 
-55 
-151 
-454 
-312 
-28 
-105 
-356 
-289 
-20 
-70 
-332 
-388 
-22 
-57 
-251 
-320 
-12 
54 
-179 
-405 
-46 
40 
-152 
-369 
-113 
94 
-92 
-378 
-227 
33 
-53 
-381 
-319 
-59 
-105 
-282 
-388 
-53 
-29 
-266 
-407 
-97 
-14 
-137 
-284 
191 
536 
597 
507 
697 
594 
199 
-217 
-126 
89 
-14 
-308 
-294 
9 
-25 
-300 
-373 
-53 
-49 
-260 
-405 
-96 
-82 
-243 
-455 
-94 
49 
-195 
-420 
-158 
-12 
-144 
-379 
-221 
39 
-54 
-330 
-317 
-19 
-17 
-254 
-373 
-25 
-59 
-279 
-357 
31 
67 
-153 
-407 
-165 
-211 
-366 
-509 
-258 
-10 
-138 
-389 
-248 
28 
-24 
-284 
-196 
156 
127 
-138 
-229 
135 
182 
6 
-156 
106 
95 
-80 
-303 
-40 
45 
-108 
-394 
-188 
38 
-92 
-381 
-297 
-43 
-87 
-364 
-347 
-51 
-70 
-362 
-454 
-98 
-49 
-225 
-427 
-158 
11 
-210 
-488 
-164 
24 
-125 
-438 
-263 
-61 
39 
-40 
3 
154 
38 
-218 
-220 
117 
68 
-155 
-230 
81 
88 
-144 
-345 
-69 
0 
-104 
-342 
-81 
11 
-169 
-364 
-151 
33 
-78 
-359 
-260 
-4 
-94 
-367 
-269 
-16 
-87 
-299 
-326 
16 
-32 
-239 
-394 
-63 
111 
-85 
-489 
-196 
-1 
-134 
-387 
-154 
-7 
-115 
-376 
-309 
-3 
-28 
-265 
-338 
4 
29 
-264 
-358 
-1 
-1 
-258 
-450 
-92 
34 
-143 
-457 
-196 
1 
-136 
-398 
-200 
-2 
-105 
-411 
-308 
25 
-28 
-321 
-376 
-88 
-119 
-332 
-476 
-144 
-36 
-298 
-572 
-216 
-27 
-180 
-427 
-128 
-16 
-195 
-466 
-244 
35 
-35 
-350 
-236 
116 
26 
-170 
-38 
421 
526 
358 
222 
544 
557 
237 
-37 
232 
243 
56 
-204 
-4 
138 
-112 
-454 
-227 
14 
-120 
-441 
-328 
-18 
-54 
-265 
-210 
224 
396 
404 
412 
668 
331 
-164 
-449 
-161 
-74 
-232 
-536 
-283 
-164 
-328 
-614 
-389 
-129 
-201 
-500 
-419 
-150 
-172 
-453 
-473 
-72 
-100 
-595 
-703 
-273 
-210 
-425 
-642 
-289 
-115 
-252 
-502 
-193 
-70 
-230 
-571 
-350 
-117 
-163 
-412 
-375 
-96 
-149 
-409 
-412 
-58 
-54 
-275 
-398 
-72 
-35 
-264 
-432 
-56 
57 
-46 
-280 
-17 
153 
16 
-212 
-70 
186 
104 
-153 
-80 
234 
191 
-18 
-79 
160 
153 
-114 
-309 
8 
45 
-135 
-377 
-123 
-22 
-146 
-327 
-107 
74 
117 
-51 
104 
353 
345 
97 
102 
397 
403 
262 
289 
596 
646 
476 
350 
686 
756 
618 
557 
1118 
1216 
928 
585 
752 
931 
838 
612 
809 
1115 
1075 
860 
862 
1036 
807 
376 
314 
588 
610 
366 
208 
509 
729 
859 
917 
1298 
1544 
1645 
1768 
2353 
2865 
2956 
2577 
2200 
1740 
957 
206 
-232 
-276 
-581 
-938 
-1084 
-907 
-926 
-1123 
-1313 
-1034 
-895 
-984 
-1155 
-847 
-669 
-689 
-800 
-603 
-445 
-514 
-727 
-564 
-344 
-410 
-647 
-580 
-257 
-366 
-606 
-674 
-369 
-387 
-592 
-701 
-425 
-360 
-508 
-719 
-516 
-412 
-551 
-808 
-741 
-586 
-621 
-884 
-871 
-641 
-625 
-782 
-713 
-513 
-435 
-478 
-564 
-412 
-338 
-453 
-547 
-409 
-288 
-321 
-436 
-328 
-224 
-264 
-377 
-282 
-51 
89 
94 
308 
582 
495 
157 
-83 
4 
5 
-122 
-270 
-202 
-206 
-248 
-383 
-261 
-171 
-216 
-352 
-230 
-129 
-184 
-298 
-304 
-161 
-100 
-232 
-265 
-123 
-132 
-199 
-200 
-57 
-28 
-164 
-260 
-136 
-98 
-153 
-183 
-74 
-29 
-26 
-186 
-128 
0 
-15 
-156 
-114 
28 
15 
-96 
-124 
-87 
-260 
-309 
-344 
-112 
-37 
-111 
-213 
-63 
15 
-17 
-123 
-22 
82 
30 
-97 
30 
171 
157 
26 
-4 
89 
59 
-34 
-41 
11 
-12 
-130 
-224 
-107 
-8 
-75 
-178 
-20 
40 
-124 
-261 
-128 
-100 
-156 
-286 
-197 
-138 
-199 
-347 
-326 
-192 
-205 
-272 
-301 
-329 
-503 
-730 
-898 
-679 
-432 
-235 
-329 
-183 
-57 
-107 
-256 
-125 
-8 
-61 
-212 
-121 
108 
108 
-83 
-93 
31 
1 
-78 
-107 
11 
63 
-32 
-125 
22 
33 
-51 
-155 
-90 
2 
-31 
-150 
-33 
29 
0 
-99 
-6 
95 
-22 
-181 
-159 
14 
51 
-109 
-132 
-46 
-29 
-127 
-205 
-39 
23 
-80 
-223 
-84 
-18 
-38 
-169 
-44 
26 
-30 
-190 
-138 
1 
-41 
-178 
-199 
-60 
-6 
-171 
-269 
-97 
-25 
-106 
-187 
-53 
-21 
-101 
-226 
-101 
-64 
-85 
-230 
-192 
-72 
-128 
-253 
-201 
-32 
-85 
-248 
-204 
-61 
-42 
-200 
-267 
-91 
-105 
-224 
-284 
-149 
-102 
-188 
-316 
-205 
-74 
-120 
-261 
-111 
37 
131 
137 
394 
728 
845 
577 
264 
195 
148 
5 
-116 
-2 
17 
-84 
-186 
-34 
31 
-25 
-174 
-53 
38 
-15 
-197 
-119 
42 
13 
-148 
-78 
60 
25 
-147 
-202 
-41 
24 
-96 
-233 
-70 
19 
-100 
-239 
-95 
-57 
-105 
-215 
-140 
-10 
-8 
-135 
-98 
0 
-210 
-386 
-305 
-138 
-74 
-182 
-166 
20 
27 
-108 
-142 
84 
156 
161 
52 
194 
281 
194 
44 
188 
303 
189 
-21 
-8 
81 
99 
10 
36 
153 
177 
39 
66 
261 
297 
178 
50 
134 
124 
46 
-90 
-8 
0 
-71 
-148 
-44 
0 
-80 
-219 
-98 
10 
-67 
-130 
-95 
40 
12 
-159 
-194 
-11 
21 
-102 
-97 
331 
270 
83 
-3 
124 
154 
79 
-99 
70 
137 
40 
-135 
29 
131 
65 
-166 
-94 
114 
59 
-267 
-223 
8 
3 
-187 
-255 
33 
24 
-154 
-180 
64 
94 
-78 
-193 
115 
158 
58 
-182 
10 
219 
220 
-138 
-23 
132 
45 
-162 
-132 
69 
85 
-77 
-54 
178 
81 
-124 
-197 
0 
19 
-78 
-255 
-25 
-4 
-120 
-304 
-101 
30 
-71 
-226 
-185 
-65 
-145 
-403 
-312 
-80 
-66 
-237 
-227 
52 
86 
-117 
-236 
6 
64 
-132 
-357 
-20 
128 
-12 
-244 
5 
213 
82 
-154 
-27 
152 
87 
-161 
-133 
153 
74 
-165 
-199 
76 
82 
-144 
-249 
4 
43 
-96 
-281 
-24 
63 
-38 
-285 
-170 
39 
-10 
-240 
-154 
-8 
-81 
-187 
-104 
202 
252 
299 
519 
931 
1004 
511 
74 
141 
199 
106 
-165 
71 
115 
-3 
-170 
-35 
65 
-109 
-344 
-207 
32 
-54 
-257 
-234 
41 
28 
-197 
-242 
10 
-23 
-168 
-234 
18 
62 
-25 
-197 
19 
172 
56 
-203 
10 
174 
79 
-311 
-379 
-63 
-56 
-318 
-349 
-28 
31 
-284 
-383 
-163 
-157 
-306 
-424 
-138 
-76 
-265 
-487 
-239 
23 
69 
-99 
93 
301 
169 
-90 
26 
182 
72 
-147 
-141 
132 
133 
-63 
-179 
57 
55 
-109 
-281 
5 
134 
81 
-43 
183 
246 
55 
-227 
-81 
69 
-78 
-348 
-250 
5 
-12 
-267 
-219 
4 
-76 
-277 
-344 
-22 
-19 
-235 
-405 
-102 
-20 
-176 
-256 
248 
318 
128 
-163 
15 
159 
11 
-216 
-155 
-7 
-71 
-312 
-281 
17 
-4 
-243 
-313 
24 
106 
-56 
-229 
72 
119 
-22 
-294 
1 
140 
-6 
-289 
-98 
78 
-124 
-457 
-385 
-35 
-41 
-294 
-281 
84 
112 
-52 
-41 
283 
306 
44 
-103 
204 
211 
50 
-125 
79 
148 
-7 
-364 
-198 
2 
-115 
-317 
-205 
71 
-15 
-284 
-283 
15 
3 
-167 
-258 
46 
71 
-154 
-396 
-89 
-24 
-232 
-344 
-60 
-106 
-192 
-555 
-340 
-93 
-134 
-312 
-264 
-26 
-77 
-346 
-290 
129 
133 
-122 
-199 
250 
326 
145 
54 
364 
384 
122 
-122 
121 
211 
50 
-302 
-124 
92 
39 
-179 
-87 
159 
37 
-229 
-210 
279 
306 
114 
184 
718 
744 
331 
-108 
127 
141 
-97 
-437 
-201 
-8 
-92 
-431 
-264 
-3 
-102 
-367 
-301 
-14 
-55 
-312 
-297 
71 
111 
-101 
-250 
39 
61 
-206 
-429 
-68 
64 
-87 
-368 
-77 
109 
-22 
-263 
-8 
319 
326 
161 
337 
679 
615 
340 
365 
629 
517 
283 
-14 
20 
-110 
-275 
-494 
-104 
21 
-155 
-353 
-86 
166 
30 
-295 
-89 
226 
165 
-91 
-48 
262 
219 
-51 
-137 
220 
205 
-131 
-342 
41 
156 
-84 
-343 
4 
100 
-53 
-312 
-145 
116 
70 
-187 
-41 
237 
138 
-201 
-219 
277 
324 
-2 
-101 
253 
209 
5 
-226 
72 
274 
73 
-230 
11 
122 
59 
24 
148 
202 
-35 
-299 
-133 
127 
-15 
-324 
-297 
-19 
-63 
-235 
-391 
-87 
-44 
-246 
-414 
-112 
6 
-114 
-414 
-137 
11 
-150 
-443 
-235 
-20 
-207 
-467 
-319 
10 
-90 
-394 
-308 
10 
-90 
-315 
-311 
17 
46 
-156 
-422 
-112 
68 
-141 
-432 
-148 
3 
-117 
-392 
-199 
17 
-48 
-320 
-219 
-6 
-59 
-375 
-390 
-1 
53 
-208 
-386 
-45 
-13 
-161 
-357 
-63 
24 
-129 
-375 
-115 
-11 
-204 
-414 
-182 
40 
-16 
-326 
-254 
40 
-59 
-353 
-388 
-56 
-54 
-324 
-449 
-110 
-102 
-287 
-410 
-85 
-36 
-249 
-545 
-281 
-117 
-210 
-470 
-237 
172 
293 
156 
415 
741 
480 
-108 
-304 
-8 
-66 
-311 
-396 
-82 
-54 
-275 
-486 
-89 
4 
-184 
-399 
-76 
99 
-185 
-431 
-219 
19 
-51 
-316 
-285 
22 
-22 
-226 
-337 
2 
19 
-243 
-360 
7 
73 
-119 
-346 
-37 
102 
-42 
-296 
-83 
99 
7 
-256 
-128 
167 
56 
-307 
-470 
-112 
-31 
-287 
-331 
19 
47 
-120 
-272 
90 
152 
-19 
-284 
50 
200 
45 
-210 
-9 
179 
106 
-141 
-7 
248 
71 
-252 
-206 
120 
75 
-191 
-263 
44 
0 
-270 
-403 
-74 
-19 
-163 
-428 
-37 
162 
-121 
-339 
-222 
-41 
-72 
-212 
-210 
66 
51 
-295 
-276 
88 
110 
-165 
-418 
15 
32 
-56 
-21 
164 
173 
-74 
-422 
-145 
-16 
-73 
-441 
-259 
-41 
-201 
-463 
-299 
-85 
-188 
-506 
-501 
-154 
-222 
-474 
-516 
-187 
-217 
-401 
-591 
-253 
-176 
-356 
-680 
-362 
-207 
-366 
-610 
-389 
-184 
-306 
-631 
-560 
-235 
-221 
-589 
-626 
-288 
-269 
-551 
-730 
-303 
-251 
-466 
-635 
-298 
-193 
-418 
-654 
-290 
-110 
-243 
-527 
-415 
-129 
-222 
-508 
-377 
-68 
-102 
-416 
-417 
-135 
-67 
-298 
-417 
-14 
13 
-221 
-453 
-133 
15 
-119 
-425 
-173 
21 
-110 
-448 
-234 
6 
-107 
-449 
-385 
-31 
-3 
-325 
-388 
-44 
-50 
-323 
-478 
-113 
-52 
-242 
-499 
-213 
-84 
-269 
-566 
-292 
-109 
-248 
-535 
-392 
-163 
-291 
-596 
-419 
2 
-36 
-205 
-40 
491 
669 
342 
-102 
9 
23 
-126 
-389 
-200 
-128 
-299 
-553 
-292 
-108 
-263 
-498 
-354 
-139 
-225 
-494 
-447 
-152 
-175 
-449 
-555 
-137 
-42 
-394 
-593 
-196 
-85 
-282 
-465 
-148 
-41 
-160 
-446 
-177 
-38 
-124 
-322 
-200 
28 
-104 
-479 
-408 
8 
31 
-217 
-303 
59 
56 
-169 
-596 
-324 
-150 
-263 
-505 
-204 
-46 
-119 
-365 
-159 
57 
-24 
-335 
-222 
101 
4 
-269 
-209 
73 
22 
-301 
-480 
-182 
-151 
-328 
-513 
-213 
-123 
-330 
-576 
-203 
-68 
-257 
-591 
-332 
-97 
-229 
-463 
-269 
-19 
-152 
-434 
-488 
-126 
-96 
-272 
-419 
-49 
-27 
-246 
-515 
-129 
144 
118 
-157 
66 
150 
6 
-299 
-154 
60 
-87 
-387 
-282 
11 
-16 
-370 
-487 
-142 
-213 
-461 
-499 
-120 
-156 
-370 
-556 
-261 
-116 
-232 
-514 
-199 
1 
-174 
-470 
-285 
50 
-12 
-357 
-337 
-26 
-80 
-334 
-374 
-41 
-65 
-256 
-398 
-13 
50 
-153 
-378 
-63 
82 
-102 
-433 
-180 
20 
-71 
-446 
-330 
-51 
-187 
-547 
-505 
-149 
-233 
-525 
-546 
-143 
-201 
-426 
-562 
-239 
-134 
-375 
-632 
-331 
-234 
-346 
-609 
-382 
-228 
-334 
-607 
-499 
-182 
-203 
-493 
-493 
-161 
-242 
-489 
-574 
-208 
-203 
-421 
-570 
-298 
-248 
-412 
-597 
-241 
-88 
-301 
-554 
-346 
-134 
-187 
-518 
-364 
-51 
-141 
-439 
-417 
-51 
-106 
-370 
-457 
-115 
-122 
-300 
-429 
-56 
-22 
-215 
-415 
-142 
-37 
-176 
-449 
-215 
53 
-19 
-211 
100 
598 
651 
370 
252 
322 
31 
-220 
-346 
10 
45 
-184 
-358 
-72 
-25 
-248 
-551 
-231 
-13 
-161 
-457 
-290 
-107 
-144 
-456 
-376 
-56 
-112 
-368 
-379 
-46 
-109 
-406 
-541 
-99 
-95 
-348 
-547 
-234 
-177 
-335 
-571 
-317 
-151 
-288 
-567 
-439 
-208 
-274 
-584 
-493 
-146 
-206 
-487 
-402 
39 
48 
-179 
-376 
-232 
-140 
-294 
-435 
-51 
45 
-134 
-402 
-149 
64 
-37 
-357 
-162 
92 
-37 
-311 
-199 
-21 
-115 
-468 
-477 
-109 
-101 
-369 
-536 
-190 
-146 
-360 
-626 
-290 
-34 
-213 
-557 
-300 
-93 
-251 
-561 
-267 
-45 
-226 
-461 
-325 
-47 
-131 
-420 
-500 
-180 
-147 
-311 
-432 
128 
144 
-121 
-414 
-101 
18 
-130 
-458 
-194 
1 
-186 
-520 
-362 
-69 
-72 
-318 
-249 
-12 
-105 
-368 
-413 
-106 
-158 
-389 
-555 
-172 
-95 
-343 
-592 
-257 
-102 
-281 
-515 
-244 
-109 
-215 
-491 
-366 
-90 
-145 
-473 
-530 
-248 
-313 
-586 
-629 
-313 
-292 
-552 
-755 
-460 
-346 
-485 
-788 
-496 
-353 
-567 
-997 
-830 
-556 
-661 
-948 
-785 
-514 
-647 
-911 
-834 
-450 
-408 
-643 
-680 
-148 
-87 
-284 
-420 
-33 
96 
-86 
-326 
-1 
217 
51 
-312 
-139 
144 
39 
-283 
-201 
74 
-54 
-382 
-423 
-74 
-38 
-341 
-483 
-163 
-167 
-342 
-580 
-257 
-150 
-333 
-478 
-109 
220 
342 
210 
402 
463 
123 
-264 
-138 
178 
88 
-155 
-111 
267 
233 
-41 
-162 
235 
250 
11 
-139 
227 
322 
139 
-130 
183 
360 
186 
-172 
-17 
221 
115 
-221 
-259 
65 
2 
-374 
-706 
-265 
-154 
-429 
-557 
-167 
-127 
-296 
-420 
-108 
-49 
-182 
-479 
-226 
38 
-41 
-354 
-275 
27 
-19 
-280 
-230 
107 
80 
-127 
-189 
175 
156 
-25 
-188 
102 
211 
66 
-240 
73 
154 
-40 
-295 
-53 
99 
-101 
-454 
-284 
-19 
-144 
-477 
-479 
-139 
-147 
-429 
-556 
-238 
-233 
-479 
-626 
-302 
-267 
-549 
-842 
-514 
-372 
-508 
-731 
-520 
-346 
-480 
-769 
-670 
-263 
-237 
-475 
-467 
-131 
-137 
-389 
-474 
-76 
-57 
-293 
-454 
-25 
71 
43 
-20 
218 
371 
231 
-68 
96 
344 
288 
-28 
62 
309 
256 
10 
-28 
318 
249 
-64 
-194 
163 
190 
-47 
-302 
72 
135 
-130 
-420 
-146 
38 
-76 
-400 
-254 
34 
-14 
-350 
-276 
-17 
-52 
-311 
-319 
20 
0 
-194 
-372 
-114 
-71 
-291 
-528 
-112 
83 
-90 
-398 
-149 
38 
-44 
-351 
-185 
-201 
-337 
-633 
-543 
-188 
-190 
-471 
-465 
-111 
-76 
-331 
-613 
-263 
-144 
-409 
-722 
-357 
-225 
-377 
-729 
-461 
-226 
-418 
-668 
-420 
-193 
-341 
-349 
-174 
199 
225 
98 
245 
671 
553 
-13 
-433 
-85 
4 
-298 
-561 
-225 
-39 
-153 
-526 
-335 
-136 
-237 
-478 
-334 
22 
-72 
-421 
-360 
17 
79 
-187 
-219 
182 
125 
-117 
-247 
111 
248 
38 
-240 
72 
246 
69 
-213 
5 
261 
184 
-218 
-165 
197 
197 
-165 
-57 
336 
247 
28 
-63 
274 
320 
155 
-52 
331 
416 
147 
-131 
244 
446 
217 
-92 
84 
352 
281 
-37 
31 
280 
248 
-77 
-111 
237 
196 
-59 
-232 
52 
70 
-122 
-258 
-5 
13 
-196 
-481 
-189 
-12 
-217 
-484 
-358 
-372 
-650 
-877 
-742 
-369 
-385 
-725 
-701 
-382 
-349 
-567 
-763 
-363 
-279 
-491 
-604 
-258 
-162 
-321 
-514 
-182 
24 
-106 
-411 
-187 
81 
-36 
-324 
-226 
121 
69 
-228 
-283 
110 
80 
-208 
-367 
15 
-45 
-308 
-534 
-253 
-137 
-291 
-602 
-296 
-136 
-302 
-609 
-497 
-256 
-351 
-617 
-500 
-58 
64 
-266 
-396 
-73 
-86 
-418 
-662 
-252 
-118 
-349 
-662 
-289 
-155 
-346 
-653 
-429 
-189 
-310 
-629 
-433 
-141 
-315 
-656 
-652 
-228 
-319 
-553 
-630 
-258 
-283 
-541 
-673 
-318 
-264 
-427 
-570 
-206 
-101 
-265 
-507 
-208 
107 
-9 
-295 
-97 
229 
162 
-58 
-108 
203 
204 
-60 
-135 
150 
110 
-120 
-290 
95 
215 
-22 
-351 
-53 
232 
141 
-166 
78 
321 
100 
-206 
-7 
394 
512 
455 
701 
1150 
984 
376 
30 
348 
362 
88 
-211 
173 
259 
9 
-281 
31 
206 
12 
-329 
-53 
155 
55 
-250 
-227 
89 
-10 
-317 
-328 
33 
-10 
-263 
-427 
-34 
-57 
-342 
-510 
-309 
-194 
-350 
-645 
-409 
-172 
-314 
-674 
-464 
-183 
-290 
-603 
-519 
-143 
-173 
-401 
-394 
-25 
-88 
-319 
-344 
67 
134 
-38 
-295 
-5 
155 
69 
-169 
135 
324 
232 
-102 
92 
395 
328 
-12 
51 
359 
205 
-84 
-99 
268 
205 
-72 
-242 
135 
148 
-220 
-356 
64 
155 
-43 
-326 
-27 
152 
-4 
-304 
-137 
87 
-40 
-367 
-309 
95 
26 
-239 
-324 
-45 
-4 
-227 
-361 
25 
110 
-119 
-460 
-121 
-10 
-156 
-431 
-164 
50 
-54 
-374 
-249 
63 
-29 
-378 
-316 
61 
-40 
-344 
-409 
-20 
-63 
-349 
-516 
-114 
-79 
-251 
-520 
-222 
-46 
-205 
-493 
-233 
20 
-157 
-473 
-323 
-34 
-78 
-330 
-413 
-22 
-2 
-260 
-445 
-78 
-11 
-267 
-437 
-110 
-96 
-261 
-507 
-162 
-36 
-167 
-469 
-279 
-27 
-131 
-475 
-451 
-94 
-135 
-440 
-478 
-104 
-104 
-380 
-499 
-98 
-43 
-303 
-513 
-104 
39 
-180 
-509 
-227 
-12 
-145 
-471 
-266 
35 
-119 
-462 
-374 
-6 
-51 
-343 
-359 
-93 
-76 
-340 
-456 
-126 
-28 
-238 
-487 
-51 
63 
-147 
-425 
-141 
12 
-202 
-496 
-241 
15 
-129 
-488 
-433 
-70 
-82 
-380 
-447 
-123 
-95 
-309 
-509 
-133 
-23 
-129 
-210 
296 
600 
517 
184 
174 
148 
-165 
-491 
-293 
17 
-134 
-446 
-405 
-79 
-88 
-364 
-430 
-77 
-92 
-277 
-429 
-17 
53 
-224 
-426 
-71 
45 
-169 
-488 
-237 
-58 
-196 
-522 
-342 
-26 
-108 
-410 
-389 
-7 
-90 
-299 
-413 
-76 
-92 
-267 
-467 
-93 
34 
-137 
-386 
-82 
98 
-41 
-331 
-128 
157 
75 
-213 
-99 
200 
49 
-167 
-151 
193 
173 
-118 
-258 
155 
182 
-88 
-343 
20 
174 
-57 
-306 
-35 
103 
-65 
-452 
-260 
40 
-121 
-437 
-340 
-5 
-80 
-442 
-527 
-169 
-164 
-371 
-472 
-52 
-1 
-248 
-560 
-213 
-36 
-196 
-489 
-224 
-39 
-177 
-492 
-299 
-24 
-127 
-434 
-357 
-25 
-142 
-423 
-446 
-71 
-113 
-354 
-519 
-163 
-101 
-260 
-502 
-133 
-11 
-232 
-518 
-189 
-54 
-197 
-527 
-313 
-52 
-111 
-481 
-399 
-34 
-129 
-403 
-454 
-97 
-76 
-410 
-582 
-167 
-111 
-307 
-548 
-190 
-90 
-270 
-575 
-339 
-111 
-237 
-523 
-407 
-86 
-175 
-486 
-417 
-54 
-156 
-441 
-524 
-115 
-112 
-296 
-490 
-198 
-94 
-324 
-560 
-201 
-92 
-221 
-449 
-198 
-4 
-225 
-536 
-372 
-57 
-99 
-381 
-409 
16 
-40 
-352 
-377 
-46 
-73 
-316 
-524 
-149 
6 
-189 
-522 
-241 
-62 
-221 
-472 
-220 
-83 
-188 
-419 
-255 
132 
270 
148 
247 
609 
337 
-207 
-460 
-87 
-34 
-268 
-508 
-184 
-163 
-277 
-503 
-257 
-64 
-223 
-528 
-303 
-59 
-146 
-553 
-392 
-31 
-167 
-477 
-472 
-77 
-61 
-324 
-416 
-19 
-53 
-296 
-500 
-122 
-24 
-221 
-488 
-202 
28 
-70 
-406 
-285 
-54 
-133 
-378 
-299 
-12 
-81 
-291 
-294 
33 
65 
-172 
-348 
1 
107 
-150 
-330 
50 
179 
-5 
-293 
-27 
189 
67 
-155 
47 
285 
115 
-213 
-237 
85 
91 
-205 
-300 
77 
52 
-282 
-491 
-102 
-76 
-216 
-462 
-187 
-96 
-261 
-520 
-319 
-65 
-135 
-484 
-382 
-140 
-216 
-515 
-409 
-33 
-183 
-454 
-562 
-134 
-109 
-362 
-555 
-198 
-98 
-234 
-499 
-149 
-8 
-176 
-520 
-267 
-30 
-145 
-512 
-377 
-73 
-137 
-406 
-409 
-83 
-116 
-408 
-456 
-43 
-15 
-272 
-544 
-200 
-126 
-274 
-457 
-105 
21 
-213 
-514 
-290 
-12 
-113 
-432 
-359 
-73 
-177 
-451 
-441 
-84 
-158 
-391 
-471 
-89 
-68 
-300 
-547 
-203 
-86 
-276 
-500 
-232 
-99 
-206 
-509 
-266 
-11 
-142 
-484 
-392 
-62 
-29 
-307 
-348 
-19 
14 
-275 
-427 
-57 
-60 
-266 
-493 
-103 
4 
-229 
-529 
-189 
-59 
-247 
-532 
-372 
-88 
-124 
-461 
-397 
-50 
-130 
-390 
-445 
-55 
-112 
-361 
-499 
-121 
-33 
-207 
-294 
206 
554 
531 
243 
362 
313 
0 
-360 
-241 
35 
-66 
-419 
-369 
-112 
-138 
-441 
-530 
-63 
-98 
-367 
-527 
-166 
-42 
-216 
-525 
-228 
-115 
-279 
-529 
-271 
-39 
-191 
-481 
-326 
12 
-44 
-400 
-437 
-32 
-86 
-362 
-450 
-112 
-90 
-319 
-457 
-38 
15 
-193 
-417 
-120 
104 
-163 
-466 
-238 
67 
-22 
-400 
-227 
93 
25 
-250 
-255 
103 
140 
-146 
-262 
131 
121 
-146 
-334 
-14 
94 
-55 
-365 
-97 
33 
-132 
-395 
-240 
-15 
-72 
-388 
-366 
-54 
-112 
-407 
-423 
-53 
-48 
-324 
-429 
-115 
-137 
-348 
-532 
-115 
34 
-188 
-531 
-266 
-98 
-227 
-490 
-271 
-50 
-157 
-496 
-407 
-65 
-126 
-391 
-389 
-111 
-172 
-396 
-518 
-161 
-66 
-301 
-560 
-178 
8 
-228 
-486 
-270 
-59 
-164 
-464 
-297 
-114 
-258 
-536 
-423 
-42 
-84 
-369 
-422 
-137 
-154 
-334 
-518 
-140 
-66 
-309 
-482 
-264 
-83 
-283 
-576 
-327 
-77 
-173 
-509 
-438 
-160 
-218 
-552 
-455 
-64 
-133 
-436 
-531 
-196 
-200 
-367 
-490 
-119 
-16 
-256 
-560 
-249 
-85 
-266 
-576 
-278 
-2 
-169 
-522 
-396 
-67 
-119 
-476 
-511 
-127 
-154 
-413 
-551 
-163 
-106 
-355 
-536 
-159 
-60 
-293 
-547 
-180 
-5 
-140 
-436 
-219 
-60 
-157 
-412 
-352 
-64 
-198 
-471 
-402 
-129 
-173 
-397 
-507 
-162 
-123 
-356 
-556 
-172 
-19 
-244 
-609 
-310 
-69 
-186 
-397 
-74 
385 
523 
425 
491 
554 
260 
-246 
-337 
-16 
-121 
-346 
-462 
-99 
-60 
-249 
-555 
-227 
-110 
-290 
-563 
-284 
-72 
-265 
-596 
-390 
-38 
-118 
-434 
-396 
-91 
-67 
-321 
-482 
-89 
-20 
-334 
-499 
-147 
-95 
-272 
-490 
-193 
-54 
-186 
-473 
-232 
1 
-74 
-419 
-251 
75 
18 
-272 
-285 
16 
-41 
-291 
-306 
97 
116 
-119 
-283 
94 
170 
-27 
-293 
65 
225 
22 
-310 
-24 
169 
72 
-290 
-239 
74 
5 
-324 
-326 
21 
-9 
-318 
-477 
-113 
-41 
-326 
-620 
-172 
-25 
-268 
-547 
-220 
-57 
-212 
-522 
-326 
-62 
-182 
-466 
-431 
-96 
-101 
-404 
-385 
-137 
-176 
-382 
-565 
-213 
-134 
-292 
-529 
-215 
-118 
-269 
-545 
-258 
-3 
-140 
-459 
-319 
-64 
-223 
-547 
-389 
-49 
-146 
-407 
-428 
-114 
-130 
-373 
-526 
-118 
-94 
-336 
-516 
-269 
-202 
-244 
-571 
-341 
-101 
-238 
-569 
-385 
-127 
-158 
-480 
-479 
-133 
-161 
-393 
-496 
-121 
-113 
-413 
-599 
-236 
-173 
-367 
-561 
-229 
-70 
-278 
-591 
-368 
-123 
-167 
-499 
-432 
-185 
-172 
-463 
-472 
-93 
-135 
-467 
-558 
-219 
-158 
-375 
-561 
-180 
-160 
-367 
-560 
-227 
-52 
-257 
-573 
-288 
-110 
-278 
-615 
-480 
-189 
-250 
-558 
-417 
-23 
-142 
-477 
-594 
-154 
-98 
-303 
-455 
-118 
-115 
-322 
-552 
-284 
-97 
-209 
-476 
-290 
-65 
-145 
-482 
-452 
-191 
-243 
-422 
-445 
-194 
-221 
-487 
-582 
-206 
-162 
-369 
-599 
-223 
-128 
-286 
-480 
-121 
218 
285 
159 
529 
619 
103 
-401 
-296 
-54 
-187 
-444 
-479 
-135 
-159 
-429 
-544 
-162 
-89 
-377 
-578 
-180 
-95 
-357 
-600 
-284 
-57 
-226 
-576 
-419 
-74 
-165 
-510 
-349 
-12 
-186 
-421 
-467 
-98 
-173 
-396 
-493 
-135 
-65 
-259 
-514 
-207 
-70 
-228 
-478 
-208 
-19 
-139 
-470 
-238 
56 
-66 
-347 
-214 
131 
38 
-219 
-262 
120 
108 
-159 
-300 
31 
126 
-114 
-354 
36 
209 
24 
-354 
-95 
100 
-47 
-374 
-283 
-4 
-58 
-395 
-397 
-89 
-158 
-434 
-505 
-112 
-111 
-394 
-543 
-141 
-34 
-269 
-555 
-250 
-121 
-291 
-587 
-359 
-131 
-234 
-557 
-445 
-84 
-96 
-446 
-530 
-159 
-77 
-382 
-554 
-172 
-192 
-388 
-547 
-205 
-121 
-287 
-584 
-264 
-92 
-278 
-583 
-308 
-60 
-254 
-536 
-452 
-178 
-282 
-572 
-518 
-119 
-221 
-438 
-547 
-211 
-168 
-361 
-539 
-212 
-109 
-316 
-624 
-372 
-159 
-210 
-580 
-466 
-173 
-212 
-467 
-455 
-149 
-192 
-499 
-552 
-171 
-228 
-450 
-543 
-153 
-184 
-411 
-596 
-288 
-148 
-333 
-634 
-344 
-127 
-267 
-516 
-346 
-139 
-322 
-618 
-481 
-129 
-91 
-456 
-602 
-251 
-154 
-322 
-507 
-125 
-111 
-365 
-650 
-304 
-155 
-345 
-570 
-308 
-159 
-283 
-624 
-499 
-171 
-269 
-595 
-531 
-180 
-233 
-490 
-560 
-163 
-112 
-160 
-101 
411 
624 
291 
-221 
-95 
-78 
-281 
-613 
-396 
-166 
-252 
-535 
-467 
-142 
-229 
-539 
-505 
-166 
-223 
-509 
-565 
-189 
-214 
-481 
-644 
-292 
-175 
-321 
-613 
-323 
-159 
-294 
-521 
-317 
-182 
-299 
-585 
-413 
-92 
-230 
-461 
-471 
-209 
-208 
-429 
-531 
-128 
-125 
-353 
-531 
-155 
-14 
-208 
-491 
-159 
32 
-136 
-444 
-258 
13 
-66 
-342 
-185 
139 
64 
-174 
-241 
135 
47 
-252 
-381 
-26 
-14 
-152 
-413 
-172 
-58 
-279 
-554 
-273 
-109 
-334 
-657 
-491 
-175 
-229 
-542 
-510 
-180 
-260 
-492 
-538 
-213 
-224 
-481 
-702 
-249 
-175 
-420 
-652 
-344 
-202 
-375 
-633 
-385 
-142 
-278 
-613 
-480 
-257 
-303 
-488 
-430 
-150 
-195 
-497 
-609 
-254 
-256 
-471 
-546 
-178 
-189 
-394 
-626 
-346 
-234 
-390 
-709 
-411 
-102 
-289 
-629 
-523 
-260 
-308 
-588 
-564 
-255 
-267 
-503 
-620 
-295 
-272 
-517 
-708 
-315 
-230 
-433 
-668 
-375 
-214 
-373 
-717 
-496 
-176 
-262 
-613 
-518 
-239 
-235 
-557 
-640 
-251 
-242 
-520 
-698 
-276 
-202 
-426 
-684 
-336 
-210 
-382 
-673 
-383 
-171 
-308 
-648 
-433 
-202 
-327 
-613 
-482 
-151 
-291 
-549 
-538 
-174 
-198 
-518 
-698 
-361 
-302 
-507 
-705 
-330 
-215 
-403 
-642 
-387 
-211 
-334 
-698 
-562 
-299 
-302 
-497 
-340 
170 
377 
242 
155 
375 
81 
-335 
-515 
-204 
-141 
-407 
-695 
-323 
-178 
-357 
-689 
-433 
-208 
-371 
-670 
-453 
-154 
-260 
-597 
-662 
-334 
-330 
-622 
-670 
-258 
-212 
-460 
-664 
-317 
-238 
-462 
-718 
-420 
-198 
-314 
-618 
-431 
-196 
-294 
-575 
-474 
-151 
-260 
-557 
-513 
-149 
-178 
-453 
-586 
-147 
-66 
-296 
-519 
-138 
-22 
-238 
-473 
-92 
59 
-91 
-404 
-177 
74 
-76 
-336 
-139 
128 
7 
-362 
-380 
-75 
-120 
-382 
-489 
-173 
-212 
-504 
-703 
-349 
-257 
-417 
-660 
-371 
-270 
-453 
-798 
-539 
-215 
-336 
-724 
-622 
-293 
-388 
-714 
-729 
-272 
-321 
-585 
-712 
-373 
-389 
-549 
-769 
-393 
-208 
-617 
-1174 
-766 
-488 
-605 
-909 
-693 
-370 
-456 
-857 
-807 
-444 
-466 
-751 
-729 
-328 
-384 
-735 
-864 
-470 
-411 
-588 
-880 
-611 
-427 
-632 
-925 
-585 
-366 
-602 
-954 
-764 
-426 
-462 
-805 
-830 
-521 
-529 
-772 
-859 
-486 
-527 
-794 
-912 
-569 
-511 
-680 
-928 
-611 
-483 
-594 
-942 
-717 
-452 
-577 
-916 
-800 
-431 
-529 
-902 
-920 
-552 
-598 
-787 
-820 
-256 
-150 
-493 
-808 
-483 
-343 
-527 
-821 
-568 
-394 
-572 
-899 
-672 
-418 
-563 
-871 
-734 
-382 
-424 
-770 
-812 
-444 
-465 
-646 
-797 
-468 
-444 
-639 
-874 
-549 
-444 
-660 
-966 
-655 
-464 
-668 
-987 
-697 
-398 
-504 
-840 
-805 
-491 
-559 
-859 
-879 
-466 
-436 
-623 
-568 
22 
283 
194 
-187 
-156 
-230 
-475 
-735 
-534 
-395 
-559 
-893 
-652 
-383 
-528 
-868 
-798 
-514 
-593 
-823 
-833 
-458 
-482 
-807 
-942 
-525 
-449 
-677 
-918 
-593 
-435 
-598 
-936 
-617 
-363 
-563 
-898 
-709 
-449 
-577 
-865 
-823 
-460 
-472 
-737 
-854 
-494 
-434 
-593 
-765 
-482 
-368 
-586 
-755 
-386 
-247 
-379 
-718 
-476 
-266 
-382 
-683 
-556 
-269 
-332 
-659 
-648 
-197 
-133 
-452 
-565 
-292 
-304 
-547 
-713 
-374 
-287 
-524 
-809 
-540 
-398 
-576 
-896 
-709 
-510 
-599 
-878 
-779 
-439 
-521 
-837 
-873 
-538 
-822 
-1196 
-1223 
-760 
-632 
-817 
-995 
-683 
-601 
-796 
-1101 
-727 
-500 
-680 
-1040 
-806 
-496 
-629 
-961 
-850 
-534 
-631 
-934 
-931 
-530 
-589 
-902 
-986 
-581 
-523 
-767 
-1034 
-667 
-538 
-707 
-983 
-724 
-524 
-646 
-957 
-798 
-670 
-708 
-912 
-822 
-482 
-539 
-835 
-907 
-533 
-620 
-873 
-910 
-495 
-487 
-755 
-1003 
-684 
-493 
-676 
-1010 
-779 
-521 
-606 
-911 
-763 
-494 
-626 
-943 
-913 
-529 
-562 
-872 
-937 
-351 
-200 
-486 
-703 
-408 
-402 
-656 
-907 
-507 
-375 
-552 
-909 
-672 
-394 
-530 
-853 
-731 
-443 
-508 
-839 
-840 
-445 
-441 
-714 
-865 
-503 
-452 
-621 
-819 
-549 
-501 
-692 
-980 
-606 
-455 
-671 
-971 
-714 
-498 
-624 
-900 
-761 
-477 
-617 
-892 
-938 
-533 
-423 
-621 
-664 
-43 
191 
-36 
-400 
-289 
-397 
-602 
-843 
-658 
-531 
-629 
-881 
-699 
-428 
-616 
-937 
-844 
-536 
-556 
-842 
-848 
-541 
-509 
-795 
-893 
-505 
-484 
-716 
-963 
-599 
-460 
-624 
-933 
-634 
-473 
-669 
-939 
-684 
-373 
-469 
-842 
-817 
-505 
-483 
-687 
-762 
-427 
-423 
-656 
-854 
-465 
-363 
-535 
-805 
-509 
-350 
-496 
-758 
-473 
-239 
-357 
-656 
-525 
-282 
-349 
-613 
-522 
-162 
-310 
-613 
-654 
-265 
-271 
-505 
-711 
-426 
-354 
-535 
-836 
-550 
-431 
-594 
-976 
-740 
-456 
-601 
-884 
-770 
-496 
-576 
-871 
-813 
-540 
-619 
-890 
-943 
-487 
-498 
-746 
-997 
-656 
-639 
-1052 
-1284 
-888 
-654 
-787 
-1050 
-853 
-585 
-686 
-1063 
-875 
-508 
-578 
-870 
-935 
-526 
-582 
-902 
-1010 
-560 
-554 
-828 
-1026 
-676 
-536 
-722 
-1033 
-722 
-541 
-686 
-993 
-788 
-542 
-642 
-928 
-819 
-524 
-624 
-880 
-944 
-560 
-547 
-809 
-969 
-595 
-537 
-771 
-949 
-633 
-487 
-642 
-1010 
-795 
-575 
-647 
-979 
-799 
-564 
-628 
-918 
-872 
-519 
-520 
-853 
-948 
-560 
-539 
-766 
-907 
-564 
-492 
-687 
-959 
-573 
-448 
-597 
-976 
-703 
-481 
-506 
-604 
-536 
-335 
-449 
-769 
-783 
-435 
-462 
-772 
-915 
-508 
-478 
-753 
-897 
-569 
-447 
-553 
-742 
-295 
39 
29 
-329 
-373 
-392 
-559 
-869 
-800 
-477 
-556 
-937 
-878 
-505 
-554 
-860 
-973 
-616 
-612 
-841 
-1037 
-655 
-544 
-702 
-990 
-725 
-533 
-703 
-1037 
-784 
-460 
-596 
-936 
-868 
-530 
-538 
-901 
-960 
-606 
-602 
-790 
-916 
-602 
-526 
-724 
-934 
-582 
-503 
-668 
-912 
-619 
-429 
-606 
-886 
-680 
-436 
-558 
-852 
-760 
-437 
-411 
-701 
-743 
-342 
-364 
-618 
-773 
-387 
-368 
-587 
-762 
-433 
-339 
-567 
-890 
-664 
-454 
-576 
-949 
-830 
-557 
-632 
-1002 
-1254 
-969 
-897 
-1155 
-1167 
-743 
-740 
-1004 
-1176 
-775 
-654 
-895 
-1175 
-856 
-722 
-792 
-1113 
-918 
-641 
-786 
-1097 
-953 
-654 
-749 
-1063 
-1050 
-693 
-662 
-925 
-1066 
-679 
-585 
-895 
-1130 
-742 
-652 
-948 
-1240 
-825 
-641 
-824 
-1096 
-803 
-566 
-743 
-1047 
-902 
-633 
-716 
-1032 
-1089 
-697 
-698 
-940 
-1005 
-690 
-661 
-869 
-1136 
-717 
-641 
-789 
-1090 
-789 
-496 
-392 
-775 
-588 
-391 
-589 
-961 
-842 
-529 
-681 
-983 
-997 
-641 
-659 
-950 
-1112 
-702 
-661 
-882 
-1098 
-684 
-635 
-870 
-1197 
-909 
-714 
-780 
-1076 
-916 
-594 
-634 
-983 
-943 
-589 
-616 
-942 
-1005 
-525 
-546 
-838 
-994 
-672 
-662 
-799 
-933 
-581 
-435 
-619 
-1056 
-856 
-658 
-819 
-1127 
-941 
-647 
-766 
-1122 
-1033 
-633 
-717 
-1016 
-1055 
-697 
-602 
-757 
-935 
-480 
-213 
-230 
-340 
-59 
-157 
-542 
-955 
-768 
-584 
-696 
-986 
-843 
-547 
-581 
-960 
-1031 
-693 
-643 
-857 
-1032 
-673 
-602 
-892 
-1093 
-728 
-600 
-811 
-1152 
-818 
-634 
-709 
-988 
-812 
-584 
-693 
-1032 
-933 
-621 
-697 
-954 
-931 
-503 
-497 
-878 
-1061 
-641 
-569 
-713 
-946 
-620 
-542 
-696 
-903 
-598 
-481 
-624 
-878 
-631 
-383 
-530 
-855 
-756 
-375 
-416 
-721 
-754 
-368 
-430 
-643 
-763 
-494 
-731 
-1003 
-1256 
-881 
-714 
-830 
-1127 
-872 
-705 
-831 
-1129 
-965 
-655 
-769 
-1066 
-1037 
-677 
-735 
-980 
-1039 
-700 
-715 
-951 
-1093 
-768 
-686 
-904 
-1107 
-807 
-694 
-827 
-1126 
-888 
-586 
-754 
-1111 
-979 
-710 
-742 
-1056 
-988 
-629 
-720 
-1037 
-1096 
-640 
-580 
-894 
-1085 
-712 
-655 
-790 
-881 
-385 
-341 
-517 
-885 
-714 
-513 
-533 
-887 
-800 
-562 
-641 
-910 
-933 
-684 
-606 
-899 
-1026 
-703 
-682 
-896 
-1135 
-691 
-544 
-761 
-1094 
-815 
-584 
-726 
-1070 
-816 
-540 
-694 
-1047 
-989 
-577 
-544 
-928 
-1000 
-612 
-679 
-931 
-1069 
-715 
-668 
-871 
-1117 
-801 
-666 
-854 
-1091 
-759 
-558 
-810 
-1180 
-919 
-611 
-682 
-985 
-945 
-641 
-697 
-1016 
-1071 
-598 
-571 
-889 
-1085 
-708 
-669 
-897 
-1196 
-790 
-619 
-789 
-1094 
-819 
-584 
-723 
-1055 
-869 
-616 
-708 
-992 
-1021 
-642 
-613 
-923 
-981 
-560 
-631 
-973 
-1172 
-741 
-619 
-837 
-1122 
-816 
-696 
-770 
-1134 
-1007 
-698 
-744 
-1085 
-989 
-709 
-714 
-1000 
-921 
-430 
-251 
-316 
-313 
59 
-93 
-641 
-940 
-556 
-505 
-757 
-1094 
-782 
-629 
-756 
-1030 
-792 
-643 
-751 
-1055 
-974 
-655 
-694 
-1024 
-1061 
-686 
-711 
-969 
-1085 
-731 
-693 
-937 
-1139 
-745 
-633 
-814 
-1098 
-788 
-613 
-721 
-1006 
-792 
-513 
-650 
-956 
-894 
-560 
-644 
-946 
-948 
-609 
-635 
-920 
-1058 
-628 
-540 
-696 
-945 
-659 
-451 
-593 
-943 
-636 
-374 
-521 
-878 
-677 
-345 
-546 
-1138 
-1096 
-643 
-702 
-1031 
-1103 
-629 
-587 
-870 
-1093 
-770 
-675 
-931 
-1215 
-886 
-723 
-876 
-1186 
-926 
-710 
-847 
-1210 
-1045 
-702 
-794 
-1111 
-1077 
-648 
-629 
-900 
-1104 
-785 
-730 
-918 
-1074 
-735 
-667 
-797 
-1104 
-857 
-628 
-730 
-1056 
-908 
-630 
-747 
-1084 
-996 
-652 
-692 
-1014 
-1003 
-339 
-415 
-765 
-892 
-526 
-468 
-773 
-1061 
-691 
-611 
-821 
-1111 
-867 
-642 
-780 
-1130 
-903 
-611 
-702 
-1032 
-983 
-639 
-701 
-1025 
-1096 
-704 
-654 
-917 
-1051 
-724 
-669 
-959 
-1127 
-788 
-641 
-856 
-1161 
-874 
-626 
-772 
-1106 
-881 
-635 
-805 
-1116 
-1040 
-681 
-694 
-1019 
-1306 
-1234 
-1338 
-1487 
-1601 
-1111 
-951 
-1163 
-1454 
-1034 
-812 
-939 
-1228 
-1001 
-762 
-896 
-1139 
-940 
-673 
-804 
-1178 
-1105 
-722 
-754 
-1078 
-1128 
-638 
-636 
-972 
-1219 
-836 
-745 
-940 
-1159 
-780 
-657 
-796 
-1048 
-873 
-636 
-751 
-1097 
-997 
-628 
-643 
-1034 
-1060 
-714 
-764 
-1031 
-1153 
-728 
-657 
-925 
-1205 
-803 
-741 
-993 
-1227 
-845 
-658 
-832 
-1234 
-1038 
-753 
-895 
-1147 
-1042 
-696 
-710 
-975 
-942 
-427 
-223 
-277 
-299 
37 
-185 
-606 
-929 
-634 
-646 
-872 
-1135 
-866 
-625 
-735 
-1110 
-939 
-642 
-826 
-1128 
-1065 
-726 
-801 
-1023 
-1040 
-668 
-735 
-1051 
-1171 
-773 
-716 
-922 
-1206 
-875 
-634 
-818 
-1132 
-946 
-734 
-736 
-1024 
-888 
-606 
-705 
-1097 
-993 
-652 
-626 
-899 
-1062 
-700 
-653 
-798 
-917 
-562 
-496 
-707 
-983 
-630 
-423 
-588 
-962 
-718 
-402 
-532 
-893 
-732 
-438 
-509 
-824 
-869 
-512 
-796 
-1141 
-1215 
-788 
-693 
-943 
-1212 
-838 
-655 
-829 
-1197 
-869 
-730 
-929 
-1258 
-1028 
-710 
-800 
-1201 
-1177 
-737 
-782 
-1139 
-1146 
-753 
-766 
-1085 
-1179 
-767 
-733 
-877 
-1123 
-795 
-696 
-914 
-1193 
-929 
-713 
-851 
-1148 
-929 
-604 
-815 
-1196 
-1082 
-691 
-728 
-1100 
-1118 
-673 
-485 
-632 
-934 
-628 
-563 
-805 
-1093 
-823 
-654 
-826 
-1168 
-867 
-567 
-739 
-1110 
-1008 
-675 
-710 
-1056 
-1127 
-718 
-680 
-991 
-1166 
-738 
-713 
-952 
-1117 
-753 
-735 
-920 
-1169 
-837 
-668 
-920 
-1189 
-874 
-705 
-817 
-1088 
-977 
-675 
-753 
-1117 
-1159 
-744 
-751 
-1060 
-1140 
-718 
-727 
-972 
-1229 
-854 
-720 
-935 
-1244 
-896 
-665 
-816 
-1157 
-993 
-721 
-868 
-1170 
-1043 
-663 
-797 
-1160 
-1155 
-754 
-759 
-1002 
-1207 
-846 
-726 
-905 
-1182 
-875 
-736 
-929 
-1227 
-954 
-687 
-801 
-1167 
-1033 
-743 
-837 
-1119 
-1040 
-698 
-774 
-1106 
-1169 
-779 
-763 
-1017 
-1178 
-787 
-747 
-971 
-1279 
-904 
-717 
-896 
-1228 
-938 
-683 
-839 
-1086 
-889 
-532 
-486 
-604 
-381 
29 
-183 
-762 
-1074 
-712 
-682 
-974 
-1251 
-846 
-805 
-1007 
-1178 
-812 
-701 
-871 
-1182 
-942 
-703 
-839 
-1168 
-1014 
-742 
-782 
-1119 
-1173 
-826 
-816 
-1021 
-1102 
-774 
-778 
-922 
-1130 
-794 
-703 
-864 
-1097 
-870 
-698 
-837 
-1146 
-940 
-620 
-708 
-1079 
-976 
-621 
-722 
-1025 
-990 
-617 
-685 
-902 
-959 
-570 
-526 
-745 
-1042 
-676 
-516 
-669 
-1039 
-742 
-482 
-614 
-876 
-660 
-444 
-584 
-935 
-908 
-556 
-584 
-943 
-1300 
-901 
-912 
-1164 
-1293 
-1002 
-904 
-1052 
-1318 
-973 
-729 
-936 
-1247 
-972 
-846 
-938 
-1214 
-1042 
-734 
-830 
-1204 
-1181 
-805 
-823 
-1111 
-1176 
-762 
-701 
-1000 
-1278 
-879 
-800 
-985 
-1220 
-798 
-678 
-882 
-1231 
-995 
-775 
-863 
-1115 
-1053 
-773 
-749 
-772 
-807 
-512 
-562 
-861 
-1094 
-769 
-693 
-892 
-1113 
-742 
-713 
-911 
-1151 
-857 
-678 
-860 
-1235 
-975 
-709 
-797 
-1161 
-1043 
-726 
-798 
-1087 
-1109 
-762 
-796 
-1072 
-1210 
-794 
-757 
-1003 
-1223 
-871 
-733 
-913 
-1170 
-863 
-695 
-888 
-1217 
-1017 
-686 
-790 
-1086 
-993 
-694 
-813 
-1097 
-1167 
-722 
-692 
-988 
-1241 
-861 
-784 
-1000 
-1265 
-871 
-725 
-921 
-1208 
-957 
-713 
-821 
-1131 
-1026 
-815 
-878 
-1097 
-1058 
-672 
-632 
-806 
-730 
-166 
-42 
-493 
-952 
-745 
-762 
-957 
-1227 
-873 
-706 
-897 
-1269 
-987 
-704 
-892 
-1188 
-1049 
-709 
-792 
-1138 
-1206 
-774 
-781 
-1058 
-1154 
-793 
-762 
-991 
-1226 
-808 
-679 
-878 
-1179 
-871 
-676 
-825 
-1173 
-951 
-647 
-768 
-1138 
-1019 
-639 
-725 
-1039 
-1021 
-657 
-731 
-1021 
-1118 
-725 
-590 
-831 
-1079 
-709 
-556 
-759 
-1027 
-654 
-409 
-585 
-916 
-781 
-476 
-552 
-807 
-803 
-471 
-469 
-786 
-870 
-614 
-708 
-1237 
-1369 
-877 
-807 
-1079 
-1352 
-1001 
-857 
-998 
-1279 
-1007 
-796 
-947 
-1282 
-1104 
-793 
-912 
-1204 
-1154 
-809 
-806 
-1090 
-1199 
-829 
-822 
-1036 
-1227 
-882 
-770 
-933 
-1201 
-910 
-736 
-922 
-1210 
-982 
-731 
-857 
-1116 
-1088 
-773 
-830 
-1157 
-1137 
-707 
-723 
-1058 
-1257 
-819 
-731 
-676 
-840 
-580 
-583 
-799 
-1068 
-808 
-612 
-783 
-1169 
-939 
-648 
-791 
-1141 
-1065 
-695 
-768 
-1112 
-1195 
-801 
-793 
-1013 
-1119 
-760 
-683 
-952 
-1273 
-858 
-650 
-902 
-1187 
-850 
-676 
-817 
-1122 
-1058 
-754 
-841 
-1127 
-1004 
-708 
-759 
-1045 
-1144 
-783 
-699 
-1012 
-1251 
-833 
-757 
-997 
-1288 
-970 
-764 
-923 
-1235 
-1007 
-754 
-888 
-1172 
-969 
-673 
-579 
-684 
-454 
47 
-115 
-660 
-1016 
-753 
-764 
-999 
-1197 
-841 
-738 
-966 
-1281 
-998 
-735 
-851 
-1268 
-990 
-709 
-887 
-1191 
-1042 
-708 
-817 
-1170 
-1149 
-743 
-782 
-1091 
-1194 
-743 
-684 
-945 
-1196 
-869 
-751 
-912 
-1221 
-896 
-631 
-845 
-1202 
-965 
-734 
-849 
-1165 
-1008 
-653 
-685 
-952 
-1071 
-715 
-676 
-869 
-1045 
-693 
-572 
-781 
-1076 
-731 
-573 
-697 
-1024 
-726 
-534 
-632 
-1001 
-1096 
-840 
-905 
-1145 
-1063 
-748 
-856 
-1136 
-1227 
-904 
-887 
-1081 
-1238 
-922 
-876 
-1057 
-1343 
-1017 
-808 
-962 
-1279 
-1075 
-908 
-972 
-1252 
-1151 
-844 
-915 
-1232 
-1214 
-834 
-831 
-1139 
-1183 
-807 
-856 
-1093 
-1264 
-878 
-770 
-1016 
-1297 
-922 
-764 
-932 
-1278 
-988 
-658 
-462 
-861 
-883 
-640 
-664 
-985 
-997 
-703 
-770 
-1009 
-1176 
-819 
-757 
-982 
-1199 
-852 
-742 
-913 
-1211 
-957 
-723 
-899 
-1263 
-1023 
-789 
-854 
-1179 
-1116 
-809 
-870 
-1162 
-1181 
-807 
-789 
-1083 
-1268 
-874 
-832 
-1085 
-1290 
-927 
-789 
-921 
-1237 
-1022 
-751 
-814 
-1119 
-1075 
-805 
-831 
-1170 
-1145 
-742 
-761 
-1094 
-1221 
-842 
-808 
-1025 
-1206 
-873 
-794 
-998 
-1316 
-1009 
-825 
-1030 
-1326 
-1071 
-807 
-887 
-1249 
-1143 
-832 
-972 
-1265 
-1174 
-669 
-561 
-672 
-581 
-53 
-86 
-580 
-995 
-726 
-644 
-903 
-1207 
-934 
-803 
-1001 
-1257 
-1003 
-826 
-956 
-1173 
-1121 
-811 
-915 
-1189 
-1235 
-845 
-788 
-1107 
-1231 
-846 
-837 
-1014 
-1302 
-968 
-807 
-959 
-1240 
-1015 
-782 
-912 
-1234 
-991 
-698 
-865 
-1253 
-1193 
-803 
-810 
-1125 
-1181 
-816 
-771 
-990 
-1186 
-724 
-663 
-911 
-1147 
-799 
-643 
-804 
-1067 
-757 
-544 
-724 
-1100 
-1155 
-979 
-956 
-1243 
-1164 
-730 
-742 
-1033 
-1176 
-801 
-803 
-1061 
-1235 
-827 
-781 
-987 
-1343 
-1144 
-944 
-1071 
-1368 
-1226 
-917 
-988 
-1338 
-1186 
-890 
-940 
-1206 
-1239 
-881 
-918 
-1173 
-1297 
-902 
-914 
-1121 
-1303 
-957 
-841 
-1043 
-1347 
-1025 
-762 
-960 
-1345 
-1119 
-816 
-743 
-799 
-853 
-600 
-680 
-1033 
-1052 
-669 
-744 
-1006 
-1186 
-832 
-709 
-1024 
-1309 
-921 
-776 
-938 
-1293 
-1010 
-765 
-897 
-1259 
-1098 
-771 
-842 
-1230 
-1136 
-745 
-875 
-1251 
-1265 
-885 
-882 
-1153 
-1289 
-909 
-850 
-1033 
-1320 
-988 
-805 
-946 
-1309 
-1060 
-866 
-932 
-1249 
-1078 
-797 
-912 
-1223 
-1195 
-833 
-904 
-1210 
-1290 
-920 
-843 
-1028 
-1251 
-947 
-906 
-1028 
-1234 
-975 
-849 
-985 
-1298 
-1079 
-782 
-923 
-1275 
-1244 
-867 
-870 
-1236 
-1269 
-916 
-864 
-1125 
-1282 
-913 
-799 
-1021 
-1246 
-898 
-767 
-992 
-1318 
-980 
-834 
-1028 
-1357 
-1153 
-833 
-948 
-1321 
-1279 
-900 
-905 
-1232 
-1270 
-906 
-915 
-1202 
-1373 
-905 
-805 
-944 
-1036 
-457 
-118 
-214 
-648 
-570 
-581 
-854 
-1176 
-1114 
-897 
-951 
-1238 
-1287 
-949 
-926 
-1222 
-1316 
-908 
-909 
-1199 
-1410 
-978 
-888 
-1145 
-1375 
-1018 
-832 
-1025 
-1343 
-1078 
-915 
-928 
-1242 
-1184 
-872 
-957 
-1298 
-1303 
-870 
-875 
-1165 
-1290 
-872 
-833 
-1084 
-1252 
-892 
-780 
-1003 
-1296 
-970 
-767 
-860 
-1217 
-990 
-767 
-916 
-1236 
-1053 
-643 
-748 
-1282 
-1433 
-963 
-931 
-1219 
-1297 
-854 
-801 
-1040 
-1241 
-900 
-803 
-1032 
-1314 
-973 
-815 
-993 
-1344 
-1201 
-952 
-1059 
-1292 
-1295 
-947 
-1022 
-1389 
-1434 
-984 
-933 
-1195 
-1442 
-1074 
-989 
-1136 
-1432 
-1103 
-895 
-1091 
-1445 
-1195 
-909 
-1009 
-1278 
-1127 
-949 
-1032 
-1329 
-1289 
-916 
-917 
-1060 
-922 
-578 
-653 
-983 
-1215 
-830 
-796 
-1029 
-1282 
-957 
-786 
-996 
-1309 
-1081 
-832 
-946 
-1293 
-1154 
-888 
-966 
-1274 
-1285 
-911 
-936 
-1213 
-1275 
-936 
-886 
-1181 
-1412 
-987 
-850 
-1075 
-1400 
-1122 
-912 
-1020 
-1347 
-1206 
-902 
-1022 
-1390 
-1293 
-937 
-932 
-1248 
-1347 
-930 
-902 
-1216 
-1409 
-996 
-862 
-1069 
-1382 
-1093 
-910 
-1041 
-1322 
-1102 
-897 
-1052 
-1421 
-1241 
-910 
-956 
-1304 
-1291 
-906 
-912 
-1231 
-1316 
-912 
-876 
-1171 
-1348 
-933 
-852 
-1065 
-1357 
-985 
-867 
-1072 
-1348 
-1085 
-866 
-1068 
-1403 
-1234 
-885 
-994 
-1324 
-1308 
-956 
-991 
-1255 
-1378 
-1034 
-959 
-1164 
-1315 
-886 
-684 
-648 
-650 
-306 
-349 
-784 
-1332 
-1203 
-915 
-976 
-1339 
-1288 
-964 
-987 
-1306 
-1336 
-1011 
-992 
-1175 
-1364 
-1007 
-984 
-1198 
-1423 
-1087 
-987 
-1073 
-1359 
-1079 
-870 
-981 
-1347 
-1207 
-938 
-1043 
-1305 
-1180 
-819 
-899 
-1255 
-1382 
-977 
-937 
-1187 
-1340 
-934 
-909 
-1128 
-1302 
-948 
-858 
-966 
-1310 
-1052 
-818 
-942 
-1240 
-1022 
-700 
-861 
-1132 
-1035 
-679 
-754 
-1034 
-1195 
-1076 
-1041 
-1234 
-1386 
-975 
-823 
-1047 
-1346 
-1028 
-922 
-1112 
-1391 
-1142 
-941 
-1090 
-1411 
-1320 
-1027 
-1125 
-1423 
-1429 
-1045 
-1055 
-1368 
-1477 
-1052 
-1011 
-1329 
-1476 
-1108 
-1033 
-1177 
-1497 
-1213 
-1022 
-1144 
-1412 
-1218 
-980 
-1124 
-1434 
-1278 
-956 
-1022 
-1304 
-1415 
-993 
-725 
-835 
-1085 
-783 
-766 
-1049 
-1315 
-978 
-868 
-1010 
-1291 
-1111 
-945 
-1053 
-1408 
-1191 
-883 
-1007 
-1413 
-1367 
-934 
-902 
-1248 
-1381 
-993 
-961 
-1209 
-1349 
-1010 
-957 
-1123 
-1409 
-1129 
-948 
-1109 
-1428 
-1153 
-875 
-1086 
-1407 
-1273 
-943 
-1042 
-1331 
-1279 
-892 
-936 
-1235 
-1339 
-978 
-993 
-1269 
-1401 
-939 
-890 
-1102 
-1425 
-1138 
-985 
-1111 
-1387 
-1115 
-882 
-1006 
-1316 
-1290 
-1009 
-1027 
-1393 
-1466 
-1076 
-1025 
-1266 
-1433 
-1052 
-1022 
-1253 
-1443 
-1077 
-1019 
-1191 
-1460 
-1167 
-896 
-912 
-1133 
-755 
-326 
-362 
-777 
-925 
-783 
-960 
-1239 
-1314 
-959 
-955 
-1220 
-1409 
-1034 
-994 
-1226 
-1473 
-1136 
-1005 
-1143 
-1465 
-1186 
-968 
-1116 
-1471 
-1318 
-950 
-1025 
-1372 
-1307 
-960 
-1010 
-1321 
-1448 
-1064 
-984 
-1150 
-1390 
-1037 
-983 
-1246 
-1494 
-1036 
-879 
-1098 
-1470 
-1207 
-864 
-1024 
-1382 
-1189 
-878 
-980 
-1243 
-1197 
-770 
-798 
-1155 
-1269 
-834 
-801 
-1035 
-1437 
-1246 
-1055 
-1173 
-1427 
-1118 
-905 
-1066 
-1382 
-1167 
-903 
-1039 
-1380 
-1337 
-1066 
-1112 
-1395 
-1463 
-1136 
-1148 
-1398 
-1531 
-1133 
-1072 
-1328 
-1597 
-1262 
-1108 
-1249 
-1555 
-1263 
-1073 
-1200 
-1533 
-1384 
-1098 
-1169 
-1444 
-1312 
-936 
-1113 
-1455 
-1495 
-1077 
-1039 
-1283 
-1491 
-1098 
-971 
-848 
-1131 
-881 
-773 
-996 
-1329 
-1108 
-902 
-1032 
-1331 
-1183 
-857 
-971 
-1390 
-1323 
-958 
-983 
-1254 
-1357 
-963 
-914 
-1216 
-1467 
-1101 
-991 
-1212 
-1499 
-1180 
-971 
-1087 
-1434 
-1251 
-1009 
-1106 
-1498 
-1356 
-921 
-1007 
-1385 
-1394 
-1064 
-1084 
-1337 
-1463 
-1052 
-1075 
-1333 
-1539 
-1168 
-1038 
-1212 
-1538 
-1241 
-998 
-1152 
-1524 
-1288 
-1018 
-1094 
-1453 
-1392 
-1034 
-1093 
-1375 
-1403 
-1015 
-1019 
-1298 
-1475 
-1087 
-1012 
-1175 
-1487 
-1148 
-967 
-1183 
-1515 
-1162 
-914 
-1112 
-1457 
-1263 
-993 
-1122 
-1470 
-1349 
-990 
-1100 
-1430 
-1524 
-1158 
-1109 
-1337 
-1613 
-1175 
-1024 
-1280 
-1560 
-1241 
-1083 
-1240 
-1570 
-1276 
-913 
-774 
-905 
-562 
-112 
-457 
-1126 
-1262 
-890 
-992 
-1321 
-1496 
-1196 
-1185 
-1507 
-1834 
-1484 
-1373 
-1558 
-1874 
-1603 
-1439 
-1557 
-1793 
-1554 
-1327 
-1456 
-1783 
-1587 
-1232 
-1250 
-1571 
-1584 
-1163 
-1183 
-1469 
-1630 
-1205 
-1090 
-1325 
-1578 
-1226 
-1079 
-1300 
-1616 
-1268 
-1005 
-1176 
-1548 
-1321 
-1028 
-1108 
-1430 
-1318 
-972 
-958 
-1286 
-1332 
-958 
-1209 
-1522 
-1607 
-1131 
-944 
-1158 
-1352 
-956 
-753 
-964 
-1298 
-1100 
-864 
-992 
-1315 
-1173 
-925 
-1046 
-1410 
-1386 
-1049 
-1068 
-1393 
-1486 
-1130 
-1109 
-1381 
-1626 
-1218 
-1168 
-1330 
-1581 
-1274 
-1074 
-1267 
-1611 
-1359 
-1064 
-1223 
-1615 
-1463 
-1115 
-1222 
-1540 
-1522 
-1094 
-1106 
-1430 
-1560 
-1170 
-1094 
-1327 
-1393 
-802 
-747 
-980 
-1331 
-1105 
-922 
-1095 
-1457 
-1271 
-953 
-1053 
-1397 
-1322 
-972 
-1004 
-1366 
-1497 
-1093 
-1102 
-1326 
-1454 
-1100 
-1051 
-1326 
-1606 
-1197 
-1030 
-1226 
-1546 
-1287 
-1092 
-1195 
-1477 
-1310 
-1067 
-1137 
-1444 
-1458 
-1131 
-1154 
-1400 
-1443 
-1067 
-1052 
-1279 
-1559 
-1209 
-1041 
-1222 
-1552 
-1267 
-1148 
-1273 
-1625 
-1318 
-1036 
-1206 
-1537 
-1350 
-997 
-1085 
-1462 
-1509 
-1129 
-1152 
-1453 
-1492 
-1121 
-1128 
-1415 
-1676 
-1325 
-1193 
-1420 
-1772 
-1429 
-1234 
-1406 
-1700 
-1442 
-1241 
-1386 
-1698 
-1498 
-1138 
-1275 
-1593 
-1609 
-1229 
-1265 
-1518 
-1588 
-1171 
-1126 
-1354 
-1530 
-1201 
-1108 
-1315 
-1633 
-1250 
-1029 
-1239 
-1599 
-1386 
-1077 
-1181 
-1553 
-1446 
-1064 
-1151 
-1487 
-1491 
-1141 
-1207 
-1496 
-1640 
-1179 
-1178 
-1421 
-1647 
-1274 
-1126 
-1313 
-1693 
-1425 
-1098 
-1159 
-1477 
-1184 
-667 
-506 
-681 
-641 
-440 
-783 
-1270 
-1459 
-1119 
-1132 
-1404 
-1574 
-1136 
-1097 
-1391 
-1695 
-1326 
-1171 
-1321 
-1615 
-1387 
-1106 
-1183 
-1567 
-1469 
-1371 
-1539 
-1793 
-1734 
-1395 
-1385 
-1573 
-1686 
-1292 
-1244 
-1429 
-1621 
-1243 
-1123 
-1368 
-1662 
-1352 
-1110 
-1232 
-1635 
-1414 
-1096 
-1194 
-1561 
-1404 
-1079 
-1085 
-1394 
-1425 
-1007 
-986 
-1289 
-1418 
-988 
-949 
-1188 
-1455 
-1094 
-972 
-1188 
-1500 
-1147 
-940 
-1056 
-1398 
-1214 
-932 
-1086 
-1408 
-1443 
-1120 
-1094 
-1422 
-1533 
-1188 
-1218 
-1495 
-1647 
-1234 
-1176 
-1428 
-1684 
-1341 
-1207 
-1273 
-1633 
-1381 
-1164 
-1311 
-1677 
-1470 
-1170 
-1288 
-1599 
-1514 
-1084 
-1156 
-1537 
-1620 
-1174 
-1151 
-1411 
-1585 
-1162 
-754 
-979 
-1365 
-1092 
-960 
-1201 
-1529 
-1234 
-975 
-1122 
-1477 
-1376 
-1035 
-1084 
-1467 
-1509 
-1086 
-1079 
-1385 
-1560 
-1150 
-1094 
-1377 
-1616 
-1205 
-1069 
-1276 
-1601 
-1297 
-1097 
-1276 
-1613 
-1396 
-1062 
-1206 
-1563 
-1454 
-1124 
-1180 
-1530 
-1519 
-1104 
-1135 
-1439 
-1565 
-1145 
-1076 
-1400 
-1687 
-1277 
-1085 
-1280 
-1627 
-1285 
-1057 
-1314 
-1629 
-1408 
-1115 
-1209 
-1548 
-1468 
-1081 
-1178 
-1432 
-1477 
-1133 
-1199 
-1504 
-1591 
-1146 
-1104 
-1336 
-1609 
-1232 
-1072 
-1278 
-1683 
-1410 
-1114 
-1200 
-1519 
-1422 
-1136 
-1192 
-1518 
-1490 
-1103 
-1096 
-1431 
-1605 
-1171 
-1175 
-1426 
-1601 
-1138 
-1070 
-1300 
-1599 
-1302 
-1132 
-1284 
-1584 
-1369 
-1147 
-1298 
-1662 
-1484 
-1111 
-1196 
-1560 
-1643 
-1234 
-1232 
-1405 
-1438 
-1082 
-1016 
-1073 
-1090 
-568 
-484 
-906 
-1524 
-1323 
-1082 
-1229 
-1600 
-1395 
-1121 
-1200 
-1593 
-1489 
-1161 
-1275 
-1608 
-1590 
-1124 
-1113 
-1490 
-1657 
-1272 
-1190 
-1396 
-1602 
-1223 
-1153 
-1305 
-1639 
-1371 
-1125 
-1228 
-1564 
-1434 
-1114 
-1145 
-1513 
-1491 
-1133 
-1180 
-1483 
-1541 
-1143 
-1142 
-1402 
-1561 
-1134 
-1014 
-1249 
-1461 
-1055 
-1004 
-1183 
-1514 
-1248 
-994 
-1134 
-1429 
-1273 
-1004 
-1385 
-1719 
-1590 
-1103 
-1101 
-1464 
-1547 
-1104 
-1087 
-1335 
-1546 
-1161 
-1103 
-1359 
-1694 
-1402 
-1205 
-1350 
-1711 
-1515 
-1240 
-1336 
-1705 
-1565 
-1149 
-1244 
-1643 
-1614 
-1174 
-1216 
-1492 
-1663 
-1259 
-1232 
-1445 
-1631 
-1193 
-1156 
-1437 
-1787 
-1465 
-1284 
-1376 
-1708 
-1543 
-1244 
-1290 
-1544 
-1141 
-811 
-948 
-1357 
-1458 
-1061 
-1106 
-1299 
-1443 
-1134 
-1094 
-1342 
-1566 
-1265 
-1128 
-1260 
-1624 
-1383 
-1104 
-1277 
-1617 
-1399 
-1069 
-1137 
-1509 
-1513 
-1126 
-1194 
-1495 
-1597 
-1166 
-1202 
-1474 
-1632 
-1237 
-1179 
-1418 
-1669 
-1331 
-1180 
-1343 
-1707 
-1417 
-1142 
-1316 
-1645 
-1470 
-1088 
-1169 
-1568 
-1587 
-1230 
-1251 
-1552 
-1698 
-1235 
-1177 
-1432 
-1681 
-1292 
-1239 
-1452 
-1711 
-1363 
-1139 
-1295 
-1611 
-1357 
-1096 
-1165 
-1513 
-1447 
-1182 
-1262 
-1533 
-1504 
-1140 
-1164 
-1426 
-1597 
-1192 
-1197 
-1476 
-1674 
-1290 
-1166 
-1331 
-1653 
-1405 
-1192 
-1328 
-1684 
-1473 
-1185 
-1335 
-1714 
-1622 
-1265 
-1208 
-1367 
-1271 
-686 
-519 
-712 
-1099 
-979 
-1138 
-1392 
-1596 
-1233 
-1134 
-1372 
-1662 
-1448 
-1252 
-1356 
-1695 
-1475 
-1176 
-1313 
-1609 
-1609 
-1213 
-1272 
-1617 
-1678 
-1171 
-1187 
-1482 
-1679 
-1306 
-1205 
-1404 
-1725 
-1358 
-1207 
-1369 
-1677 
-1421 
-1173 
-1306 
-1633 
-1489 
-1076 
-1186 
-1548 
-1543 
-1167 
-1183 
-1467 
-1573 
-1191 
-1187 
-1392 
-1601 
-1137 
-1018 
-1262 
-1631 
-1606 
-1425 
-1360 
-1644 
-1455 
-1199 
-1301 
-1573 
-1415 
-1016 
-1078 
-1468 
-1564 
-1137 
-1164 
-1514 
-1648 
-1224 
-1208 
-1436 
-1746 
-1406 
-1233 
-1428 
-1804 
-1514 
-1268 
-1380 
-1745 
-1531 
-1259 
-1397 
-1718 
-1621 
-1265 
-1327 
-1632 
-1714 
-1323 
-1288 
-1547 
-1737 
-1274 
-1246 
-1460 
-1711 
-1370 
-1173 
-1280 
-1399 
-1151 
-984 
-1152 
-1533 
-1367 
-1085 
-1245 
-1569 
-1512 
-1097 
-1158 
-1500 
-1536 
-1152 
-1217 
-1499 
-1668 
-1292 
-1245 
-1386 
-1684 
-1336 
-1167 
-1387 
-1745 
-1475 
-1239 
-1297 
-1620 
-1510 
-1236 
-1299 
-1639 
-1678 
-1264 
-1246 
-1553 
-1672 
-1238 
-1267 
-1516 
-1688 
-1394 
-1295 
-1408 
-1669 
-1415 
-1234 
-1365 
-1726 
-1498 
-1210 
-1294 
-1728 
-1651 
-1233 
-1240 
-1631 
-1667 
-1207 
-1228 
-1595 
-1704 
-1215 
-1194 
-1465 
-1750 
-1324 
-1184 
-1340 
-1688 
-1426 
-1285 
-1460 
-1775 
-1555 
-1211 
-1307 
-1644 
-1565 
-1260 
-1278 
-1528 
-1656 
-1238 
-1140 
-1515 
-1693 
-1305 
-1277 
-1510 
-1722 
-1334 
-1216 
-1440 
-1727 
-1436 
-1235 
-1380 
-1789 
-1607 
-1258 
-1361 
-1692 
-1688 
-1317 
-1353 
-1632 
-1716 
-1350 
-1348 
-1514 
-1652 
-1238 
-958 
-850 
-919 
-611 
-678 
-1107 
-1604 
-1375 
-1095 
-1226 
-1651 
-1571 
-1261 
-1338 
-1690 
-1683 
-1295 
-1300 
-1578 
-1717 
-1252 
-1268 
-1557 
-1805 
-1419 
-1272 
-1418 
-1667 
-1426 
-1345 
-1455 
-1776 
-1582 
-1299 
-1369 
-1670 
-1577 
-1235 
-1345 
-1645 
-1685 
-1310 
-1255 
-1512 
-1654 
-1224 
-1210 
-1494 
-1870 
-1761 
-1630 
-1652 
-1841 
-1492 
-1233 
-1396 
-1796 
-1556 
-1180 
-1287 
-1601 
-1555 
-1202 
-1205 
-1569 
-1603 
-1135 
-1178 
-1506 
-1610 
-1134 
-1073 
-1363 
-1651 
-1361 
-1217 
-1405 
-1726 
-1453 
-1294 
-1391 
-1771 
-1605 
-1357 
-1462 
-1693 
-1582 
-1269 
-1435 
-1699 
-1763 
-1356 
-1343 
-1630 
-1849 
-1457 
-1418 
-1578 
-1785 
-1438 
-1214 
-1429 
-1808 
-1524 
-1215 
-1371 
-1703 
-1274 
-899 
-988 
-1412 
-1529 
-1173 
-1234 
-1506 
-1669 
-1227 
-1114 
-1381 
-1666 
-1326 
-1177 
-1350 
-1670 
-1374 
-1188 
-1411 
-1732 
-1504 
-1211 
-1342 
-1711 
-1625 
-1198 
-1335 
-1711 
-1696 
-1233 
-1251 
-1593 
-1774 
-1290 
-1292 
-1543 
-1789 
-1471 
-1277 
-1363 
-1731 
-1429 
-1199 
-1377 
-1799 
-1544 
-1187 
-1326 
-1729 
-1603 
-1242 
-1306 
-1629 
-1764 
-1371 
-1270 
-1528 
-1687 
-1358 
-1269 
-1360 
-1720 
-1403 
-1248 
-1476 
-1756 
-1493 
-1252 
-1409 
-1748 
-1542 
-1240 
-1382 
-1703 
-1630 
-1220 
-1337 
-1617 
-1700 
-1308 
-1334 
-1652 
-1839 
-1400 
-1286 
-1539 
-1822 
-1463 
-1275 
-1461 
-1825 
-1568 
-1209 
-1354 
-1712 
-1550 
-1265 
-1355 
-1659 
-1635 
-1249 
-1263 
-1535 
-1664 
-1316 
-1349 
-1620 
-1806 
-1400 
-1288 
-1505 
-1817 
-1523 
-1302 
-1447 
-1820 
-1595 
-1398 
-1527 
-1759 
-1664 
-1318 
-1341 
-1622 
-1509 
-929 
-736 
-811 
-972 
-771 
-1005 
-1402 
-1687 
-1422 
-1321 
-1498 
-1812 
-1527 
-1329 
-1437 
-1798 
-1633 
-1327 
-1391 
-1730 
-1739 
-1338 
-1372 
-1712 
-1769 
-1330 
-1337 
-1581 
-1771 
-1405 
-1321 
-1508 
-1785 
-1468 
-1333 
-1473 
-1754 
-1521 
-1285 
-1449 
-1783 
-1646 
-1295 
-1312 
-1692 
-1648 
-1287 
-1339 
-1610 
-1683 
-1256 
-1249 
-1448 
-1591 
-1273 
-1179 
-1384 
-1763 
-1681 
-1527 
-1578 
-1954 
-1647 
-1321 
-1443 
-1764 
-1608 
-1288 
-1340 
-1629 
-1656 
-1245 
-1266 
-1599 
-1733 
-1361 
-1318 
-1601 
-1869 
-1477 
-1354 
-1531 
-1852 
-1583 
-1343 
-1466 
-1840 
-1658 
-1391 
-1467 
-1764 
-1722 
-1393 
-1403 
-1750 
-1796 
-1386 
-1382 
-1692 
-1871 
-1442 
-1355 
-1596 
-1834 
-1444 
-1133 
-1093 
-1521 
-1378 
-1159 
-1320 
-1736 
-1535 
-1207 
-1316 
-1638 
-1540 
-1183 
-1317 
-1656 
-1704 
-1292 
-1330 
-1555 
-1756 
-1367 
-1243 
-1488 
-1832 
-1452 
-1236 
-1427 
-1825 
-1571 
-1293 
-1396 
-1763 
-1631 
-1320 
-1433 
-1697 
-1696 
-1275 
-1365 
-1660 
-1753 
-1336 
-1319 
-1641 
-1897 
-1442 
-1255 
-1486 
-1815 
-1485 
-1326 
-1477 
-1816 
-1546 
-1243 
-1407 
-1751 
-1628 
-1297 
-1381 
-1653 
-1709 
-1344 
-1451 
-1772 
-1819 
-1322 
-1276 
-1599 
-1806 
-1427 
-1307 
-1498 
-1776 
-1438 
-1232 
-1376 
-1736 
-1521 
-1246 
-1397 
-1750 
-1614 
-1251 
-1349 
-1680 
-1719 
-1364 
-1383 
-1638 
-1794 
-1352 
-1321 
-1549 
-1846 
-1451 
-1366 
-1592 
-1885 
-1562 
-1342 
-1505 
-1830 
-1577 
-1251 
-1390 
-1664 
-1438 
-872 
-831 
-1124 
-1296 
-1060 
-1250 
-1663 
-1825 
-1387 
-1312 
-1495 
-1750 
-1427 
-1361 
-1569 
-1858 
-1593 
-1281 
-1397 
-1748 
-1590 
-1320 
-1409 
-1789 
-1761 
-1282 
-1328 
-1684 
-1803 
-1361 
-1315 
-1559 
-1804 
-1395 
-1288 
-1532 
-1794 
-1469 
-1249 
-1435 
-1846 
-1560 
-1293 
-1417 
-1669 
-1574 
-1221 
-1272 
-1629 
-1669 
-1267 
-1262 
-1429 
-1595 
-1210 
-1214 
-1441 
-1675 
-1535 
-1480 
-1604 
-1825 
-1483 
-1254 
-1362 
-1719 
-1534 
-1222 
-1349 
-1677 
-1579 
-1239 
-1379 
-1682 
-1653 
-1265 
-1376 
-1587 
-1819 
-1565 
-1451 
-1651 
-1944 
-1536 
-1378 
-1578 
-1922 
-1651 
-1444 
-1617 
-1892 
-1675 
-1356 
-1443 
-1772 
-1717 
-1378 
-1447 
-1745 
-1809 
-1399 
-1388 
-1598 
-1475 
-1120 
-1121 
-1354 
-1722 
-1421 
-1185 
-1343 
-1744 
-1493 
-1235 
-1427 
-1776 
-1581 
-1274 
-1362 
-1611 
-1589 
-1294 
-1351 
-1643 
-1754 
-1321 
-1328 
-1604 
-1848 
-1455 
-1433 
-1600 
-1869 
-1509 
-1296 
-1479 
-1852 
-1605 
-1304 
-1362 
-1759 
-1616 
-1290 
-1359 
-1671 
-1722 
-1326 
-1334 
-1678 
-1765 
-1282 
-1327 
-1592 
-1702 
-1396 
-1315 
-1518 
-1753 
-1389 
-1204 
-1470 
-1791 
-1565 
-1305 
-1364 
-1683 
-1594 
-1223 
-1310 
-1765 
-1744 
-1341 
-1339 
-1628 
-1798 
-1434 
-1391 
-1674 
-1891 
-1526 
-1353 
-1471 
-1824 
-1597 
-1419 
-1560 
-1822 
-1597 
-1193 
-1153 
-1295 
-1014 
-559 
-900 
-1477 
-1693 
-1314 
-1334 
-1623 
-1805 
-1429 
-1370 
-1597 
-1832 
-1481 
-1363 
-1563 
-1887 
-1665 
-1418 
-1479 
-1771 
-1642 
-1367 
-1505 
-1803 
-1699 
-1381 
-1404 
-1720 
-1813 
-1430 
-1436 
-1707 
-1872 
-1423 
-1411 
-1625 
-1828 
-1508 
-1301 
-1413 
-1765 
-1617 
-1385 
-1525 
-1823 
-1607 
-1215 
-1326 
-1695 
-1646 
-1267 
-1242 
-1628 
-1986 
-1654 
-1487 
-1683 
-1821 
-1407 
-1323 
-1517 
-1760 
-1406 
-1250 
-1409 
-1733 
-1527 
-1256 
-1294 
-1691 
-1683 
-1330 
-1370 
-1722 
-1746 
-1330 
-1347 
-1644 
-1910 
-1518 
-1416 
-1605 
-1868 
-1502 
-1345 
-1597 
-1937 
-1632 
-1405 
-1561 
-1914 
-1712 
-1392 
-1480 
-1816 
-1764 
-1419 
-1443 
-1744 
-1787 
-1450 
-1437 
-1548 
-1473 
-1080 
-1161 
-1476 
-1717 
-1429 
-1313 
-1498 
-1805 
-1508 
-1309 
-1498 
-1868 
-1674 
-1304 
-1429 
-1817 
-1786 
-1447 
-1454 
-1652 
-1759 
-1424 
-1423 
-1680 
-1899 
-1500 
-1355 
-1547 
-1914 
-1555 
-1406 
-1594 
-1925 
-1597 
-1273 
-1452 
-1819 
-1736 
-1401 
-1390 
-1723 
-1750 
-1367 
-1407 
-1708 
-1830 
-1396 
-1371 
-1617 
-1862 
-1445 
-1329 
-1500 
-1784 
-1467 
-1253 
-1434 
-1801 
-1578 
-1280 
-1402 
-1748 
-1641 
-1290 
-1349 
-1690 
-1753 
-1431 
-1436 
-1695 
-1819 
-1381 
-1318 
-1555 
-1837 
-1549 
-1416 
-1556 
-1877 
-1580 
-1373 
-1539 
-1893 
-1675 
-1237 
-1103 
-1209 
-934 
-499 
-719 
-1256 
-1578 
-1267 
-1273 
-1613 
-1836 
-1437 
-1351 
-1627 
-1964 
-1614 
-1385 
-1572 
-1927 
-1606 
-1418 
-1599 
-1921 
-1792 
-1443 
-1450 
-1834 
-1835 
-1442 
-1508 
-1823 
-1901 
-1472 
-1434 
-1660 
-1857 
-1480 
-1449 
-1672 
-2004 
-1588 
-1372 
-1537 
-1880 
-1624 
-1318 
-1468 
-1851 
-1668 
-1380 
-1434 
-1741 
-1704 
-1404 
-1706 
-1970 
-1999 
-1495 
-1370 
-1614 
-1964 
-1601 
-1389 
-1472 
-1841 
-1526 
-1299 
-1447 
-1817 
-1538 
-1253 
-1416 
-1765 
-1630 
-1340 
-1376 
-1637 
-1758 
-1447 
-1439 
-1762 
-1904 
-1504 
-1425 
-1613 
-1902 
-1569 
-1428 
-1673 
-2002 
-1690 
-1443 
-1581 
-1952 
-1774 
-1499 
-1498 
-1863 
-1783 
-1395 
-1449 
-1819 
-1864 
-1493 
-1494 
-1744 
-1857 
-1186 
-1135 
-1474 
-1772 
-1414 
-1293 
-1497 
-1861 
-1626 
-1399 
-1547 
-1824 
-1612 
-1337 
-1436 
-1786 
-1790 
-1436 
-1499 
-1765 
-1805 
-1443 
-1410 
-1675 
-1940 
-1517 
-1474 
-1707 
-1964 
-1616 
-1522 
-1683 
-2049 
-1723 
-1433 
-1541 
-1845 
-1704 
-1406 
-1515 
-1825 
-1815 
-1416 
-1402 
-1741 
-1867 
-1479 
-1451 
-1659 
-1882 
-1535 
-1424 
-1579 
-1828 
-1530 
-1397 
-1550 
-1906 
-1650 
-1369 
-1481 
-1822 
-1715 
-1335 
-1390 
-1785 
-1789 
-1367 
-1337 
-1670 
-1758 
-1328 
-1378 
-1630 
-1868 
-1452 
-1355 
-1583 
-1885 
-1598 
-1437 
-1555 
-1946 
-1731 
-1377 
-1488 
-1774 
-1713 
-1465 
-1580 
-1840 
-1758 
-1265 
-1142 
-1235 
-1215 
-720 
-643 
-1123 
-1695 
-1422 
-1270 
-1544 
-1985 
-1685 
-1428 
-1596 
-1950 
-1741 
-1441 
-1529 
-1829 
-1823 
-1489 
-1565 
-1863 
-1973 
-1511 
-1469 
-1769 
-1982 
-1517 
-1420 
-1660 
-1968 
-1633 
-1431 
-1562 
-1905 
-1612 
-1414 
-1669 
-1973 
-1723 
-1347 
-1435 
-1858 
-1849 
-1447 
-1428 
-1742 
-1828 
-1414 
-1409 
-1669 
-2093 
-1829 
-1594 
-1757 
-2006 
-1656 
-1491 
-1648 
-1952 
-1605 
-1326 
-1443 
-1816 
-1651 
-1318 
-1439 
-1662 
-1670 
-1296 
-1381 
-1675 
-1801 
-1396 
-1331 
-1619 
-1925 
-1546 
-1358 
-1565 
-1931 
-1613 
-1346 
-1524 
-1956 
-1741 
-1426 
-1510 
-1861 
-1745 
-1428 
-1511 
-1881 
-1911 
-1481 
-1471 
-1711 
-1952 
-1569 
-1504 
-1696 
-1981 
-1579 
-1428 
-1702 
-2090 
-1781 
-1511 
-1659 
-2050 
-1635 
-1214 
-1346 
-1807 
-1775 
-1404 
-1446 
-1787 
-1900 
-1484 
-1502 
-1755 
-1908 
-1548 
-1508 
-1676 
-1915 
-1579 
-1489 
-1675 
-1943 
-1587 
-1387 
-1569 
-1896 
-1752 
-1406 
-1431 
-1754 
-1786 
-1419 
-1450 
-1762 
-1802 
-1370 
-1473 
-1735 
-1866 
-1433 
-1325 
-1624 
-1960 
-1604 
-1415 
-1573 
-1876 
-1629 
-1413 
-1500 
-1877 
-1774 
-1410 
-1554 
-1832 
-1722 
-1362 
-1408 
-1721 
-1887 
-1484 
-1391 
-1647 
-1842 
-1482 
-1344 
-1602 
-1921 
-1623 
-1427 
-1573 
-1951 
-1784 
-1452 
-1460 
-1820 
-1758 
-1462 
-1524 
-1807 
-1824 
-1476 
-1472 
-1776 
-1953 
-1536 
-1486 
-1798 
-2071 
-1646 
-1490 
-1700 
-1943 
-1666 
-1517 
-1670 
-1938 
-1690 
-1407 
-1373 
-1613 
-1430 
-881 
-847 
-1242 
-1595 
-1440 
-1537 
-1810 
-1929 
-1523 
-1462 
-1708 
-2002 
-1626 
-1439 
-1655 
-2073 
-1802 
-1516 
-1678 
-2022 
-1829 
-1533 
-1573 
-1872 
-1908 
-1577 
-1602 
-1836 
-1920 
-1497 
-1460 
-1721 
-1934 
-1597 
-1516 
-1712 
-2010 
-1642 
-1423 
-1580 
-1905 
-1716 
-1449 
-1567 
-1914 
-1680 
-1339 
-1433 
-1839 
-1787 
-1401 
-1713 
-2051 
-2082 
-1621 
-1498 
-1729 
-1997 
-1552 
-1391 
-1664 
-1936 
-1546 
-1341 
-1507 
-1885 
-1655 
-1397 
-1459 
-1810 
-1713 
-1408 
-1533 
-1863 
-1839 
-1430 
-1435 
-1807 
-2068 
-1592 
-1522 
-1758 
-1984 
-1631 
-1535 
-1778 
-2056 
-1716 
-1464 
-1578 
-2013 
-1839 
-1548 
-1604 
-1921 
-1808 
-1458 
-1490 
-1874 
-2029 
-1567 
-1516 
-1796 
-2022 
-1582 
-1204 
-1326 
-1726 
-1457 
-1342 
-1523 
-1884 
-1624 
-1385 
-1533 
-1889 
-1748 
-1420 
-1507 
-1846 
-1853 
-1497 
-1579 
-1906 
-1921 
-1411 
-1400 
-1704 
-1952 
-1543 
-1444 
-1652 
-1958 
-1589 
-1432 
-1660 
-1949 
-1620 
-1435 
-1679 
-1986 
-1859 
-1570 
-1567 
-1866 
-1894 
-1498 
-1584 
-1817 
-2011 
-1613 
-1524 
-1728 
-1919 
-1542 
-1500 
-1738 
-1970 
-1581 
-1449 
-1644 
-1954 
-1703 
-1413 
-1494 
-1880 
-1785 
-1429 
-1541 
-1874 
-1824 
-1387 
-1356 
-1705 
-1925 
-1597 
-1503 
-1723 
-1970 
-1617 
-1503 
-1685 
-1978 
-1629 
-1435 
-1610 
-2002 
-1780 
-1448 
-1600 
-1942 
-1794 
-1293 
-1155 
-1311 
-1199 
-746 
-981 
-1537 
-1878 
-1477 
-1376 
-1666 
-1997 
-1627 
-1501 
-1662 
-1961 
-1692 
-1429 
-1575 
-1979 
-1799 
-1465 
-1583 
-1954 
-1932 
-1509 
-1533 
-1833 
-1942 
-1463 
-1513 
-1834 
-2010 
-1543 
-1469 
-1661 
-1921 
-1617 
-1455 
-1641 
-1949 
-1682 
-1390 
-1542 
-1929 
-1717 
-1391 
-1495 
-1845 
-1793 
-1379 
-1374 
-1692 
-1817 
-1530 
-1771 
-2024 
-2137 
-1648 
-1479 
-1666 
-2009 
-1643 
-1455 
-1543 
-1920 
-1720 
-1383 
-1455 
-1776 
-1697 
-1442 
-1512 
-1818 
-1862 
-1438 
-1463 
-1822 
-1965 
-1563 
-1571 
-1840 
-2056 
-1663 
-1531 
-1752 
-2057 
-1792 
-1639 
-1740 
-2080 
-1873 
-1543 
-1694 
-1988 
-1916 
-1570 
-1619 
-1852 
-1944 
-1573 
-1617 
-1880 
-2033 
-1595 
-1567 
-1764 
-2007 
-1486 
-1125 
-1389 
-1804 
-1508 
-1307 
-1523 
-1879 
-1677 
-1391 
-1536 
-1842 
-1792 
-1398 
-1494 
-1833 
-1846 
-1455 
-1485 
-1752 
-1931 
-1546 
-1518 
-1811 
-2099 
-1672 
-1475 
-1638 
-1996 
-1756 
-1450 
-1578 
-1982 
-1807 
-1514 
-1641 
-1972 
-1888 
-1489 
-1577 
-1921 
-1958 
-1535 
-1542 
-1774 
-1986 
-1656 
-1533 
-1728 
-1998 
-1639 
-1504 
-1706 
-2045 
-1831 
-1528 
-1651 
-2010 
-1825 
-1508 
-1607 
-1905 
-1951 
-1563 
-1610 
-1873 
-2035 
-1635 
-1563 
-1792 
-2069 
-1641 
-1558 
-1822 
-2118 
-1707 
-1533 
-1716 
-2019 
-1832 
-1633 
-1741 
-1992 
-1870 
-1518 
-1677 
-1985 
-1995 
-1629 
-1688 
-1986 
-2090 
-1727 
-1698 
-1976 
-2304 
-1935 
-1768 
-1984 
-2316 
-2081 
-1872 
-2012 
-2297 
-2119 
-1860 
-1980 
-2294 
-2251 
-1884 
-1801 
-2012 
-1939 
-1268 
-1048 
-1406 
-1746 
-1572 
-1655 
-1890 
-2176 
-1886 
-1751 
-1909 
-2252 
-1925 
-1717 
-1893 
-2147 
-1906 
-1631 
-1747 
-2104 
-2048 
-1655 
-1686 
-1961 
-2062 
-1626 
-1579 
-1842 
-2061 
-1672 
-1563 
-1750 
-2121 
-1828 
-1605 
-1648 
-2004 
-1748 
-1494 
-1673 
-2043 
-1900 
-1581 
-1593 
-1888 
-1882 
-1566 
-1601 
-1960 
-2373 
-1993 
-1860 
-2043 
-2227 
-1792 
-1684 
-1929 
-2163 
-1776 
-1613 
-1780 
-2096 
-1848 
-1613 
-1658 
-1944 
-1867 
-1487 
-1526 
-1942 
-1930 
-1486 
-1512 
-1817 
-2050 
-1658 
-1629 
-1816 
-2045 
-1720 
-1568 
-1773 
-2135 
-1796 
-1554 
-1694 
-2045 
-1838 
-1541 
-1632 
-2036 
-1946 
-1625 
-1667 
-1922 
-1932 
-1588 
-1611 
-1885 
-2048 
-1585 
-1550 
-1778 
-2022 
-1665 
-1542 
-1758 
-2039 
-1622 
-1162 
-1332 
-1823 
-1700 
-1393 
-1516 
-1961 
-1908 
-1513 
-1608 
-1888 
-1979 
-1603 
-1573 
-1799 
-1976 
-1590 
-1547 
-1722 
-2049 
-1688 
-1453 
-1633 
-1976 
-1685 
-1477 
-1600 
-1945 
-1759 
-1454 
-1536 
-1848 
-1740 
-1414 
-1508 
-1821 
-1909 
-1494 
-1393 
-1629 
-1852 
-1403 
-1328 
-1572 
-1896 
-1527 
-1308 
-1478 
-1866 
-1636 
-1399 
-1517 
-1890 
-1816 
-1500 
-1521 
-1806 
-1850 
-1516 
-1539 
-1840 
-1971 
-1568 
-1546 
-1735 
-2013 
-1594 
-1477 
-1704 
-2020 
-1746 
-1532 
-1689 
-2056 
-1809 
-1476 
-1511 
-1871 
-1828 
-1544 
-1607 
-1906 
-1926 
-1554 
-1547 
-1857 
-2015 
-1588 
-1540 
-1842 
-2101 
-1662 
-1492 
-1695 
-2005 
-1740 
-1513 
-1639 
-2023 
-1841 
-1504 
-1553 
-1923 
-1906 
-1478 
-1519 
-1898 
-1973 
-1550 
-1595 
-1914 
-2099 
-1615 
-1592 
-1899 
-2131 
-1810 
-1729 
-1915 
-2249 
-2007 
-1822 
-1960 
-2291 
-2090 
-1798 
-1916 
-2305 
-2184 
-1777 
-1817 
-2186 
-2245 
-1819 
-1755 
-2001 
-2105 
-1533 
-1285 
-1257 
-1333 
-823 
-726 
-1247 
-1801 
-1494 
-1244 
-1465 
-1859 
-1658 
-1320 
-1422 
-1760 
-1742 
-1339 
-1279 
-1511 
-1672 
-1305 
-1274 
-1615 
-2113 
-1662 
-1456 
-1679 
-1925 
-1522 
-1271 
-1468 
-1840 
-1617 
-1322 
-1411 
-1801 
-1687 
-1274 
-1312 
-1734 
-1750 
-1350 
-1354 
-1634 
-1761 
-1338 
-1290 
-1575 
-1909 
-1494 
-1325 
-1573 
-1904 
-1592 
-1364 
-1530 
-1823 
-1614 
-1333 
-1500 
-1832 
-1694 
-1360 
-1443 
-1773 
-1795 
-1394 
-1384 
-1619 
-1780 
-1443 
-1455 
-1695 
-1902 
-1607 
-1449 
-1695 
-2085 
-1768 
-1516 
-1717 
-2142 
-1949 
-1733 
-1804 
-2126 
-2031 
-1640 
-1778 
-2132 
-2163 
-1728 
-1735 
-2058 
-2257 
-1818 
-1686 
-1909 
-2214 
-1877 
-1719 
-1887 
-2210 
-1895 
-1652 
-1750 
-2048 
-1892 
-1339 
-1411 
-1809 
-1737 
-1437 
-1589 
-1897 
-2009 
-1625 
-1600 
-1872 
-2057 
-1666 
-1588 
-1864 
-2179 
-1781 
-1619 
-1807 
-2097 
-1827 
-1637 
-1783 
-2118 
-1992 
-1636 
-1691 
-2046 
-2013 
-1634 
-1708 
-1994 
-2064 
-1635 
-1663 
-1868 
-2079 
-1680 
-1591 
-1844 
-2062 
-1696 
-1560 
-1732 
-2079 
-1853 
-1580 
-1613 
-1982 
-1799 
-1459 
-1562 
-1926 
-1899 
-1546 
-1600 
-1901 
-1923 
-1546 
-1536 
-1831 
-2045 
-1643 
-1516 
-1681 
-2068 
-1793 
-1577 
-1678 
-2054 
-1886 
-1627 
-1690 
-2023 
-1917 
-1522 
-1646 
-2073 
-2061 
-1619 
-1666 
-1946 
-2106 
-1674 
-1611 
-1889 
-2147 
-1775 
-1672 
-1896 
-2140 
-1802 
-1616 
-1793 
-2158 
-1864 
-1566 
-1708 
-2113 
-2037 
-1697 
-1719 
-2039 
-2113 
-1677 
-1590 
-1858 
-2097 
-1688 
-1613 
-1791 
-2031 
-1662 
-1454 
-1540 
-1870 
-1552 
-1183 
-1089 
-1296 
-1177 
-1130 
-1502 
-2013 
-1947 
-1588 
-1653 
-1951 
-2022 
-1561 
-1582 
-1915 
-2079 
-1683 
-1587 
-1761 
-2020 
-1771 
-1637 
-1751 
-2090 
-1848 
-1597 
-1742 
-2111 
-1967 
-1607 
-1637 
-2022 
-1985 
-1611 
-1628 
-1942 
-2029 
-1564 
-1545 
-1774 
-1968 
-1582 
-1504 
-1755 
-2006 
-1623 
-1451 
-1575 
-1941 
-1715 
-1431 
-1470 
-1839 
-1821 
-1837 
-1837 
-2038 
-1956 
-1555 
-1596 
-1852 
-1964 
-1522 
-1457 
-1751 
-1957 
-1512 
-1414 
-1620 
-1925 
-1634 
-1380 
-1491 
-1880 
-1679 
-1411 
-1584 
-1953 
-1863 
-1521 
-1608 
-1908 
-1937 
-1543 
-1619 
-1921 
-2047 
-1593 
-1574 
-1838 
-1999 
-1643 
-1559 
-1761 
-2077 
-1762 
-1558 
-1723 
-2099 
-1933 
-1635 
-1693 
-1982 
-1893 
-1540 
-1590 
-1961 
-1802 
-1164 
-1253 
-1661 
-1862 
-1468 
-1411 
-1592 
-1836 
-1569 
-1444 
-1661 
-2038 
-1734 
-1482 
-1610 
-1961 
-1804 
-1520 
-1607 
-1969 
-1895 
-1468 
-1555 
-1889 
-1922 
-1561 
-1518 
-1788 
-1956 
-1582 
-1507 
-1743 
-2034 
-1769 
-1608 
-1755 
-2117 
-1913 
-1793 
-2006 
-2451 
-2313 
-2002 
-2152 
-2519 
-2445 
-2033 
-1966 
-2205 
-2282 
-1721 
-1724 
-1995 
-2117 
-1745 
-1581 
-1734 
-2007 
-1731 
-1554 
-1685 
-2046 
-1831 
-1549 
-1677 
-2102 
-1938 
-1530 
-1547 
-1945 
-1991 
-1601 
-1622 
-1886 
-1998 
-1588 
-1506 
-1773 
-2040 
-1662 
-1556 
-1753 
-2054 
-1675 
-1453 
-1663 
-2015 
-1770 
-1575 
-1685 
-1962 
-1875 
-1580 
-1659 
-2027 
-2009 
-1563 
-1608 
-1967 
-2118 
-1690 
-1630 
-1871 
-2068 
-1576 
-1426 
-1647 
-1795 
-1292 
-923 
-885 
-1253 
-1304 
-1276 
-1502 
-1905 
-1831 
-1492 
-1554 
-1923 
-1996 
-1593 
-1578 
-1855 
-2046 
-1653 
-1621 
-1924 
-2167 
-1643 
-1490 
-1725 
-2107 
-1795 
-1564 
-1764 
-2049 
-1821 
-1411 
-1604 
-2033 
-1934 
-1639 
-1673 
-1960 
-1992 
-1594 
-1541 
-1861 
-2046 
-1621 
-1557 
-1812 
-2039 
-1625 
-1442 
-1645 
-1964 
-1655 
-1466 
-1590 
-2145 
-2138 
-1750 
-1768 
-2062 
-2033 
-1580 
-1605 
-1952 
-2029 
-1594 
-1561 
-1911 
-2150 
-1694 
-1585 
-1788 
-2066 
-1683 
-1525 
-1697 
-2035 
-1712 
-1407 
-1610 
-2115 
-2028 
-1609 
-1701 
-2082 
-2046 
-1651 
-1698 
-2025 
-2123 
-1689 
-1636 
-1842 
-2059 
-1580 
-1548 
-1856 
-2101 
-1816 
-1656 
-1763 
-2147 
-1950 
-1615 
-1725 
-2098 
-1964 
-1606 
-1690 
-1970 
-1934 
-1237 
-1144 
-1623 
-1819 
-1377 
-1362 
-1676 
-1956 
-1564 
-1488 
-1754 
-2072 
-1713 
-1435 
-1615 
-2019 
-1870 
-1555 
-1614 
-2006 
-1860 
-1512 
-1633 
-1957 
-1941 
-1537 
-1522 
-1819 
-2000 
-1654 
-1635 
-1857 
-2060 
-1720 
-1633 
-1755 
-2068 
-1729 
-1509 
-1717 
-2003 
-1878 
-1634 
-1710 
-1982 
-1920 
-1580 
-1636 
-1891 
-2021 
-1697 
-1654 
-1888 
-2024 
-1597 
-1564 
-1873 
-2196 
-1809 
-1651 
-1843 
-2222 
-1973 
-1840 
-2019 
-2372 
-2164 
-1811 
-1901 
-2253 
-2118 
-1667 
-1701 
-2000 
-2027 
-1665 
-1661 
-1927 
-2158 
-1841 
-1711 
-1881 
-2145 
-1812 
-1627 
-1787 
-2135 
-1855 
-1641 
-1776 
-2099 
-1918 
-1593 
-1628 
-1986 
-1961 
-1553 
-1668 
-2080 
-2144 
-1673 
-1657 
-1942 
-2146 
-1823 
-1680 
-1806 
-2111 
-1774 
-1674 
-1818 
-2173 
-1864 
-1593 
-1775 
-2127 
-1939 
-1600 
-1732 
-2041 
-2023 
-1664 
-1638 
-1917 
-2107 
-1746 
-1741 
-1933 
-2132 
-1719 
-1601 
-1820 
-2177 
-1861 
-1709 
-1837 
-2152 
-1852 
-1488 
-1629 
-1898 
-1566 
-985 
-852 
-1121 
-1335 
-1299 
-1532 
-1864 
-2039 
-1643 
-1535 
-1822 
-2117 
-1791 
-1707 
-1920 
-2203 
-1811 
-1648 
-1830 
-2156 
-1916 
-1641 
-1734 
-2076 
-1947 
-1582 
-1741 
-2053 
-2118 
-1960 
-2045 
-2236 
-2313 
-1842 
-1746 
-2020 
-2221 
-1806 
-1652 
-1864 
-2161 
-1834 
-1648 
-1687 
-1989 
-1821 
-1590 
-1771 
-2151 
-2031 
-1655 
-1620 
-1994 
-2020 
-1658 
-1673 
-1979 
-2148 
-1600 
-1527 
-1869 
-2109 
-1706 
-1591 
-1775 
-2010 
-1663 
-1512 
-1677 
-2074 
-1850 
-1471 
-1626 
-2048 
-1944 
-1537 
-1634 
-1992 
-2026 
-1594 
-1612 
-1942 
-2110 
-1700 
-1644 
-1873 
-2119 
-1777 
-1606 
-1771 
-2178 
-1876 
-1603 
-1757 
-2118 
-1926 
-1578 
-1678 
-2066 
-2008 
-1641 
-1681 
-2023 
-2099 
-1635 
-1628 
-1944 
-2137 
-1765 
-1642 
-1583 
-1824 
-1532 
-1417 
-1652 
-2077 
-1787 
-1552 
-1697 
-2080 
-1944 
-1640 
-1719 
-2052 
-1930 
-1643 
-1743 
-2000 
-2130 
-1750 
-1760 
-2036 
-2272 
-1913 
-1838 
-2034 
-2284 
-1877 
-1730 
-1941 
-2305 
-1965 
-1617 
-1730 
-2175 
-2039 
-1717 
-1808 
-2090 
-2099 
-1707 
-1712 
-2068 
-2187 
-1772 
-1709 
-1945 
-2204 
-1830 
-1679 
-1946 
-2299 
-1897 
-1711 
-1898 
-2214 
-1933 
-1707 
-1845 
-2197 
-1956 
-1541 
-1725 
-2133 
-2086 
-1722 
-1771 
-2061 
-2137 
-1747 
-1767 
-2040 
-2254 
-1834 
-1692 
-1890 
-2232 
-1922 
-1746 
-1908 
-2237 
-1947 
-1633 
-1833 
-2219 
-2037 
-1687 
-1808 
-2169 
-2136 
-1704 
-1720 
-1958 
-2073 
-1686 
-1677 
-1921 
-2159 
-1696 
-1534 
-1782 
-2146 
-1850 
-1596 
-1791 
-2157 
-1901 
-1655 
-1800 
-2140 
-2036 
-1668 
-1692 
-2073 
-2035 
-1598 
-1693 
-2023 
-2157 
-1698 
-1477 
-1576 
-1689 
-1103 
-893 
-1178 
-1757 
-1614 
-1496 
-1742 
-2124 
-1903 
-1616 
-1770 
-2109 
-2028 
-1582 
-1611 
-1966 
-1991 
-1579 
-1592 
-1904 
-2064 
-1673 
-1590 
-1846 
-2075 
-1698 
-1526 
-1688 
-1984 
-1790 
-1644 
-1733 
-2078 
-1893 
-1616 
-1783 
-2077 
-1931 
-1539 
-1625 
-2011 
-2147 
-1654 
-1615 
-1872 
-2044 
-1651 
-1578 
-1800 
-2038 
-1692 
-1522 
-1932 
-2451 
-2069 
-1776 
-1884 
-2209 
-1977 
-1607 
-1696 
-2040 
-1981 
-1578 
-1628 
-1927 
-1960 
-1556 
-1538 
-1761 
-1937 
-1559 
-1530 
-1828 
-2155 
-1765 
-1575 
-1762 
-2133 
-1889 
-1606 
-1704 
-2013 
-1890 
-1652 
-1762 
-2067 
-2066 
-1675 
-1727 
-2037 
-2076 
-1602 
-1568 
-1850 
-2141 
-1736 
-1647 
-1826 
-2000 
-1406 
-1122 
-1389 
-1843 
-1665 
-1390 
-1594 
-1985 
-1859 
-1479 
-1513 
-1916 
-1947 
-1535 
-1589 
-1850 
-1918 
-1553 
-1533 
-1814 
-2048 
-1618 
-1467 
-1682 
-2006 
-1733 
-1555 
-1731 
-2043 
-1799 
-1476 
-1608 
-1997 
-1880 
-1482 
-1580 
-1957 
-1924 
-1501 
-1500 
-1805 
-1935 
-1541 
-1507 
-1745 
-1985 
-1616 
-1576 
-1738 
-2032 
-1692 
-1499 
-1636 
-2024 
-1858 
-1652 
-1740 
-2015 
-1961 
-1587 
-1664 
-2016 
-2018 
-1581 
-1590 
-1926 
-2114 
-1649 
-1612 
-1813 
-2064 
-1767 
-1669 
-1846 
-2086 
-1721 
-1533 
-1708 
-2111 
-1910 
-1598 
-1730 
-2112 
-2023 
-1614 
-1708 
-2055 
-2123 
-1729 
-1670 
-1999 
-2227 
-1750 
-1667 
-1893 
-2196 
-1815 
-1559 
-1573 
-1744 
-1246 
-895 
-1114 
-1801 
-1805 
-1565 
-1653 
-2058 
-2009 
-1631 
-1649 
-2006 
-2086 
-1628 
-1635 
-1853 
-2045 
-1613 
-1469 
-1676 
-1946 
-1617 
-1457 
-1665 
-2065 
-1751 
-1579 
-1826 
-2286 
-2156 
-1944 
-2078 
-2375 
-2342 
-1977 
-2021 
-2372 
-2485 
-2111 
-2113 
-2359 
-2586 
-2131 
-1991 
-2243 
-2782 
-3165 
-4154 
-5660 
-7193 
-7301 
-5753 
-4696 
-4292 
-3419 
-2689 
-2578 
-2861 
-2737 
-2304 
-2306 
-2559 
-2657 
-2197 
-2141 
-2374 
-2510 
-2044 
-1920 
-2110 
-2345 
-1978 
-1807 
-1939 
-2348 
-2065 
-1750 
-1941 
-2330 
-2185 
-1859 
-1996 
-2328 
-2295 
-1889 
-1908 
-2233 
-2379 
-1893 
-1801 
-2068 
-2303 
-1851 
-1746 
-1937 
-2257 
-1931 
-1733 
-1842 
-2116 
-1944 
-1697 
-1827 
-2184 
-2030 
-1659 
-1624 
-1688 
-1724 
-1406 
-1482 
-1855 
-1993 
-1596 
-1594 
-1844 
-2137 
-1705 
-1665 
-1927 
-2213 
-1924 
-1697 
-1837 
-2147 
-1953 
-1617 
-1801 
-2245 
-2113 
-1757 
-1764 
-2085 
-2115 
-1750 
-1736 
-2049 
-2238 
-1861 
-1734 
-1957 
-2208 
-1878 
-1765 
-1902 
-2194 
-1883 
-1697 
-1841 
-2233 
-2062 
-1743 
-1794 
-2110 
-2076 
-1778 
-1850 
-2142 
-2174 
-1769 
-1766 
-2053 
-2213 
-1822 
-1729 
-1964 
-2228 
-1826 
-1700 
-1871 
-2142 
-1869 
-1625 
-1732 
-2134 
-1972 
-1594 
-1647 
-2005 
-1942 
-1505 
-1511 
-1933 
-1998 
-1565 
-1598 
-1934 
-2109 
-1694 
-1663 
-1920 
-2185 
-1737 
-1641 
-1843 
-2205 
-1890 
-1649 
-1840 
-2323 
-2226 
-1791 
-1838 
-2181 
-2028 
-1396 
-1187 
-1361 
-1413 
-1132 
-1392 
-1848 
-2120 
-1707 
-1642 
-1940 
-2249 
-1822 
-1648 
-1879 
-2225 
-1950 
-1708 
-1815 
-2196 
-1972 
-1641 
-1719 
-2063 
-2065 
-1633 
-1641 
-1969 
-2089 
-1679 
-1649 
-1939 
-2179 
-1698 
-1563 
-1878 
-2201 
-1791 
-1643 
-1800 
-2110 
-1791 
-1513 
-1709 
-2060 
-1910 
-1550 
-1616 
-1970 
-2233 
-1860 
-1806 
-2068 
-2159 
-1721 
-1608 
-1880 
-2091 
-1641 
-1480 
-1768 
-2068 
-1700 
-1462 
-1597 
-2096 
-1854 
-1565 
-1666 
-2017 
-1943 
-1541 
-1537 
-1991 
-2050 
-1659 
-1697 
-2015 
-2145 
-1727 
-1696 
-1956 
-2226 
-1835 
-1728 
-1862 
-2158 
-1858 
-1744 
-1940 
-2235 
-1976 
-1713 
-1861 
-2267 
-2097 
-1720 
-1818 
-2185 
-2201 
-1751 
-1766 
-2104 
-2286 
-1530 
-1317 
-1680 
-2053 
-1705 
-1571 
-1805 
-2152 
-1887 
-1614 
-1774 
-2173 
-1906 
-1618 
-1767 
-2192 
-2084 
-1691 
-1716 
-2027 
-2077 
-1691 
-1685 
-2019 
-2162 
-1705 
-1688 
-1941 
-2118 
-1712 
-1648 
-1888 
-2247 
-1874 
-1670 
-1757 
-2113 
-1935 
-1647 
-1787 
-2078 
-1957 
-1616 
-1675 
-2044 
-2109 
-1655 
-1739 
-2059 
-2218 
-1718 
-1610 
-1850 
-2146 
-1660 
-1587 
-1808 
-2105 
-1676 
-1474 
-1726 
-2074 
-1784 
-1435 
-1595 
-2013 
-1926 
-1559 
-1653 
-2018 
-2064 
-1617 
-1618 
-1966 
-2102 
-1624 
-1578 
-1864 
-2142 
-1688 
-1516 
-1759 
-2129 
-1818 
-1579 
-1761 
-2157 
-1958 
-1519 
-1665 
-2028 
-2034 
-1633 
-1667 
-1999 
-2125 
-1668 
-1686 
-1991 
-2221 
-1795 
-1710 
-1956 
-2246 
-1871 
-1683 
-1918 
-2213 
-1941 
-1699 
-1943 
-2308 
-2054 
-1637 
-1669 
-1967 
-1765 
-1114 
-877 
-1214 
-1647 
-1517 
-1638 
-1950 
-2216 
-1874 
-1701 
-1880 
-2276 
-1970 
-1782 
-1941 
-2271 
-1992 
-1796 
-1948 
-2319 
-2092 
-1728 
-1826 
-2202 
-2159 
-1721 
-1770 
-2139 
-2161 
-1740 
-1707 
-2025 
-2251 
-1765 
-1646 
-1864 
-2173 
-1769 
-1665 
-1858 
-2239 
-1990 
-1679 
-1760 
-2104 
-1944 
-1620 
-1744 
-2103 
-2050 
-1595 
-1594 
-2006 
-2092 
-1788 
-2044 
-2213 
-2310 
-1862 
-1716 
-1913 
-2224 
-1883 
-1640 
-1743 
-2144 
-1921 
-1496 
-1680 
-2035 
-1868 
-1570 
-1684 
-2009 
-1908 
-1560 
-1677 
-1956 
-2194 
-1795 
-1721 
-1982 
-2244 
-1810 
-1679 
-1844 
-2238 
-1952 
-1711 
-1850 
-2269 
-2036 
-1717 
-1867 
-2225 
-2104 
-1759 
-1874 
-2274 
-2231 
-1803 
-1813 
-2128 
-2281 
-1851 
-1782 
-2011 
-2375 
-1750 
-1406 
-1743 
-2137 
-1869 
-1658 
-1801 
-2177 
-1984 
-1742 
-1857 
-2254 
-2132 
-1719 
-1770 
-2076 
-2145 
-1701 
-1663 
-1943 
-2173 
-1606 
-1682 
-2032 
-2161 
-1769 
-1723 
-1919 
-2246 
-1995 
-1716 
-1818 
-2161 
-1987 
-1674 
-1729 
-2198 
-2076 
-1675 
-1857 
-2174 
-2247 
-1830 
-1844 
-2089 
-2198 
-1872 
-1818 
-2036 
-2305 
-1863 
-1678 
-1926 
-2327 
-1940 
-1647 
-1833 
-2246 
-2039 
-1692 
-1775 
-2125 
-2133 
-1743 
-1763 
-2103 
-2171 
-1710 
-1697 
-1960 
-2165 
-1773 
-1682 
-1906 
-2162 
-1821 
-1736 
-1949 
-2295 
-1984 
-1723 
-1884 
-2226 
-2007 
-1635 
-1833 
-2280 
-2171 
-1735 
-1774 
-2150 
-2181 
-1691 
-1607 
-1750 
-1851 
-1226 
-973 
-1234 
-1744 
-1617 
-1598 
-1843 
-2198 
-1839 
-1628 
-1804 
-2170 
-2003 
-1646 
-1777 
-2147 
-2062 
-1645 
-1746 
-2101 
-2115 
-1670 
-1680 
-1964 
-2168 
-1768 
-1717 
-1958 
-2253 
-1821 
-1631 
-1875 
-2260 
-2011 
-2090 
-2192 
-2484 
-2250 
-1873 
-1983 
-2299 
-2130 
-1710 
-1807 
-2116 
-2160 
-1693 
-1682 
-1931 
-2122 
-1738 
-1644 
-1867 
-2271 
-1883 
-1660 
-1867 
-2211 
-1849 
-1562 
-1685 
-2042 
-1848 
-1411 
-1604 
-1985 
-1881 
-1473 
-1514 
-1847 
-1908 
-1415 
-1462 
-1693 
-1997 
-1657 
-1528 
-1815 
-2139 
-1831 
-1732 
-1934 
-2208 
-1957 
-1766 
-1963 
-2290 
-2172 
-1841 
-1890 
-2238 
-2179 
-1805 
-1911 
-2250 
-2278 
-1842 
-1848 
-2095 
-2344 
-1886 
-1756 
-2062 
-2359 
-1921 
-1700 
-1924 
-2268 
-1964 
-1757 
-1809 
-2264 
-2078 
-1663 
-1520 
-1721 
-1847 
-1527 
-1609 
-1887 
-2013 
-1634 
-1626 
-1894 
-2103 
-1675 
-1580 
-1913 
-2193 
-1785 
-1611 
-1843 
-2214 
-1878 
-1593 
-1793 
-2201 
-2079 
-1681 
-1697 
-2031 
-2146 
-1789 
-1788 
-2041 
-2130 
-1764 
-1713 
-1954 
-2276 
-1841 
-1692 
-1901 
-2246 
-1902 
-1673 
-1872 
-2224 
-1966 
-1745 
-1860 
-2233 
-2072 
-1709 
-1768 
-2196 
-2149 
-1701 
-1744 
-2067 
-2188 
-1778 
-1713 
-1962 
-2300 
-1901 
-1737 
-1936 
-2235 
-1924 
-1725 
-1927 
-2305 
-2001 
-1663 
-1856 
-2239 
-2086 
-1765 
-1885 
-2207 
-2221 
-1874 
-1824 
-2160 
-2379 
-1928 
-1825 
-2068 
-2349 
-1985 
-1800 
-2006 
-2352 
-1971 
-1713 
-1785 
-2057 
-1559 
-992 
-970 
-1384 
-1582 
-1453 
-1589 
-1914 
-2042 
-1650 
-1705 
-2037 
-2220 
-1747 
-1724 
-1987 
-2248 
-1850 
-1687 
-1912 
-2299 
-1972 
-1770 
-1890 
-2293 
-2100 
-1705 
-1891 
-2305 
-2240 
-1858 
-1916 
-2102 
-2197 
-1880 
-1884 
-2178 
-2362 
-1816 
-1705 
-1988 
-2312 
-1898 
-1750 
-2076 
-2432 
-1986 
-1669 
-1804 
-2220 
-2058 
-1704 
-1836 
-2178 
-2023 
-1592 
-1655 
-1984 
-1983 
-1553 
-1605 
-1851 
-2014 
-1585 
-1468 
-1732 
-2036 
-1577 
-1385 
-1637 
-2003 
-1709 
-1509 
-1649 
-2076 
-1908 
-1536 
-1665 
-2081 
-2098 
-1753 
-1858 
-2192 
-2251 
-1765 
-1730 
-2069 
-2357 
-1988 
-1925 
-2091 
-2324 
-1992 
-1813 
-1983 
-2419 
-2138 
-1830 
-1959 
-2380 
-2142 
-1798 
-1905 
-2264 
-2237 
-1860 
-1892 
-2245 
-2339 
-1847 
-1828 
-2098 
-2274 
-1848 
-1706 
-1970 
-2358 
-2011 
-1780 
-1912 
-2312 
-2069 
-1806 
-1939 
-2312 
-2165 
-1842 
-1929 
-2256 
-2227 
-1752 
-1766 
-2152 
-2292 
-1899 
-1866 
-2068 
-2333 
-1908 
-1768 
-1970 
-2329 
-1967 
-1857 
-2048 
-2401 
-2085 
-1841 
-1984 
-2293 
-2131 
-1824 
-1905 
-2292 
-2286 
-1892 
-1950 
-2284 
-2414 
-1965 
-1908 
-2203 
-2461 
-2055 
-1923 
-2147 
-2459 
-2077 
-1903 
-2058 
-2490 
-2571 
-2303 
-2250 
-2508 
-2321 
-1978 
-1996 
-2318 
-2351 
-1963 
-2022 
-2298 
-2374 
-1893 
-1858 
-2133 
-2370 
-1942 
-1896 
-2201 
-2506 
-2198 
-2059 
-2318 
-2714 
-2509 
-2313 
-2619 
-3223 
-3324 
-3190 
-3232 
-3339 
-3150 
-2674 
-2527 
-2704 
-2874 
-2299 
-2048 
-2053 
-1962 
-1275 
-1221 
-1681 
-2252 
-2073 
-1944 
-2093 
-2473 
-2241 
-1916 
-2050 
-2431 
-2312 
-1906 
-1947 
-2256 
-2289 
-1884 
-1914 
-2238 
-2333 
-1965 
-1886 
-2109 
-2395 
-1931 
-1825 
-2119 
-2466 
-2075 
-1847 
-1949 
-2253 
-2116 
-1866 
-1970 
-2309 
-2204 
-1847 
-1853 
-2240 
-2261 
-1753 
-1773 
-2170 
-2295 
-1773 
-1717 
-2066 
-2329 
-1899 
-1769 
-1951 
-2248 
-1890 
-1666 
-1808 
-2084 
-1931 
-1655 
-1709 
-2013 
-1919 
-1518 
-1642 
-2043 
-2039 
-1548 
-1576 
-1977 
-2217 
-1672 
-1540 
-1906 
-2234 
-1831 
-1769 
-1970 
-2371 
-2026 
-1808 
-1914 
-2302 
-2107 
-1754 
-1909 
-2294 
-2216 
-1884 
-1952 
-2280 
-2335 
-1931 
-1831 
-2119 
-2360 
-1973 
-1910 
-2145 
-2419 
-2015 
-1829 
-1931 
-2319 
-2051 
-1822 
-2001 
-2338 
-2141 
-1762 
-1845 
-2285 
-2243 
-1855 
-1898 
-2231 
-2341 
-1944 
-1887 
-2156 
-2369 
-1995 
-1848 
-2135 
-2449 
-2005 
-1824 
-2073 
-2441 
-2117 
-1849 
-2031 
-2408 
-2184 
-1832 
-2049 
-2410 
-2284 
-1864 
-1926 
-2317 
-2398 
-1904 
-1873 
-2170 
-2349 
-1931 
-1808 
-2067 
-2355 
-2011 
-1922 
-2140 
-2451 
-1991 
-1813 
-1998 
-2399 
-2206 
-1757 
-1936 
-2432 
-2375 
-1917 
-1962 
-2203 
-2306 
-1924 
-1894 
-2129 
-2367 
-2010 
-1948 
-2211 
-2412 
-1987 
-1773 
-1951 
-2348 
-2096 
-1830 
-2004 
-2397 
-2184 
-1777 
-1837 
-2272 
-2277 
-1823 
-1870 
-2210 
-2320 
-1891 
-1861 
-2112 
-2398 
-2006 
-1892 
-2160 
-2482 
-2076 
-1834 
-2033 
-2457 
-2169 
-1891 
-2045 
-2382 
-2152 
-1887 
-1974 
-2242 
-2122 
-1569 
-1412 
-1547 
-1475 
-1214 
-1433 
-2007 
-2272 
-1856 
-1802 
-2021 
-2362 
-2008 
-1868 
-2094 
-2477 
-2198 
-1823 
-1979 
-2365 
-2230 
-1891 
-2032 
-2370 
-2386 
-1950 
-1975 
-2330 
-2420 
-1946 
-1901 
-2180 
-2394 
-1952 
-1864 
-2083 
-2314 
-2044 
-1909 
-2049 
-2357 
-2110 
-1865 
-1910 
-2300 
-2162 
-1813 
-1947 
-2248 
-2198 
-1773 
-1857 
-2143 
-2213 
-1814 
-1762 
-2033 
-2301 
-1849 
-1689 
-1874 
-2196 
-1783 
-1548 
-1817 
-2193 
-1840 
-1531 
-1647 
-2119 
-2046 
-1645 
-1687 
-2104 
-2156 
-1707 
-1744 
-2105 
-2244 
-1792 
-1770 
-2100 
-2417 
-1982 
-1861 
-2105 
-2460 
-2093 
-1877 
-2054 
-2464 
-2229 
-1900 
-1963 
-2423 
-2317 
-1873 
-1961 
-2263 
-2253 
-1859 
-1904 
-2226 
-2379 
-1898 
-1857 
-2186 
-2377 
-1928 
-1922 
-2162 
-2472 
-2144 
-1913 
-2064 
-2409 
-2163 
-1833 
-1988 
-2425 
-2288 
-1872 
-2044 
-2421 
-2358 
-1896 
-1957 
-2276 
-2427 
-1981 
-1896 
-2139 
-2433 
-2032 
-1939 
-2150 
-2509 
-2126 
-1917 
-2114 
-2461 
-2203 
-1868 
-1996 
-2418 
-2270 
-1872 
-1969 
-2297 
-2357 
-1972 
-1958 
-2213 
-2402 
-1954 
-1878 
-2145 
-2434 
-2043 
-1912 
-2045 
-2448 
-2138 
-1834 
-2010 
-2456 
-2177 
-1805 
-1959 
-2358 
-2248 
-1839 
-1864 
-2257 
-2371 
-2000 
-1991 
-2311 
-2471 
-2026 
-1926 
-2181 
-2498 
-2106 
-1951 
-2100 
-2478 
-2190 
-1866 
-1983 
-2301 
-2014 
-1505 
-1446 
-1748 
-1689 
-1466 
-1804 
-2295 
-2308 
-1868 
-1887 
-2189 
-2462 
-2013 
-1937 
-2174 
-2467 
-2053 
-1866 
-2112 
-2517 
-2175 
-1891 
-2120 
-2513 
-2239 
-1854 
-2001 
-2383 
-2282 
-1868 
-1918 
-2315 
-2403 
-1974 
-1937 
-2210 
-2365 
-1947 
-1879 
-2139 
-2416 
-2021 
-1856 
-2053 
-2416 
-2041 
-1727 
-1902 
-2358 
-2179 
-1805 
-1900 
-2209 
-2108 
-1776 
-1829 
-2134 
-2211 
-1742 
-1679 
-1922 
-2139 
-1718 
-1625 
-1876 
-2177 
-1827 
-1647 
-1798 
-2159 
-1909 
-1682 
-1804 
-2211 
-2066 
-1772 
-1875 
-2223 
-2231 
-1842 
-1899 
-2287 
-2367 
-1907 
-1936 
-2204 
-2440 
-1977 
-1930 
-2206 
-2487 
-2108 
-1894 
-2034 
-2456 
-2098 
-1870 
-2031 
-2433 
-2298 
-1911 
-1975 
-2350 
-2339 
-1911 
-1977 
-2307 
-2425 
-1979 
-1993 
-2241 
-2394 
-1981 
-1898 
-2136 
-2471 
-2117 
-1947 
-2170 
-2444 
-2174 
-1940 
-2101 
-2483 
-2281 
-1900 
-1962 
-2339 
-2348 
-1922 
-1961 
-2336 
-2439 
-1939 
-1946 
-2232 
-2433 
-2076 
-1976 
-2172 
-2455 
-2087 
-1928 
-2163 
-2535 
-2187 
-1837 
-2016 
-2384 
-2269 
-1888 
-1973 
-2385 
-2365 
-1928 
-1985 
-2240 
-2367 
-1946 
-1903 
-2174 
-2398 
-1979 
-1884 
-2119 
-2479 
-2104 
-1905 
-2033 
-2451 
-2267 
-1979 
-2081 
-2473 
-2318 
-1984 
-2025 
-2349 
-2375 
-2014 
-2004 
-2286 
-2455 
-2027 
-1911 
-2090 
-2184 
-1513 
-1224 
-1367 
-1802 
-1676 
-1707 
-1988 
-2334 
-2172 
-1921 
-2033 
-2415 
-2244 
-1855 
-1946 
-2386 
-2464 
-1991 
-1923 
-2263 
-2488 
-2033 
-1963 
-2219 
-2446 
-2002 
-1940 
-2172 
-2507 
-2175 
-1894 
-2024 
-2441 
-2194 
-1870 
-1997 
-2432 
-2267 
-1862 
-1923 
-2334 
-2392 
-1936 
-1917 
-2270 
-2416 
-1921 
-1844 
-2133 
-2362 
-1929 
-1867 
-2114 
-2404 
-1981 
-1731 
-1888 
-2294 
-2059 
-1713 
-1800 
-2195 
-2010 
-1608 
-1696 
-2066 
-2126 
-1693 
-1725 
-1993 
-2184 
-1851 
-1764 
-1970 
-2304 
-1946 
-1822 
-2060 
-2421 
-2072 
-1845 
-2011 
-2426 
-2266 
-1909 
-2023 
-2435 
-2322 
-1889 
-1990 
-2416 
-2450 
-2017 
-2045 
-2343 
-2461 
-2011 
-1939 
-2114 
-2466 
-2093 
-1969 
-2176 
-2509 
-2150 
-1828 
-2037 
-2462 
-2261 
-1929 
-2068 
-2438 
-2278 
-1840 
-1993 
-2404 
-2401 
-1941 
-1994 
-2276 
-2467 
-2016 
-1978 
-2198 
-2464 
-2105 
-1947 
-2131 
-2489 
-2169 
-1930 
-2039 
-2511 
-2341 
-1939 
-2069 
-2415 
-2378 
-1992 
-2023 
-2375 
-2473 
-2043 
-1981 
-2269 
-2511 
-2036 
-1969 
-2269 
-2540 
-2094 
-1967 
-2232 
-2580 
-2190 
-1886 
-2085 
-2489 
-2225 
-1879 
-2027 
-2368 
-2286 
-1893 
-2004 
-2303 
-2400 
-1957 
-1905 
-2209 
-2501 
-2041 
-1834 
-2116 
-2440 
-2079 
-1996 
-2216 
-2525 
-2193 
-1941 
-2083 
-2452 
-2298 
-2001 
-2078 
-2435 
-2391 
-1899 
-1845 
-2041 
-1910 
-1198 
-1133 
-1573 
-2128 
-1855 
-1752 
-2023 
-2405 
-2126 
-1919 
-2103 
-2472 
-2250 
-1920 
-2048 
-2484 
-2350 
-1978 
-2123 
-2434 
-2432 
-1899 
-1924 
-2292 
-2487 
-1954 
-1900 
-2211 
-2440 
-2005 
-1923 
-2127 
-2496 
-2134 
-1888 
-2028 
-2368 
-2120 
-1814 
-1971 
-2322 
-2194 
-1874 
-1920 
-2321 
-2269 
-1820 
-1839 
-2253 
-2398 
-1906 
-1857 
-2097 
-2313 
-1881 
-1804 
-1964 
-2262 
-1914 
-1701 
-1871 
-2197 
-1910 
-1612 
-1781 
-2132 
-1998 
-1668 
-1743 
-2148 
-2211 
-1771 
-1795 
-2199 
-2303 
-1861 
-1807 
-2052 
-2422 
-2025 
-1848 
-2110 
-2517 
-2121 
-1896 
-2061 
-2460 
-2168 
-1883 
-2072 
-2515 
-2397 
-1931 
-2021 
-2391 
-2385 
-1921 
-1945 
-2318 
-2511 
-1976 
-1845 
-2232 
-2548 
-2035 
-1904 
-2120 
-2445 
-2084 
-1892 
-2138 
-2485 
-2224 
-1894 
-1999 
-2425 
-2378 
-1977 
-2028 
-2391 
-2348 
-1923 
-1993 
-2255 
-2410 
-2019 
-2028 
-2252 
-2477 
-2067 
-1956 
-2220 
-2547 
-2163 
-1980 
-2131 
-2503 
-2262 
-1946 
-2064 
-2504 
-2421 
-1950 
-1993 
-2333 
-2402 
-2002 
-2005 
-2277 
-2435 
-2042 
-1918 
-2204 
-2500 
-2109 
-1971 
-2078 
-2410 
-2130 
-1869 
-2043 
-2425 
-2230 
-1909 
-1966 
-2375 
-2447 
-1959 
-1971 
-2326 
-2395 
-1981 
-2012 
-2338 
-2495 
-2011 
-1972 
-2299 
-2512 
-2077 
-1829 
-1947 
-2098 
-1554 
-1129 
-1251 
-1852 
-1979 
-1852 
-1971 
-2359 
-2330 
-1893 
-1930 
-2280 
-2419 
-1970 
-1983 
-2261 
-2482 
-2064 
-1969 
-2208 
-2491 
-2088 
-1934 
-2145 
-2485 
-2205 
-1933 
-2074 
-2417 
-2274 
-1943 
-2038 
-2429 
-2399 
-1905 
-2008 
-2363 
-2432 
-1952 
-1897 
-2139 
-2385 
-1992 
-1936 
-2132 
-2432 
-2049 
-1855 
-2063 
-2453 
-2156 
-1898 
-2003 
-2323 
-2169 
-1728 
-1856 
-2318 
-2268 
-1766 
-1713 
-2040 
-2174 
-1728 
-1722 
-1970 
-2169 
-1768 
-1686 
-1929 
-2287 
-1944 
-1772 
-1986 
-2301 
-2057 
-1840 
-1971 
-2360 
-2280 
-1963 
-1997 
-2363 
-2341 
-1940 
-2039 
-2367 
-2426 
-1983 
-1988 
-2314 
-2552 
-2065 
-1901 
-2192 
-2536 
-2164 
-1966 
-2118 
-2478 
-2219 
-1970 
-2052 
-2453 
-2289 
-1943 
-2101 
-2523 
-2434 
-1977 
-1965 
-2397 
-2559 
-2025 
-1966 
-2294 
-2562 
-2102 
-1934 
-2177 
-2554 
-2200 
-1952 
-2218 
-2591 
-2226 
-1908 
-2051 
-2484 
-2406 
-1923 
-1972 
-2370 
-2348 
-1919 
-1937 
-2336 
-2553 
-2093 
-2025 
-2232 
-2482 
-2064 
-1899 
-2132 
-2493 
-2188 
-1944 
-2053 
-2445 
-2178 
-1815 
-1951 
-2445 
-2350 
-1922 
-2008 
-2341 
-2344 
-1917 
-1976 
-2308 
-2479 
-2077 
-2042 
-2280 
-2462 
-2074 
-2028 
-2234 
-2544 
-2154 
-1943 
-2106 
-2501 
-2319 
-2021 
-2136 
-2484 
-2304 
-1773 
-1743 
-1852 
-1630 
-1067 
-1167 
-1778 
-2235 
-1910 
-1851 
-2178 
-2483 
-2001 
-1870 
-2200 
-2559 
-2155 
-1884 
-2089 
-2524 
-2290 
-1922 
-2039 
-2540 
-2407 
-1957 
-1980 
-2354 
-2446 
-1968 
-1987 
-2314 
-2531 
-2050 
-1982 
-2199 
-2461 
-2116 
-1960 
-2198 
-2510 
-2135 
-1851 
-2010 
-2445 
-2223 
-1885 
-1992 
-2346 
-2204 
-1822 
-1898 
-2214 
-2264 
-1794 
-1866 
-2171 
-2360 
-1839 
-1692 
-2000 
-2301 
-1872 
-1735 
-1919 
-2227 
-1919 
-1551 
-1781 
-2263 
-1971 
-1651 
-1784 
-2185 
-2120 
-1801 
-1918 
-2275 
-2374 
-1971 
-1891 
-2202 
-2450 
-2009 
-1951 
-2220 
-2543 
-2142 
-1893 
-2079 
-2489 
-2216 
-1985 
-2107 
-2491 
-2305 
-1925 
-2021 
-2400 
-2415 
-1997 
-2014 
-2347 
-2473 
-1987 
-1923 
-2244 
-2522 
-2104 
-1966 
-2148 
-2434 
-2149 
-1972 
-2212 
-2558 
-2187 
-1932 
-2114 
-2494 
-2366 
-2015 
-2079 
-2344 
-2387 
-2019 
-2004 
-2337 
-2412 
-2031 
-2023 
-2288 
-2489 
-1978 
-1891 
-2201 
-2493 
-2064 
-1995 
-2267 
-2533 
-2204 
-1951 
-2093 
-2468 
-2345 
-2004 
-2092 
-2472 
-2400 
-1919 
-1954 
-2340 
-2461 
-2017 
-1965 
-2268 
-2480 
-2036 
-1921 
-2174 
