19442.284934793108,19454.936022154812,19447.9399261403,19471.27514735164,19490.47529583875,19499.70656629879,19512.737633316236,19522.617104365483,19531.267229469686,19522.550049132115,19511.9553222603,19515.509249628692,19519.733729330746,19497.784316275636,19452.18675758681,19425.02938807361,19420.469632204728,19375.341460149462,19330.705026472217,19298.563217945484,19309.649683195315,19307.86154363889,19293.936406843237,19225.22714438762,19230.457452590163,19241.18628992871,19214.85593496036,19210.050309902468,19245.1425486973,19261.28050819403,19273.19398798871,19274.848017078402,19292.595302175916,19310.476697740163,19297.333872000443,19267.538996641517,19236.224202659632,19211.614932014338,19205.08822263339,19164.050419813448,19149.544137661953,19176.79091415297,19148.873585328292,19104.907703984703,19128.801718807426,19125.9630472616,19131.081596741868,19116.865887268294,19099.275064381967,19113.177849433167,19146.437245182664,19150.348800462343,19134.1661374767,19162.239928512565,19176.209768797133,19186.42451601321,19168.766637893517,19183.60819621184,19196.12517310681,19187.07271660241,19144.13501550377,19126.49948912853,19147.755998105527,19139.239983468055,19113.26725641099,19086.98160493155,19114.809526778405,19130.276933941477,19128.824070551884,19106.49467784103,19128.600553107328,19127.68413158466,19131.282762441966,19115.278913411967,19143.93384980367,19188.994966625567,19166.46440821462,19134.054378754423,19137.898878800737,19151.06405628491,19149.611192895318,19138.12239624529,19151.06405628491,19143.26329747001,19139.77642533498,19110.383881376252,19089.59675903282,19101.55494231641,19106.338215629843,19081.997165918012,19071.625956490752,19073.21293034708,19100.72792777156,19064.11577035377,19053.141063826213,19079.024383905456,19077.72798272705,19061.72413369705,19031.68338914912,19065.792151187918,19063.445218020108,19055.800921416394,19037.114863051756,19040.020589830947,19052.246994048,19064.11577035377,19081.483075795542,19101.130259171758,19143.956201548124,19152.762788863514,19064.004011631492,18994.71360382004,19007.319987692834,19033.24801126099,18975.42404835511,18867.509826124886,18864.44763713451,18902.80323061982,18933.670989712595,18950.390094565166,18973.300632631854,18996.14411546518,19001.41912715663,18970.081981430292,18996.72526082102,18997.351109665768,18995.004176497958,18987.89632176117,18974.5299785769,18976.206359411044,18950.90418468764,18920.93049537307,18925.40084426413,18977.391001867178,18982.844827514273,18982.844827514273,18961.007173181435,18994.71360382004,19006.157696981158,18973.859426243238,18954.838091711772,18947.640829997163,18931.1675943336,18896.298872983323,18870.370849415165,18870.437904648534,18843.884032235626,18824.505069792875,18829.62361927314,18894.622492149174,18933.514527501407,18939.147167104147,18952.289992843867,19019.76990935444,19056.180901072134,19064.026363375946,19076.49863678201,19099.364471359786,19142.70450385863,19180.993042110567,19179.383716509787,19205.42349880022,19234.257249147566,19251.646906333794,19247.8918132653,19266.44376116321,19298.451459223208,19302.877104625357,19290.538941686027,19242.99678122959,19236.648885804283,19213.581885526408,19152.382809207775,19056.426770261143,19043.77568289944,18994.37832765321,18940.17534734909,18875.467047150978,18854.88109050764,18838.58666879972,18862.815959789274,18850.366038127668,18851.662439306074,18869.87911103715,18854.63522131863,18837.58084029923,18837.558488554776,18873.187169216537,18872.650727349606,18872.98600351644,18876.584634373743,18888.431058935053,18898.3105299843,18863.173587700556,18843.1464246686,18867.06279123578,18886.285291467346,18879.915044297584,18850.79072127232,18887.134657756647,18899.07048929578,18872.002526760403,18878.193959974524,18892.767297359384,18895.695375883028,18872.6060238607,18838.07257867725,18820.97349416894,18854.769331785363,18853.67409630705,18827.455500060976,18829.511860550865,18862.34657315571,18856.98215448644,18846.54388982581,18827.254334360878,18853.16000618458,18860.64784057711,18841.224174645446,18798.554694480266,18819.16300286806,18867.129846469146,18863.48651212293,18848.935526482528,18865.83344529074,18864.045305734315,18860.02199173236,18864.894672023616,18885.950015300514,18921.22106805099,18906.915951599593,18888.4087071906,18907.854724866716,18926.205507064522,18907.653559166618,18899.584579418253,18888.676928124063,18904.859591109704,18893.54960841532,18877.411648918587,18852.332991639734,18897.483515439453,18902.378547475168,18879.803285575304,18869.029744747848,18881.010279775892,18884.765372844384,18882.351384443213,18845.716875280963,18848.91317473807,18873.678907594553,18873.522445383365,18806.489563761897,18851.193052672512,18881.88199780965,18843.369942113157,18796.319520034733,18804.321444549732,18826.852002960684,18808.523572507333,18803.606188727164,18796.52068573483,18831.232944873922,18826.91905819405,18798.353528780168,18768.71511563243,18780.069801815727,18775.890025602585,18765.608223153144,18717.99900746334,18746.206908965934,18773.029002312305,18774.10188604616,18736.75212106134,18740.350751918646,18763.596566152166,18745.692818843465,18739.36727516261,18727.02911222328,18724.41395812201,18725.4197866225,18701.19049563295,18731.253591925335,18769.832702855194,18789.211665297946,18809.797621941285,18803.516781749342,18822.046377902792,18851.81890151726,18909.464050467497,18908.50292545592,18803.136802093602,18632.72710236634,18584.20146515387,18608.07312823214,18652.374285742557,18671.21680631838,18652.508396209287,18629.910782564973,18611.805869556174,18603.133392707514,18563.05671489915,18547.499900758256,18541.353171033046,18525.43872898087,18513.61465616401,18497.364937945003,18484.75855407221,18510.552467173635,18474.99084174524,18447.811120487586,18421.994855641708,18451.119178666973,18449.532204810646,18432.67898949134,18436.61289651548,18452.616745545478,18466.56423408559,18487.597225618032,18472.219225432782,18494.481562910267,18482.076344737572,18491.799353575632,18485.294995939137,18483.305690682613,18480.04233599214,18473.739144055744,18472.241577177236,18485.205588961315,18493.431030920867,18493.028699520673,18479.640004591944,18479.12591446947,18516.98976957676,18510.775984618187,18510.507763684724,18514.173449775393,18539.00623786524,18542.358999533535,18549.06452287013,18541.084950099583,18531.741920917266,18524.43290048038,18545.33178154609,18551.85849092704,18583.374450609022,18588.403593111467,18569.896348702474,18541.084950099583,18539.296810543157,18566.90121494546,18567.52706379021,18516.90036259894,18506.70796712732,18519.023778322196,18491.620539619988,18454.248422890716,18419.11148060697,18418.418576528857,18370.92111956133,18351.34099141848,18368.127151504417,18377.894863831385,18389.87539885943,18387.34965173598,18383.482799945214,18416.339864294514,18421.614875985968,18394.50220996168,18386.477933702223,18398.145544307896,18450.962716455786,18447.542899554122,18441.195004128815,18435.36119882598,18424.006512642685,18423.514774264666,18375.659689385855,18406.370986267448,18476.7119260683,18452.393228100926,18444.726579752754,18437.864594204973,18445.777111742154,18431.986085413228,18430.801442957098,18423.090091120015,18429.59444875651,18403.778183910632,18389.92010234834,18365.7355148477,18387.34965173598,18371.546968406077,18365.31083170305,18346.848290782964,18345.7307035602,18360.54991013407,18361.7345525902,18319.53445905858,18324.16127016083,18350.24575594017,18315.24292412316,18274.540397470046,18274.85332189242,18291.751240700632,18281.24592080664,18248.925298324266,18235.089568506428,18250.46756869168,18257.597775172922,18239.47051041967,18214.145983951807,18234.284905706038,18229.65809460379,18212.55901009548,18181.55714053597,18206.725204792645,18212.626065328845,18204.80295476949,18162.40169553777,18171.610614253357,18183.97112893714,18183.099410903385,18165.26271882805,18183.255873114573,18195.281111631528,18188.59794003939,18190.96722495165,18188.955567950674,18201.47254484565,18181.73595449161,18164.25689032756,18147.671895941723,18161.038239125995,18169.59895725238,18134.171442290717,18107.326997199893,18114.05487228094,18114.077224025397,18078.15797068572,18009.493411719013,18014.142574565718,18039.623563244768,18023.507955492492,18007.99584484051,17990.405021954182,18008.75580415199,18011.99680709801,17988.259254486475,17961.101884973275,17981.017289282954,17983.78890559541,17978.536245648414,17962.621803596237,17969.66260309966,17980.88317881622,17982.067821272354,17991.723774877046,18022.323313036362,18008.308769262883,18031.800452685413,18034.594420742324,18008.88991461872,17998.250484257995,18069.463142092605,18080.460200364614,17984.772382351446,17899.34401504326,17856.071037777787,17867.44807570554,17873.930081597577,17899.321663298808,17921.472242054017,17893.644320207157,17896.81826791981,17902.719128456014,17916.17487861811,17925.607314778248,17903.88141916769,17913.716186728023,17890.69388993906,17881.19439854555,17868.29744199484,17874.533578697872,17884.59186370276,17887.855218393233,17882.557854957326,17924.40032057766,17938.817195751333,17924.02034092192,17892.750250428948,17932.9833904485,17945.656829554657,17914.342035572772,17896.505343497436,17892.414974262116,17902.0262243779,17895.700680697046,17884.92713986959,17878.623947933193,17927.01547467893,17942.237012652997,17932.201079392562,17941.07472194132,17970.333155433316,17954.105788958765,17982.22428348354,17988.46042018657,18020.289304290927,18029.542926495425,18034.32619980886,18025.363150282283,18051.84996746182,18072.793552016443,18096.19582846115,18072.34651712734,18096.039366249963,18112.423194935705,18126.549497431457,18099.190962218163,18124.515488686025,18192.88947497481,18158.624250724824,18146.040218596485,18136.138395802784,18111.573828646404,18089.177380702185,18039.645914989225,18006.297112261906,17994.160115022674,17958.6878965721,17932.871631726222,17902.763831944925,17917.58303851879,17865.749343126936,17839.597802114225,17809.378243610652,17824.15274669561,17819.928266993556,17807.321883120763,17775.917682161056,17770.061525113764,17801.04104292882,17800.03521442833,17770.642670469602,17785.70774623248,17781.818542697256,17763.17718782153,17746.301620757775,17745.474606212927,17772.006126881377,17755.0411528398,17751.80014989378,17749.85554812617,17761.56786222075,17752.425998738527,17737.94206833149,17718.049015766264,17746.905117858067,17762.66309769906,17771.357926292174,17747.307449258264,17738.299696242775,17734.969286318934,17741.31718174424,17711.83523080769,17731.884745584102,17753.65534468357,17736.019818308334,17708.75069007286,17704.2803411818,17717.46787041043,17705.777908060303,17693.104468954145,17696.680748066992,17719.725396600414,17717.736091343893,17698.602998090148,17669.456323320428,17690.958701486434,17705.107355726643,17667.042334919257,17658.571023770695,17681.123933926097,17695.719623055415,17687.538884584774,17645.092921864143,17662.773151728292,17693.55150384325,17704.794431304268,17684.655509550037,17694.26675966582,17692.590378831672,17650.323230066686,17629.62551470107,17642.142491596045,17648.468035276896,17652.580756256673,17612.705244148405,17626.004532099312,17652.983087656867,17645.808177686715,17634.006456614312,17607.117308034576,17607.452584201408,17603.742194621827,17596.075546273656,17566.32537440364,17588.833581070136,17618.29318026223,17625.71395942139,17606.714976634383,17633.425311258474,17652.73721846786,17646.92576490948,17620.64011343004,17625.57984895466,17629.06672108969,17634.14056708104,17624.037578587246,17672.049125677244,17697.351300400653,17678.79935250275,17629.24553504533,17596.991967796323,17616.370930239074,17606.089127789633,17621.91416286399,17607.162011523487,17608.48076444635,17592.923950305456,17571.555682606184,17589.19120898142,17595.33793870663,17585.61492986857,17567.778237793238,17540.732627002315,17548.488682328305,17568.895825016003,17570.728668061336,17537.156347889468,17559.508092344775,17555.1942056649,17548.0416474392,17542.118435158543,17521.37601630402,17535.971705433334,17597.34959570761,17591.58284563814,17572.114476217565,17623.29997102022,17623.456433231408,17626.272753032776,17645.003514886324,17679.894587981056,17621.9588663529,17644.556479997216,17736.712722386448,17796.436583571027,17633.380607769563,17479.690012894873,17498.04079509268,17545.962935204858,17533.110682143055,17520.70546397036,17503.584027717596,17512.502373755262,17514.066995867135,17493.16811480142,17459.573442885096,17476.158437270933,17498.018443348225,17475.376126214996,17451.795035814648,17468.201216244845,17500.79005966068,17481.567559429117,17461.965079541813,17480.98641407328,17549.04747593969,17555.57418532064,17558.166987677454,17541.42553108043,17565.52071160325,17570.86277852807,17559.32927838913,17539.99501943529,17552.13201667452,17568.091162215613,17579.8481797991,17561.452694112384,17552.95903121937,17573.120304718053,17572.47210412885,17579.62466235455,17581.613967611072,17614.694549404925,17631.525412979772,17621.310665763696,17607.899619090513,17639.192061327944,17654.368895813095,17647.462206776407,17660.40386681603,17698.155963201043,17712.729300585903,17729.224887993918,17720.060672767242,17741.764216633346,17767.17815007903,17771.402629781085,17758.93035637502,17780.52214151885,17818.38599662614,17806.76308950938,17800.370490595164,17820.79998502731,17820.554115838306,17786.6465194996,17749.207347536965,17712.55048663026,17712.50578314135,17683.94025372747,17643.371837541086,17596.76845035177,17605.753851622805,17583.80443856769,17548.108702672565,17511.98828363279,17525.511089028252,17524.259391338754,17490.55296070015,17451.45975964782,17481.23228326229,17488.496600210263,17465.22843423229,17440.015666486703,17449.090474735556,17494.576274702107,17476.851341349047,17445.849471789537,17429.0633117036,17460.199291729845,17483.355698985542,17454.968983527302,17443.323724666086,17453.44906490434,17435.41120712891,17422.69306453384,17419.183840654354,17433.10897745001,17448.822253802093,17433.53366059466,17422.536602322652,17448.822253802093,17431.343189638043,17423.900058734424,17403.11293639099,17416.50163131972,17439.859204275515,17426.35875062451,17403.627026513463,17405.57162828107,17417.73097726476,17412.500669062218,17420.748462766227,17421.575477311075,17442.496710121242,17420.0108551992,17404.074061402567,17415.182878396856,17430.06914020409,17424.816480257094,17412.120689406478,17396.697985732317,17413.931180707357,17404.72226199177,17385.0527268711,17368.713601674273,17413.372387095977,17435.902945506925,17419.854392988014,17384.270415815165,17389.277206573155,17407.02449167067,17419.854392988014,17403.58232302455,17396.72033747677,17407.359767837497,17413.752366751716,17404.92342769187,17405.77279398117,17419.92144822138,17444.486015377763,17411.11486090599,17393.769907208673,17417.574515053573,17415.987541197246,17427.074006447077,17406.175125381367,17424.16827966789,17404.878724202958,17411.986578939748,17397.68146248835,17407.672692259872,17411.316026606088,17408.67852076036,17383.890436159425,17388.137267605933,17405.72809049226,17408.834982971548,17409.572590538573,17404.431689313853,17419.58617205455,17424.436500601354,17399.044918900123,17400.788354967637,17424.92823897937,17412.947703951326,17401.593017768027,17365.360840005975,17397.63675899944,17407.1586021374,17379.91182564638,17370.278223786143,17410.176087638865,17429.957381481814,17434.338323395055,17409.751404494215,17438.138119952455,17433.824233272582,17420.927276721868,17401.414203812386,17407.516230048685,17425.0623494461,17422.760119767205,17400.63189275645,17427.051654702624,17431.097320449033,17411.047805672624,17379.24127331272,17368.892415629914,17388.427840283854,17386.81851468307,17357.694191657807,17359.616441680962,17377.87781690095,17369.160636563378,17363.773866149648,17372.826322654048,17386.192665838324,17377.0508023561,17378.905997145892,17359.57173819205,17392.898189174914,17406.286884103643,17399.961340422793,17410.198439383323,17444.39660839994,17475.957271570835,17539.905612457467,17550.27682188473,17498.197257303866,17471.710440124327,17556.22238590984,17653.765398712803,17600.501191675805,17443.323724666086,17387.176142594355,17405.504573047707,17404.990482925234,17444.575422355585,17456.064219005613,17437.109939707512,17423.1624511674,17446.341210167553,17462.903852808937,17445.380085155975,17448.509329379718,17488.675414165904,17484.875617608504,17486.484943209285,17462.3227074531,17472.2245302468,17488.518951954717,17506.400347518964,17476.31489948212,17488.563655443628,17516.57039124613,17518.962027902846,17520.66076048145,17486.060260064634,17514.066995867135,17527.880373940512,17516.458632523852,17515.81043193465,17524.058225638655,17536.798719978182,17530.339065830598,17527.14276637349,17548.265164883753,17554.680115542425,17546.655839282972,17545.068865426645,17568.359383149076,17577.970633264857,17584.296176945707,17572.33799366212,17599.607121897596,17647.573965498683,17648.669200976994,17635.191099070442,17649.451512032927,17692.232750920386,17694.713794554926,17696.12195445561,17722.94404780198,17744.021742823334,17752.001315593876,17755.398780751086,17745.80988237976,17783.673737487046,17796.011900426376,17803.72325226346,17780.65625198558,17797.017728926865,17793.754374236392,17754.281193528317,17704.526210370805,17700.234675435386,17693.73031779889,17662.54963428374,17597.662520129983,17572.136827962022,17594.086241017132,17559.172816177943,17509.104908598056,17514.201106333865,17533.0883303986,17516.279818568208,17492.385803745485,17482.104001296044,17507.629693464005,17486.909626353936,17463.440294675864,17445.514195622705,17478.348908227552,17483.623919919006,17480.82995186209,17471.665736635416,17499.113678826532,17512.2341528218,17495.202123546856,17474.772629114705,17496.967911358824,17505.863905652037,17512.211801077345,17495.693861924872,17489.122449055012,17511.675359210418,17532.306019342665,17511.51889699923,17511.764766188237,17548.533385817216,17549.449807339886,17521.04074013719,17517.576219746617,17538.452749067874,17542.341952603096,17557.205862665876,17549.695676528892,17553.897804486493,17559.932775489426,17551.50616782977,17544.08538867061,17563.352592391086,17577.590653609117,17576.0483832417,17563.531406346727,17572.695621573403,17584.497342645805,17580.8987117885,17575.735458819327,17579.937586776923,17606.714976634383,17617.823793628668,17596.634339885037,17601.127040520554,17628.239706544842,17627.658561189004,17588.96769153687,17580.630490855037,17608.659578401992,17621.355369252607,17638.029770616267,17628.552630967217,17641.91897415149,17644.69059046395,17631.145433324033,17610.067738302678,17639.527337494772,17659.845073204648,17654.68182023547,17656.96169816991,17669.29986110924,17684.230826405386,17683.0238322048,17661.700267994438,17665.276547107285,17698.848867279157,17723.234620479896,17692.255102664843,17690.69048055297,17728.353169960163,17738.098530542677,17718.384291933096,17702.15692545854,17737.629143909115,17739.350228232175,17725.134518758598,17725.82742283671,17740.579574177216,17738.098530542677,17729.157832760553,17714.31627444223,17764.22771981093,17769.078048357733,17750.50374871537,17742.345361989184,17773.414286782063,17807.321883120763,17821.738758294436,17802.784478996335,17800.750470250903,17824.979761240455,17829.24894443142,17828.80190954231,17850.460749919504,17880.16621830061,17885.15065731414,17855.221671488485,17835.9097642791,17863.58122391477,17869.30327049533,17857.993287800942,17832.869927033178,17852.29359296484,17856.093389522244,17850.39369468614,17837.988476513445,17864.072962292787,17859.736723868456,17834.121624722677,17805.33257786424,17819.302418148807,17839.262525947397,17846.68330510656,17819.123604193166,17824.264505417887,17857.188625000552,17843.598764371727,17822.319903650274,17827.52786010836,17841.8106248153,17853.612345887705,17835.932116023556,17825.76207229639,17874.220654275498,17883.586035202272,17913.559724516836,17932.759873003946,17987.32048121935,18037.27663007696,18015.975417611055,17938.34780911777,17972.590681623304,18116.267694982016,18137.010113836543,17977.08338225882,17883.362517757716,17924.556782788848,17950.149530190174,17926.747253745467,17945.36625687674,17974.55763513537,17971.249576955983,17973.32828919033,17972.12129498974,17999.055147058385,18003.458440716084,17990.695594632103,17982.201931739084,18019.931676379645,18032.314542807882,18020.736339180035,18019.551696723902,18056.633240775256,18073.039421205453,18077.465066607605,18070.513674082,18082.9188922547,18100.241494207563,18116.088881026375,18087.38924114576,18099.794459318455,18144.609706951345,18138.418273737225,18136.74189290308,18143.31330577294,18180.88658820231,18187.346242349893,18172.102352631373,18186.049841171487,18240.69985636471,18254.200310015716,18263.76685664259,18265.04090607654,18299.66375823781,18323.20014514925,18341.01448548013,18342.355590147446,18372.86572132894,18406.370986267448,18423.671236475853,18411.645997958898,18437.126986637948,18475.974318501274,18480.154094714417,18473.78384754465,18501.410603691413,18549.779778692697,18546.33761004658,18525.81870863661,18531.294886028158,18542.984848378284,18534.960572118827,18514.70989164232,18504.025757792682,18502.461135680813,18454.583699057544,18401.095974575994,18352.92796527481,18361.82395956802,18364.39441018038,18326.39644460636,18283.19052257425,18284.173999330284,18317.366339846416,18325.927057972796,18308.827973464486,18345.417779137824,18372.373982950925,18391.6411866714,18401.319492020546,18403.286445532616,18434.93651568133,18450.828605989052,18445.66535301988,18449.688667021834,18480.958757514807,18497.543751900645,18489.161847729905,18477.94127201334,18505.255103737727,18513.346435230545,18546.918755402417,18581.63101454151,18630.111948265072,18649.222689774357,18674.010774375292,18668.60165221711,18694.104992640616,18711.069966682193,18709.952379459428,18699.111783398603,18695.13317288556,18678.771695944273,18655.79410264422,18603.133392707514,18608.162535209958,18623.16055573947,18622.26648596126,18614.510430635266,18613.72811957933,18636.45984369038,18644.26060250528,18655.97291659986,18634.179965755935,18652.150768298005,18675.977727887363,18678.145847099524,18657.35872475609,18672.200283074413,18670.769771429274,18668.042858605728,18647.434550217935,18669.65218420651,18664.13130332605,18652.284878764734,18626.06628251866,18640.326695481148,18649.40150373,18640.863137348075,18639.276163491748,18656.5540619557,18672.423800518965,18670.054515606706,18651.726085153354,18656.710524166887,18691.84746645063,18714.020396950295,18709.930027714974,18703.068042167193,18746.475129899398,18745.58106012119,18746.653943855043,18739.054350740236,18755.080551514693,18774.414810468534,18766.368182464623,18754.722923603407,18793.346738022177,18805.461383516955,18808.523572507333,18791.737412421397,18763.06012428524,18779.578063437708,18783.5343222063,18774.615976168632,18765.27294698631,18799.448764258475,18819.498279034888,18802.823877671228,18774.683031401997,18812.032796386815,18817.30780807827,18798.75586018036,18788.92109262003,18787.892912375082,18796.498333990377,18810.311712063758,18810.53522950831,18832.26112511887,18851.125997439147,18850.83542476123,18827.075520405237,18825.041511659805,18850.16487242757,18863.799436545305,18861.407799888588,18856.53511959733,18877.32224194077,18852.377695128645,18837.558488554776,18857.33978239772,18885.07829726676,18873.38833491663,18851.751846283896,18838.519613566354,18874.43886690603,18887.3581752012,18846.521538081353,18816.3913865556,18838.273744377344,18862.391276644623,18861.139578955124,18835.59153504271,18869.11915172567,18876.91991054057,18860.714895810474,18840.53127056733,18878.68569835254,18913.107384813713,18931.234649566966,18934.118024601703,18946.523242774398,18980.073211201812,18986.42110662712,18982.688365303085,18985.929368249104,19061.075933107848,19089.485000310542,19094.603549790805,19166.352649492343,19221.47205131913,19166.26324251452,19117.692901813138,19173.169931551212,19279.29601422501,19166.978498337092,18994.71360382004,18971.24427214197,19056.62793596124,19050.81648240286,19009.219885971535,18949.60778350923,18940.331809560277,18917.443623238043,18890.174495002568,18849.807244516283,18842.565279312763,18878.819808819273,18893.013166548393,18913.08503306926,18905.485439954453,18940.622382238198,18944.422178795598,18928.2171640655,18897.662329395098,18910.335768501256,18907.519448699888,18868.381544158645,18806.95895039546,18806.02017712834,18808.43416552951,18804.120278849638,18710.17589690398,18673.094352852626,18682.929120412962,18701.12344039958,18665.98649811584,18653.89420436552,18652.21782353137,18640.997247814805,18607.02259624274,18599.11007870556,18596.472572859835,18563.25788059925,18519.38140623348,18506.149173515936,18532.703045928843,18511.80416486313,18498.10254551203,18498.48252516777,18483.529208127165,18398.033785585616,18391.507076204667,18441.709094251288,18464.262004406693,18494.79448733264,18504.60690314852,18522.890630112965,18545.71176120183,18537.732188431288,18505.18804850436,18478.053030735617,18471.213396932293,18447.74406525422,18447.4534925763,18417.25628581718,18347.87647102791,18328.743377774164,18310.347892087448,18261.9116618528,18244.8572808334,18203.08187044643,18125.118985786317,18070.446618848637,18016.71302517808,17984.75003060699,17933.743349759978,17901.73565169998,17826.32086590777,17780.119810118653,17746.301620757775,17739.529042187816,17753.342420261197,17758.550376719282,17759.824426153235,17748.827367881226,17737.405626464562,17735.192803763486,17785.528932276837,17838.614325358194,17799.766993494868,17816.553153580804,17868.610366417215,17914.54320127287,17929.98825669149,17918.678273997102,17944.382780120704,18002.542019193414,17988.974510309043,17980.32438520484,18048.877185449266,18105.11417449882,18135.154919046752,18141.100483071863,18119.128718272295,18221.36559741087,18314.885296211876,18321.255543381638,18384.6897941458,18429.303876078593,18487.507818640213,18534.021798851707,18575.663098771944,18622.937038294916,18650.54144269722,18659.63860269053,18701.32460609968,18771.41967671152,18813.15038360958,18812.47983127592,18825.130918637624,18886.151181000612,18948.691361986563,18980.967280980025,18968.159731407133,18987.67280431662,19029.2917524924,19049.564784713362,19057.030267361435,19032.800976371884,19011.410356928154,18996.613502098742,18982.643661814174,18974.798199510362,18945.584469507274,18917.823602893783,18863.5535673563,18782.081458816705,18682.21386459039,18606.933189264917,18408.427346757337,18093.75948831552,17786.981795666434,17478.527722183197,17265.18032135729,17105.991197346593,17007.50941127651,17022.64154227275,17013.209106112612,17001.921475162682,16976.84281788383,16984.330652276356,17021.479251561075,17024.161460895713,17061.444170647166,17098.168086787235,17118.329360285923,17147.856014711382,17210.239733486145,17246.069579848,17299.110269440447,17332.95081054578,17375.732049433238,17464.26730922071,17536.731664744817,17614.91806684948,17658.97335517089,17703.319216170217,17801.219856884465,17891.185628317075,17984.347699206795,18094.944130771655,18198.298597132994,18251.294583236526,18228.18287946974,18301.071918138496,18406.16982056735,18457.109446180995,18459.970469471275,18531.674865683897,18604.228628185825,18658.185739300938,18689.858161194108,18739.434330395976,18774.19129302398,18784.42839198451,18776.3817639806,18785.367165251635,18845.225136902947,18903.943169587037,18868.31448892528,18859.373791143156,18939.705960715528,19010.695101105583,19048.223680046045,18974.93230997709,18920.371701761687,18959.08492315828,19025.2907902349,19054.90685163818,19084.88054095275,19091.653119522707,19146.660762627216,19175.69567867466,19220.890905963293,19265.281470451533,19278.178427002244,19183.295271789466,19096.145820158225,19167.716105904117,19308.174468061265,19250.015228988555,19082.69006999613,19081.84070370683,19131.014541508503,19093.01657593448,19083.87471245226,19120.64333208124,19172.432323984187,19198.092126618878,19144.157367248223,19126.924172273182,19152.896899330248,19188.726745692104,19178.288481031475,19194.60525448385,19229.272810134033,19234.70428403667,19218.65573151776,19217.71695825064,19223.126080408823,19248.2941446655,19252.18334820072,19215.928818694214,19248.227089432134,19248.785883043514,19247.33301965392,19260.453493649184,19263.023944261546,19217.64990301727,19209.558571524452,19239.174632927734,19221.315589107944,19168.36430649332,19182.75882992254,19195.0299376285,19239.308743394464,19256.608993602873,19266.533168141028,19274.1998164892,19304.262912781585,19304.24056103713,19304.86640988188,19311.43782275174,19366.289003645063,19414.278198990607,19421.676626405315,19423.353007239464,19422.973027583725,19503.305197156096,19524.315836944086,19474.203225875288,19524.874630555467,19557.418770482396,19539.738540618247,19543.761854620203,19579.546997493148,19621.858849747045,19610.50416356375,19577.915320147913,19548.34396223354,19579.546997493148,19589.895855175957,19545.572345921082,19476.28193810963,19472.929176441336,19460.769827457647,19442.95548712677,19398.207294727243,19347.759407491616,19346.73122724667,19310.320235528976,19248.04827547649,19271.182330987733,19259.738237826616,19247.176557442734,19221.650865274773,19178.80257115395,19206.42932730071,19242.32622889593,19202.785992954494,19210.497344791573,19245.276659164032,19251.42338888924,19267.29312745251,19303.748822659116,19381.376431152396,19468.9952694172,19492.03991795062,19493.47042959576,19523.310008443597,19560.704476917326,19553.48486345826,19529.233220724254,19555.608279181513,19607.911361206934,19639.762597055746,19640.097873222574,19641.818957545634,19689.85285638009,19720.89942942851,19721.681740484448,19735.830394724657,19766.42993288397,19766.04995322823,19746.603935552113,19749.62142105358,19767.68163057347,19766.832264284167,19739.8090052377,19681.18037953143,19663.45544617837,19661.60025138858,19622.574105569616,19587.146590607954,19566.9182618759,19539.649133640425,19523.28765669914,19482.80864749058,19454.28782156561,19454.243118076698,19420.1343560379,19389.06543124502,19397.1791144823,19374.78266653808,19299.636101679338,19204.79764995547,19134.322599687886,19127.59472460684,19087.92037819867,19002.827287057316,18980.632004813197,18972.115990175724,18936.017922880405,18937.493138014455,18902.17738177507,18921.332826773265,18938.163690348112,18919.611742450208,18936.68847521406,18944.93626891807,18937.426082781087,18929.60297222173,18924.015036107903,18885.79355308933,18866.97338425796,18872.851893049705,18897.125887528167,18902.758527130907,18917.533030215865,18889.749811857917,18873.723611083464,18887.916968812584,18933.246306567944,18934.743873446452,18923.970332618992,18891.157971758603,18882.26197746539,18886.709974611997,18886.464105422987,18847.750884026394,18867.77804705835,18861.83248303324,18837.02204668785,18855.5516428413,18878.842160563727,18845.471006091953,18799.225246813923,18768.402191210054,18755.013496281328,18780.583891938197,18810.91520916405,18773.252519756858,18772.067877300728,18762.411923696032,18738.227336195392,18683.01852739078,18660.756189913296,18683.867893680082,18655.034143332738,18642.941849582417,18615.672721346942,18624.568715640155,18619.852497560085,18648.30626825169,18645.4005414725,18689.992271660838,18753.739446847376,18715.76383301781,18593.388032125,18594.6397298145,18766.211720253435,18851.01423871687,18722.37994937658,18612.319959678647,18697.70362349792,18798.062956102247,18778.01344132584,18793.503200233365,18852.82473001775,18888.699279868517,18895.02482354937,18912.70505341352,18970.99840295296,19018.652322131675,19007.834077815303,19004.078984746815,19054.52687198244,19092.770706745472,19119.88337276976,19110.920323243183,19146.325486460388,19170.93475710568,19170.957108850136,19169.347783249355,19237.00651371557,19278.513703169072,19275.339755456418,19279.251310736097,19287.275586995554,19288.63904340733,19291.365956230875,19295.836305121935,19284.66043289428,19315.30467454251,19320.892610656334,19335.980038163667,19311.840154151938,19343.959610934213,19360.097570430946,19390.048908001056,19359.806997753025,19354.59904129494,19392.440544657773,19385.533855621085,19373.68743105977,19411.193658255776,19450.51037675266,19464.36845831495,19438.0381033466,19441.50262373717,19474.270281108653,19443.648391204883,19456.9923826447,19482.987461446224,19496.8008395196,19506.9038280134,19501.58411283304,19465.57545251554,19488.173066159852,19485.110877169478,19473.219749119253,19436.585239957007,19424.314132251042,19391.904102790846,19330.146232860832,19256.363124413863,19231.128004923823,19199.388527797288,19155.757922620527,19088.322709598866,18992.14315320768,18916.437794737554,18849.941354983017,18753.18065323599,18723.408129621523,18742.161243219525,18704.78912649025,18655.637640433033,18633.621172144554,18646.138149039525,18677.98938488834,18667.5064167388,18662.901957381007,18723.966923232903,18749.738484589874,18765.608223153144,18762.881310329594,18812.97156965394,18838.67607577754,18849.069636949258,18829.310694850767,18846.85681424818,18894.086050282247,18927.45720475402,18950.390094565166,18959.822530725305,18983.895359503673,18991.964339252037,19026.67659839113,19063.087590108826,19051.039999847413,19045.116787566756,19077.951500171603,19076.900968182203,19079.761991472482,19103.901875484215,19084.567616530374,19084.321747341364,19087.003956676002,19087.003956676002,19095.989357947037,19105.578256318364,19145.029085281978,19153.299230730445,19126.991227506547,19105.39944236272,19112.842573266338,19155.98144006508,19167.447884970654,19149.23121323958,19162.575204679397,19190.961920137637,19196.549856251462,19179.160199065234,19193.755888194548,19212.196077370176,19189.55376023695,19154.081541786378,19153.50039643054,19163.64808841325,19185.016356112523,19163.04459131296,19155.243832498054,19171.158274550235,19149.186509750667,19153.455692941632,19149.07475102839,19167.000850081546,19165.525634947495,19127.862945540302,19099.342119615332,19103.83482025085,19081.63953800673,19026.38602571321,18957.967335935515,18939.258925826423,18950.166577120614,18912.83916388025,18878.059849507794,18862.413628389077,18856.892747508617,18804.746127694383,18770.078572044204,18785.00953734035,18808.590627740698,18818.850078445685,18828.10370065018,18839.793663000306,18897.237646250447,18908.100594055726,18918.69532092754,18914.917876114592,18900.858628852206,18893.996643304425,18926.674893698084,18927.479556498474,18983.604786825752,18999.675691089116,18993.104278219256,18966.66216452863,18986.80108628286,19022.519173922443,19034.030322316925,19022.876801833725,19026.162508268655,19052.00112485899,19053.588098715318,19054.884499893727,19106.427622607665,19165.011544825025,19183.69760318966,19147.80070159444,19165.905614603238,19272.992822288612,19206.13875462279,19111.434413365652,19121.425643137176,19291.47771495315,19305.11227907089,19137.653009611728,19069.614299489775,19147.97951555008,19203.054213887957,19231.642095046296,19227.015283944045,19239.219336416645,19271.53995889902,19289.53311318554,19286.96266257318,19260.47584539364,19267.67310710825,19281.754706115094,19287.119124784367,19279.96656655867,19297.892665611824,19307.68272968325,19305.894590126823,19317.070462354477,19335.600058507927,19334.549526518527,19355.0684279285,19341.187994621756,19351.24627962664,19372.860416514923,19377.241358428164,19370.871111258402,19387.769030066615,19412.69122513428,19418.569733926026,19399.436640672284,19404.17521049681,19428.628018930915,19435.288838778597,19449.07986510752,19449.75041744118,19468.458827550272,19491.704641783792,19514.123441472464,19486.250816136697,19489.916502227366,19498.67838605385,19511.843563538023,19510.413051892883,19563.118465318497,19596.93665467938,19598.098945391055,19575.635442213472,19625.479832348807,19654.358286185063,19663.410742689462,19662.583728144615,19681.023917320243,19697.00541460579,19733.483461556847,19747.274487885774,19754.896432745034,19763.63596482706,19713.545705502715,19680.867455109055,19667.5905189026,19675.570091673148,19654.805321074167,19590.655814487436,19562.44791298484,19559.184558294364,19536.788110350146,19504.221618678763,19473.95735668628,19472.23627236322,19471.31985084055,19419.50850719315,19406.36568145343,19398.69903310526,19379.87886427389,19392.64171035787,19376.526102605596,19371.094628702955,19394.89923654786,19388.819562056015,19348.38525633636,19345.74775049064,19372.391029881364,19370.669945558304,19354.464930828206,19334.68363698526,19350.88865171536,19371.921643247802,19364.858491999923,19357.750637263136,19391.010033012633,19374.827370026993,19368.613585068415,19368.568881579504,19391.568826624018,19410.768975111125,19387.053774244043,19360.566957064504,19370.0217449691,19388.730155078192,19389.55716962304,19375.632032827383,19364.143236177355,19374.69325956026,19383.946881764758,19383.276329431097,19335.845927696937,19353.906137216825,19346.35124759093,19337.1646806198,19331.219116594686,19372.68160255928,19390.69710859026,19363.696201288247,19345.613640023905,19367.518349590107,19398.36375693843,19396.75443133765,19381.376431152396,19406.0304052866,19425.31996075153,19435.80292890107,19409.338463465985,19417.832126359,19439.13333882491,19441.770844670635,19399.324881950008,19398.520219149617,19413.36177746794,19426.0352165741,19429.41032998685,19442.687266193305,19473.935004941824,19467.318888583053,19459.831054190523,19442.910783637857,19473.689135752815,19501.96409248878,19493.51513308467,19482.115743412465,19522.34888343202,19543.113654031,19533.278886470664,19481.13226665643,19476.32664159854,19468.324717083542,19453.21493783175,19422.45893746125,19423.241248517188,19419.039120559588,19402.45412617375,19360.030515197577,19358.108265174422,19350.419265081797,19329.05099738252,19306.565142460484,19325.83234618096,19377.442524128262,19366.8701490009,19323.597171735426,19329.833308438458,19393.46872490272,19401.627111628906,19393.088745246976,19373.530968848583,19404.532838408093,19420.827260116013,19393.02169001361,19400.84480057297,19450.689190708305,19474.694964253304,19501.13707794393,19490.587054561027,19520.180764219855,19586.45368652984,19606.056166417144,19509.56368560358,19454.80191168808,19544.25359299822,19674.631318406024,19591.996919154753,19435.17708005632,19417.854478103458,19471.968051429754,19481.735763756726,19447.71640869575,19477.690098010316,19444.36364702745,19426.8845828634,19406.56684715353,19445.548289483584,19440.675609192327,19430.17028929833,19409.338463465985,19418.0332920591,19424.26942876213,19426.236382274197,19419.55321068206,19441.837899904003,19467.721219983247,19455.114836110453,19444.43070226082,19450.17510058583,19470.202263617786,19475.47727530924,19461.954469913777,19463.56379551456,19504.109859956487,19522.885325298947,19503.215790178274,19507.417918135874,19539.023284795676,19529.412034679895,19513.028205994156,19518.839659552534,19526.036921267143,19500.310063399087,19489.313005127075,19473.17504563034,19449.392789529895,19439.379208013917,19426.839879374493,19392.015861513122,19379.02949798459,19348.809939481012,19299.09965981241,19275.67503162325,19279.743049114117,19294.76342138808,19268.00838327508,19217.381682083807,19193.21944632762,19212.79957447047,19193.286501560986,19132.959143276115,19054.66098244917,19031.392816471198,18977.32394663381,18890.21919849148,18824.86269770416,18778.952214592962,18710.265303881803,18626.647427874497,18542.71662744482,18525.081101069583,18486.211417461804,18431.89667843541,18414.909352649374,18420.60904748548,18412.763585181667,18388.087259303007,18414.819945671552,18464.17259742887,18524.321141758104,18557.088799129582,18584.045002942683,18615.605666113577,18678.54817849972,18707.024300935784,18735.85805128313,18714.065100439206,18753.694743358465,18785.948310607473,18786.66356643004,18806.489563761897,18829.601267528687,18860.357267899188,18870.214387203978,18853.62939281814,18906.804192877316,18963.018830182413,18993.23838868599,18982.28603390289,18998.37928991071,19065.792151187918,19074.241110592022,19065.59098548782,19087.92037819867,19155.869681342803,19170.93475710568,19171.717068161615,19165.03389656948,19203.680062732707,19195.834600428894,19171.962937350625,19180.50130373255,19216.442908816687,19227.14939441078,19232.91614448025,19217.784013484004,19224.064853675944,19237.453548604673,19200.84139118688,19167.090257059368,19171.27003327251,19161.83759711237,19156.20495750963,19157.83663485487,19177.193245553168,19203.121269121322,19243.466167863153,19172.611137939828,19173.393448995765,19239.576964327927,19250.596374344394,19244.963734741657,19245.209603930667,19281.53118867054,19311.326064029465,19311.2590087961,19293.846999865415,19318.81389842199,19337.92463993128,19355.761332006616,19351.335686604463,19366.98190772318,19383.432791642284,19390.004204512144,19378.493056117662,19404.666948874827,19445.1906615723,19419.17323102632,19411.79715535607,19459.04874313459,19509.831906537045,19507.015586735677,19469.88933919541,19473.778542730637,19498.00783372019,19518.683197341346,19520.62779910896,19510.748328059715,19531.691912614337,19523.041787510134,19503.081679711544,19492.48695283973,19520.761909575693,19517.364444418483,19503.19343843382,19473.75619098618,19477.801856732593,19492.799877262103,19470.694001995802,19436.60759170146,19466.916557182856,19497.359633130985,19491.03408945013,19497.516095342173,19524.941685788835,19557.552880949126,19577.177712580888,19554.96007859231,19547.472244199784,19567.74527642075,19578.138837592465,19529.859069569,19504.311025656585,19544.454758698317,19462.535615269615,19315.125860586868,19303.100622069913,19406.902123320357,19312.890686141334,19066.82033143286,18937.18021359208,18942.678742728083,18933.89450715715,18888.855742079704,18835.01038968687,18813.239790587402,18806.86954341764,18771.91141508954,18738.09322572866,18752.621859624607,18773.47603720141,18784.875426873616,18795.11252583415,18836.843232732204,18897.796439861828,18938.834242681773,19004.34720568028,19048.73777016852,19144.336181203864,19193.66648121673,19245.25430741958,19293.042337065024,19369.462951357717,19432.964257355245,19498.61133082048,19528.897944557422,19567.700572931837,19606.36909083952,19608.984244940788,19601.138782636976,19641.55073661217,19691.506885469782,19683.594367932605,19670.004507303776,19701.18519081893,19744.324057617672,19760.752589792322,19782.746706336344,19783.35020343664,19821.683445177492,19855.233413604907,19843.722265210425,19857.021553161332,19918.62296088016,19955.61509795369,19959.303135788818,19961.068923600786,20024.10084296475,20048.01720953193,20061.338849227293,20055.326229968814,20093.637119965213,20126.069501169863,20139.860527498786,20132.17152740616,20138.6535332982,20174.416324426693,20157.27253642947,20114.89362894221,20102.60016949179,20090.954910630575,20045.223241475018,20008.566380568314,19976.223406341483,19976.446923786036,19958.6102317107,19937.443129711526,19907.71530958597,19904.451954895492,19889.386879132617,19875.573501059236,19870.27613762333,19892.87375126764,19919.673492869555,19906.28479794083,19893.231379178927,19914.376129433647,19921.819260337266,19887.50933259837,19877.808675504766,19900.965082760464,19934.202126765507,19934.42564421006,19916.812469579276,19897.27704492534,19919.22645798045,19911.6492166101,19873.494788824893,19852.618259503637,19873.78536150281,19880.893216239598,19879.105076683176,19840.05657911975,19847.343247812183,19833.35105578316,19790.05572677323,19748.0120954528,19747.252136141316,19737.32796160316,19721.7040922289,19698.48062973984,19693.51854247076,19691.32807151414,19668.261071236262,19642.26599243474,19593.852113944544,19596.042584901166,19594.9249976784,19557.19525303784,19536.206964994308,19507.015586735677,19465.866025193456,19423.397710728375,19409.89725707737,19451.449150019784,19508.200229191807,19586.02900338519,19636.141614453987,19701.252246052296,19727.04615915372,19746.447473340926,19741.79831049422,19774.185988209963,19797.945892565953,19806.9759973259,19816.654302675048,19879.440352850004,19946.227365282462,19990.975557681984,20035.053197747853,20051.16880550013,20083.511779726956,20100.096774112793,20104.254198581482,20134.116129173774,20203.13831605176,20206.222856786593,20217.06345284742,20254.077941665404,20305.330491701425,20318.003930807583,20308.839715580907,20283.02345073503,20312.415994693758,20346.435349754734,20346.07772184345,20313.131250516326,20325.849393111395,20344.624858453855,20299.519038143044,20252.80389223145,20277.971956488127,20267.01960170503,20239.81752870292,20211.27435103349,20172.98581278155,20178.03730702845,20181.680641374667,20132.640914039723,20103.941274159108,20106.08704162682,20086.26104429496,20041.982238528995,20000.58680779777,20012.321473636803,20006.889999734165,19996.89876996264,19981.453714544026,20007.29233113436,20016.38949112767,20016.85887776123,20033.82385180281,20095.55936998837,20036.841337304275,19940.639429168634,19933.956257576498,20049.045389776875,20056.86850033623,19872.958346957963,19780.310366190715,19841.375332042615,19908.385861919625,19900.56275136027,19889.118658199153,19868.242128877893,19880.80380926178,19908.8999520421,19891.823219278245,19864.487035809405,19879.55211157228,19887.621091320645,19866.878672466122,19817.749538153355,19815.044977074263,19808.0265293153,19756.57281357918,19703.71093794238,19668.70810612537,19643.584745357603,19589.91820692041,19525.656941611403,19488.57539756005,19430.863193376445,19390.831219056992,19359.87405298639,19238.012342216058,19141.341047446855,19131.752149075528,19081.81835196237,19024.933162323614,19013.086737762304,18963.84584472726,18891.06856478078,18832.93167745253,18826.15909888257,18779.131028548603,18704.90088521253,18614.510430635266,18556.038267140182,18516.207458520825,18470.76636204319,18457.109446180995,18478.924748769376,18467.994745730728,18466.765399785687,18478.52241736918,18514.46402245331,18579.172322651426,18598.506581605267,18605.994415997793,18664.69009693743,18695.78137347476,18689.813457705197,18698.307120598212,18722.357597632123,18774.459513957445,18774.012479068337,18762.501330673855,18727.118519201103,18764.04360104127,18773.29722324577,18731.94649600345,18692.51801878429,18687.757097215308,18688.494704782333,18682.102105868114,18668.825169661664,18682.146809357026,18692.830943206664,18696.18370487496,18698.776507231774,18732.304123914735,18799.605226469663,18844.331067124735,18880.2056169755,18880.809114075793,18859.19497718751,18814.312674321256,18797.504162490866,18803.516781749342,18847.90734623758,18871.77900931585,18866.794570302318,18867.576881358254,18943.371646806198,18981.414315869133,18970.3278506193,18991.025565984914,19073.324689069355,19078.95732867209,19084.098229896812,19053.72220918205,19065.56863374336,19089.552055543907,19114.183677933655,19099.31976787088,19108.68514879765,19149.812358595416,19108.640445308738,19073.928186169647,19117.44703262413,19195.0299376285,19179.04844034296,19158.998925566546,19118.54226810244,19106.964064474592,19088.233302621044,19069.703706467593,19051.419979503153,19087.450991565107,19080.611357761783,19074.1517036142,19053.029305103937,19020.172240754633,19037.00310432948,19054.72803768254,19058.617241217762,19089.842628221828,19107.07582319687,19102.225494650065,19132.40034966473,19113.49077385554,19016.730072108516,18968.047972684857,18944.198661351045,18912.4144807356,18995.13828696469,19074.77755245895,19062.215872075067,19047.508424223473,19076.275119337453,19067.49088376652,18963.197644138058,18859.485549865432,18894.622492149174,18813.99974989888,18692.5627222732,18559.234566597293,18389.026032570127,18282.698784196233,18238.64349587482,18108.511639656026,17931.30700961435,17772.676679215037,17609.777165624757,17455.103093994036,17312.29779866908,17136.546032017,16918.72828230003,16705.135012285114,16473.414477516948,16311.699606382801,16192.318939247007,16061.494178950094,15926.243773251032,15769.781562063881,15610.547734564274,15479.767677756272,15383.319900431623,15368.455990368842,15329.139271871958,15310.408510018411,15295.11991681098,15271.4047159439,15297.399794745423,15266.330869952544,15215.972389694738,15260.809989072084,15341.857414467027,15411.214877511846,15496.755003542306,15637.749807566383,15749.441474609552,15786.210094238531,15874.90181623719,16005.637169556281,16182.595930408948,16107.181144616741,16084.22590306114,16222.627904728402,16422.11722399202,16558.865196569586,16669.506331623357,16793.759679050407,16961.68833514313,17104.359520001355,17243.99086761366,17356.330735246032,17482.50633269624,17658.191044114952,17814.317979135274,17827.505508363905,17875.271186264898,17963.47116988554,18013.874353632254,18034.39325504223,18040.33881906734,18053.6604587627,17998.831629613833,17878.467485722005,17746.815710880248,17655.285317335765,17508.74728068677,17342.91968857285,17134.62378199384,17006.302417075924,16890.207456375058,16763.94245194703,16561.592109393136,16331.167975803373,16176.136276261364,16068.400867986784,15907.490659653027,15776.26356795592,15623.668208559538,15361.482246098787,15206.517601790143,15104.146612184837,15074.776419970563,15064.181693098748,15130.476967153189,15245.968430753761,15370.020612480714,15535.31176272771,15734.599916291229,15941.130035058266,16125.9566099592,16291.98536777322,16429.158023495438,16571.829208353665,16730.616000964164,16851.896566378662,16963.968213077573,16985.671756943673,17017.411234070212,17013.946713679637,17026.687208019164,17036.03023720148,17121.279790554025,17182.41181163929,17201.07551825947,17231.94327735225,17262.341649811468,17372.692212187318,17457.047695761645,17462.278003964188,17519.52082151423,17617.48851746184,17708.102489483656,17779.695126974002,17846.14686323963,17952.429408124615,18044.67505749167,18132.53976494548,18204.668844302756,18299.373185559893,18367.277785215116,18439.540975039123,18486.211417461804,18579.082915673604,18647.032218817738,18696.340167086146,18730.225411680392,18764.021249296817,18812.211610342456,18908.346463244732,18963.59997553825,18975.692269288575,19054.325706282343,19091.787229989437,19063.512273253476,19110.138012187246,19174.868664129815,19199.433231286195,19222.27671411952,19247.780054543025,19265.125008240346,19242.14741494029,19259.961755271168,19225.584772298906,19271.09292400991,19293.265854509576,19257.011325003066,19264.208586717676,19314.790584420036,19306.833363393947,19294.53990394353,19298.406755734297,19337.87993644237,19327.978113648667,19314.611770464395,19331.643799739337,19325.78764269205,19380.817637541015,19419.30734149305,19395.860361559437,19403.83993432998,19454.354876798974,19472.012754918665,19455.248946577187,19463.988478659212,19512.38000540495,19501.13707794393,19482.652185279392,19481.020507934154,19539.29150572914,19568.460532243316,19521.566572376083,19472.57154853005,19485.222635891754,19534.038845782143,19550.19915702333,19541.39256970794,19550.646191912438,19575.948366635843,19585.425506284893,19555.809444881612,19544.745331376234,19581.983337638776,19578.608224226027,19580.64223297146,19593.114506377522,19657.196957730885,19653.84419606259,19625.144556181975,19598.74714598026,19627.49148934978,19647.608059359558,19622.77527126971,19612.02408218671,19632.02889347421,19652.637201862002,19643.249469190774,19594.16503836692,19587.146590607954,19614.013387443232,19592.73452672178,19570.472189244294,19577.78120968118,19609.475983318804,19591.035794143176,19579.748163193246,19596.131991878985,19622.015311958232,19604.849172216556,19591.415773798915,19583.79382893966,19627.93852423889,19626.68682654939,19596.86959944601,19588.10771561953,19617.63437004499,19670.295079981697,19708.203638577896,19749.129682675564,19826.511421979838,19865.246995120884,19826.645532446568,19814.843811374165,19987.823961713788,20103.382480547727,19948.976629850466,19800.0246048003,19840.615372731136,19900.719213571458,19902.283835683327,19875.148817914585,19866.20812013246,19901.07684148274,19891.577350089236,19837.620238974123,19828.21015455844,19872.10898066866,19870.767876001344,19847.969096656932,19822.108128322143,19831.942895882476,19854.40639906006,19856.820387461234,19837.866108163133,19864.30822185376,19859.949631684976,19862.855358464167,19843.051712876764,19852.618259503637,19857.11096013915,19872.578367302223,19876.042887692798,19868.353887600173,19911.89508579911,19890.102134955185,19858.273250850827,19860.21785261844,19903.267312439362,19915.13608874513,19896.80765829178,19888.693975054503,19943.723969903465,19950.921231618075,19942.025237324862,19942.829900125256,19968.444999271036,20010.712148036022,20036.327247181805,20014.75781378243,20052.487558422992,20098.666262467654,20121.062710411872,20117.106451643285,20171.84587381433,20233.559040255434,20240.644543247767,20239.705769980643,20247.998267173563,20293.05938399546,20322.518983187554,20316.05932903997,20306.44807892419,20350.7045329457,20347.37412302186,20303.63175912282,20281.659994323254,20279.089543710896,20229.58042974239,20183.625243142276,20113.440765552612,20079.488465725,20067.038544063395,20047.190194987084,20009.86278174672,19991.422592571093,19968.243833570938,19953.201109552516,19890.437411122013,19871.50548356837,19904.206085706483,19864.285870109306,19845.041018133285,19843.74461695488,19881.22849240643,19893.589007090213,19850.584250758202,19853.668791493033,19896.964120502966,19912.6997485995,19908.452917152994,19892.44906812299,19914.152611989095,19925.32848421675,19908.877600297645,19916.030158523343,19957.783217165856,19963.304098046316,19976.80455169732,19959.057266599808,19947.635525183145,19967.99796438193,19950.22832753996,19907.737661330422,19941.734664646945,19968.780275437864,19966.567452736792,19952.351743263214,19919.718196358466,19945.847385626723,19957.85027239922,19967.841502170744,19958.52082473288,19992.607235027222,19997.85989497422,19960.57718522277,19931.162289519583,19975.597557496734,19970.00962138291,19961.203034067516,19950.563603706792,19957.71616193249,19967.10389460372,19970.166083594097,19932.101062786707,19936.593763422225,19951.345914762725,19952.731722918954,19928.211859251485,19920.18758299203,19951.05534208481,19916.298379456806,19885.49767559739,19909.50344914239,19935.47617619946,19924.881449327644,19909.168172975562,19870.41024809006,19897.500562369893,19910.665739854066,19909.36933867566,19882.748411029388,19915.046681767308,19901.5462281163,19875.08176268122,19858.31795433974,19861.536605541303,19863.07887590872,19884.245977907896,19868.82327423373,19850.517195524837,19878.389820860604,19896.02534723584,19858.60852701766,19874.008878947363,19914.376129433647,19930.447033697015,19898.88637052612,19874.5900243032,19901.233303693927,19907.245922952407,19866.45398932147,19845.97979140041,19886.861132009166,19898.193466448007,19884.402440119084,19851.321858325227,19835.250954061863,19853.26646009284,19851.12069262513,19835.854451162155,19857.714457239446,19897.478210625435,19880.60264356168,19890.437411122013,19936.66081865559,19984.113572134207,19996.00470018443,19995.222389128496,20005.52654332239,20039.970581528018,20046.474939164513,20025.129023209694,20030.15816571214,20086.573968717334,20092.340718786803,20115.675939998146,20146.543699090922,20192.18596126866,20260.00115394606,20288.030241493016,20188.386164711257,20145.850795012808,20245.00313341655,20350.41396026778,20222.04789186095,20089.010308862962,20092.67599495363,20139.145271676218,20140.46402459908,20144.174414178662,20189.056717044918,20179.780743095966,20180.495998918534,20164.827426055363,20185.212216998603,20188.788496111454,20182.57471115288,20181.635937885756,20223.031368616983,20219.119813337304,20184.98869955405,20175.690373860645,20226.942923896662,20212.816621400907,20209.955598110628,20211.09553707785,20200.836086372863,20169.163664479693,20133.825556495853,20109.73037597303,20104.23184683703,20107.383442805225,20094.754707187978,20082.573006459836,20085.74695417249,20121.397986578704,20166.88378654525,20194.935225836663,20202.91479860721,20232.41910128821,20249.361723585334,20258.257717878547,20238.275258335503,20280.54240710049,20295.652186352276,20299.653148609777,20307.476259169132,20341.40620725229,20366.440161042236,20359.354658049902,20350.570422478966,20397.732603279663,20427.773347827595,20430.589667628967,20411.14364995285,20437.94339155476,20467.24652853567,20477.61773796293,20465.14546455687,20504.4398313093,20550.484424887232,20538.5485933481,20500.66238649635,20481.350479286968,20504.4398313093,20480.746982186676,20433.987132786173,20395.85505674542,20392.70346077722,20350.056332356493,20296.72507008613,20289.4384013937,20335.751215905097,20303.83292482292,20289.21488394915,20273.836883763895,20279.246005922083,20313.511230172066,20310.270227226047,20278.53075009951,20273.54631108598,20278.508398355058,20305.19638123469,20312.617160393853,20316.50636392908,20325.82704136694,20320.484974442123,20305.978692290628,20289.281939182514,20298.177933475727,20320.26145699757,20313.39947144979,20317.042805796005,20323.860087854875,20332.77843389254,20334.097186815405,20273.568662830432,20345.183652065236,20358.617050482877,20305.106974256872,20293.4393636512,20332.77843389254,20342.747311919607,20308.996177792094,20291.941796772695,20320.060291297472,20376.92312919177,20346.569460221464,20302.603578877875,20321.379044220335,20345.92125963226,20338.053445583995,20328.866878612862,20296.00981426356,20325.849393111395,20326.07291055595,20342.970829364163,20333.292524015014,20388.814257241997,20368.07183838747,20360.002858639105,20383.069858916984,20388.568388052987,20460.25043252116,20456.607098174944,20386.243806629634,20432.511917652122,20438.122205510404,20401.755917281618,20387.60726304141,20415.837516288462,20431.819013574008,20414.13878370986,20396.011518956606,20366.328402319956,20396.70442303472,20387.22728338567,20380.052373415518,20337.87463162835,20350.65982945679,20369.815274454984,20339.036922340027,20311.11959351535,20294.44519215169,20289.706622327165,20305.129326001326,20245.651334005754,20268.20424416116,20303.20707597817,20257.944793456172,20241.71742698162,20255.82137773292,20275.356802386857,20273.032220963505,20232.374397799304,20191.47070544609,20215.09649933535,20245.114892138827,20236.420063545713,20214.314188279415,20233.268467577516,20241.873889192808,20217.28697029197,20182.485304175058,20183.89346407574,20203.160667796215,20171.287080202947,20119.095756899806,20151.148158448716,20168.716629590588,20161.6087748538,20118.872239455253,20133.266762884472,20174.6621936157,20166.83908305634,20140.911059488186,20134.049073940405,20175.645670371734,20186.486266432556,20159.954745764106,20173.142274992737,20204.72528990809,20214.38124351278,20201.171362539695,20203.540647451955,20326.899925100795,20369.99408841063,20261.81164524694,20184.832237342864,20283.06815422394,20382.041678672038,20280.184779189203,20095.425259521635,20081.254253536972,20120.79448947841,20131.165698905672,20087.803314662375,20100.566160746355,20115.07244289785,20086.17163731714,20043.569212385322,20045.670276364122,20086.12693382823,20109.12687887274,20120.615675522768,20124.862506969275,20157.98779225204,20194.264673503003,20233.939019911173,20257.229537633604,20307.565666146955,20312.17012550475,20319.59090466391,20328.866878612862,20386.80260024102,20389.194236897736,20338.45577698419,20317.199268007193,20365.099056374915,20379.627690270867,20367.624803498366,20354.101998102906,20351.106864345893,20369.435294799245,20379.314765848492,20347.150605577302,20366.998954653616,20391.585873554453,20380.27589086007,20351.46449225718,20370.307012833004,20424.08530999247,20428.242734461157,20411.970664497694,20411.210705186215,20454.03664756258,20467.648859935864,20482.110438598447,20450.77329287211,20468.520577969623,20492.928682914815,20515.25807562567,20505.110383642957,20525.76339551966,20522.209468151268,20521.20363965078,20515.10161341448,20523.86349724096,20544.67297132885,20511.21240987926,20472.365078015933,20465.458388979245,20481.77516243162,20458.484644709188,20395.542132323044,20373.011573912096,20375.49261754663,20329.82800362444,20316.148736017793,20293.372308417835,20295.696889841187,20275.848540764873,20234.922496667208,20183.915815820197,20190.978967068073,20204.032385829974,20175.75742909401,20134.518460573967,20169.476588902067,20162.681658587655,20131.009236694485,20132.819727995364,20159.84298704183,20141.6039635663,20142.922716489164,20151.572841593366,20135.099605929805,20151.729303804554,20136.194841408116,20119.006349921983,20144.420283367668,20179.110190762305,20155.260879428493,20124.97426569155,20103.561294503368,20131.344512861313,20154.255050928004,20143.995600223017,20123.186126135126,20130.36103610528,20140.061693198884,20144.867318256776,20125.644818025212,20158.121902718773,20145.962553735084,20137.200669908605,20136.50776583049,20133.266762884472,20158.725399819064,20154.54562360592,20147.281306657947,20121.12976564524,20138.94410597612,20142.98977172253,20171.398838925226,20171.398838925226,20191.694222890645,20195.42696421468,20196.544551437444,20169.856568557807,20203.786516640965,20213.71069117912,20223.836031417373,20170.57182438038,20182.70882161961,20222.271409305504,20205.28408351947,20177.545568650436,20176.38327793876,20184.496961176035,20174.729248849064,20150.298792159414,20165.90030978922,20170.214196469093,20160.5582428644,20139.16762342067,20126.538887803425,20162.18992020964,20157.42899864066,20162.525196376468,20151.304620659903,20181.635937885756,20161.407609153703,20145.89549850172,20158.568937607877,20220.818545915907,20195.404612470225,20192.3647752243,20179.24430122904,20216.43760400267,20258.302421367458,20211.65433068923,20169.409533668702,20183.401725697724,20220.416214515713,20207.13927830926,20177.165588994692,20162.011106253995,20162.972231265572,20144.532042089944,20109.55156201739,20084.517608227445,20111.83143995183,20121.420338323158,20065.138645784697,20030.493441878967,20071.710058654557,20096.296977555394,20101.25906482447,20065.83154986281,20083.578834960324,20110.60209400679,20090.954910630575,20060.668296893633,20096.855771166775,20106.08704162682,20074.504026711467,20033.019189002418,20072.78294238841,20140.106396687795,20114.08896614182,20070.100733053772,20100.432050279625,20200.120830550295,20139.659361798687,20052.264040978436,20094.575893232333,20238.4764240356,20191.515408935,19977.832731942264,19900.339233915714,19998.53044730788,20014.467241104514,19988.695679747543,19998.798668241343,20036.10372973725,20051.191157244582,20029.040578489374,19996.317624606803,20016.68006380559,20033.28740993588,20036.34959892626,19998.95513045253,20008.454621846035,20035.746101825967,20040.529375139402,20011.159182925127,20022.267999919415,20060.735352126998,20063.97635507302,20058.6342881482,20074.459323222556,20120.906248200685,20140.665190299176,20160.245318442026,20163.911004532696,20210.872019633298,20234.363703055824,20230.876830920795,20235.995380401062,20268.338354627893,20319.479145941634,20306.336320201914,20279.49187511109,20312.125422015837,20351.352733534903,20364.428504041258,20352.336210290934,20375.537321035543,20386.46732407419,20379.068896659483,20363.40032379631,20373.816236712486,20401.197123670237,20423.548868125545,20405.689824305755,20399.721908536187,20443.173699757303,20451.779121372598,20465.72660991271,20469.90638612585,20506.63030226592,20533.96648573476,20528.91499148786,20509.245456367193,20538.5485933481,20557.81579706857,20538.63800032592,20498.538970773097,20480.031726364105,20477.2824617961,20431.059054262525,20389.060126431006,20364.160283107794,20369.010611654594,20321.26728549806,20274.373325630826,20271.422895362724,20281.21295943415,20273.680421552708,20258.52593881201,20223.590162228367,20240.24221184757,20232.86613617732,20216.124679580294,20188.252054244527,20199.472629961092,20204.814696885907,20175.153931993715,20147.214251424582,20165.877958044763,20161.31820217588,20150.03057122595,20108.813954450365,20142.810957766887,20141.8051292664,20134.69727452961,20132.015065194973,20140.03934145443,20134.965495463075,20147.594231080322,20129.109338415783,20111.65262599619,20123.14142264622,20133.736149518034,20139.771120520963,20129.377559349246,20120.548620289403,20135.591344307824,20160.580594608855,20137.334780375335,20143.570917078367,20151.84106252683,20146.051960712906,20120.88389645623,20132.104472172796,20165.65444060021,20142.36392287778,20139.525251331957,20158.32306841887,20181.211254741105,20161.51936787598,20139.055864698395,20141.17928042165,20168.783684823953,20159.060675985897,20130.003408193996,20135.7031030301,20164.022763254972,20170.437713913645,20151.729303804554,20124.482527313536,20174.6621936157,20168.448408657125,20154.74678930602,20136.373655363757,20114.69246324211,20139.279382142948,20180.741868107543,20147.7059898026,20161.541719620433,20186.62037689929,20173.03051627046,20157.719571318576,20160.647649842223,20171.84587381433,20170.281251702458,20128.148213404205,20145.046132212417,20173.075219759372,20145.537870590433,20127.142384903716,20142.967419978075,20184.407554198213,20202.08778406236,20184.653423387223,20163.352210921315,20199.673795661187,20187.156818766216,20166.95084177862,20163.97805976606,20203.920627107695,20237.917630424217,20208.502734721034,20185.636900143254,20205.597007941844,20221.109118593828,20179.89250181824,20174.304565704413,20189.794324611943,20193.124734535784,20181.27830997447,20166.28028944496,20149.56118459239,20164.13452197725,20138.854698998297,20108.16575386116,20088.92090188514,20121.84502146781,20112.546695774403,20088.02683210693,20091.469000753048,20124.594286035812,20140.106396687795,20137.670056542167,20097.235750822514,20085.903416383677,20105.237675337517,20079.488465725,20055.572099157824,20078.437933735604,20081.7906954039,20098.30863455637,20093.838285665308,20131.612733794776,20210.067356832908,20258.77180800102,20254.77084574352,20204.769993397,20185.65925188771,20286.10799146986,20375.7608384801,20275.736782042597,20114.804221964387,20059.103674781763,20096.11816359975,20087.98212861802,20126.31537035887,20148.577707836357,20117.486431299025,20092.810105420365,20129.623428538256,20136.328951874846,20127.097681414805,20089.278529796426,20146.029608968453,20177.634975628254,20167.442580156636,20133.35616986229,20146.49899560201,20186.03923154345,20175.422152927178,20168.113132490296,20171.644708114232,20205.552304452933,20201.640749173253,20203.13831605176,20181.99356579704,20227.613476230323,20268.226595905613,20282.934043757206,20265.276165637515,20319.25562849708,20364.920242419274,20375.380858824356,20368.36241106539,20414.541115110056,20431.304923451535,20436.244658976157,20462.03857207758,20494.783877704605,20517.35913960447,20525.33871237501,20504.328072587025,20518.96846520525,20564.901300060905,20567.628212884454,20585.688422404342,20593.623291685974,20625.742748468252,20608.59896047103,20591.11989630698,20606.855524403516,20635.622219517496,20647.84862373455,20663.248975664257,20649.167376657413,20681.867978795526,20688.461743409844,20627.821460702595,20550.417369653867,20546.662276585375,20542.862480027972,20514.520468058643,20484.658537466352,20445.677095136296,20397.33027187947,20367.334230820445,20337.27113452806,20311.79014584901,20311.298407470993,20299.67550035423,20264.359744114845,20241.53861302598,20243.930249682697,20237.716464724122,20206.736946909066,20178.03730702845,20214.62711270179,20225.53476399598,20181.725344863575,20165.117998733283,20193.638824658254,20222.271409305504,20215.275313290993,20163.218100454582,20170.281251702458,20193.102382791327,20208.122755065295,20172.65053661472,20188.90025483373,20211.542571966955,20220.080938348885,20213.19660105665,20203.697109663142,20237.694112979665,20234.76603445602,20216.43760400267,20207.407499242723,20236.442415290167,20269.657107550753,20245.561927027935,20201.014900328508,20219.27627554849,20231.39092104327,20220.662083704723,20218.4716127481,20226.182964585183,20227.47936576359,20211.564923711412,20209.329749265882,20242.991476415573,20255.508453310544,20266.796084260473,20258.190662645182,20249.071150907417,20283.135209457305,20321.602561664888,20347.37412302186,20374.665603001788,20392.74816426613,20387.89783571933,20366.03782964204,20360.606355739397,20369.055315143505,20356.426579526258,20328.26338151257,20299.139058487304,20331.906715858786,20345.384817765334,20328.621009423856,20282.174084445727,20295.853352052374,20315.07585228394,20288.119648470838,20271.221729662626,20273.16633143024,20285.459790880657,20266.505511582556,20269.590052317388,20264.225633648115,20275.62502332032,20282.44230537919,20270.282956395502,20248.19943287366,20284.766886802543,20300.368404432345,20287.35968915936,20273.702773297166,20294.512247385057,20297.26151195306,20277.591976832387,20291.561817116955,20329.917410602262,20314.964093561663,20329.02334082405,20305.844581823898,20338.813404895474,20363.199158096213,20315.92521857324,20288.5890351044,20294.556950873968,20315.67934938423,20270.551177328965,20238.789348457976,20243.214993860125,20253.541499798477,20234.564868755922,20224.841859917862,20211.989606856063,20237.135319368284,20226.607647729834,20218.29279879246,20198.466801460603,20232.821432688408,20212.66015918972,20200.590217183857,20186.128638521273,20210.559095210923,20223.23253431708,20239.526956025,20231.18975534317,20265.52203482652,20294.35578517387,20321.82607910944,20351.732713190642,20343.417864253268,20289.416049649248,20306.470430668644,20384.634481028854,20409.89195226335,20299.161410231758,20171.17532148067,20150.8575857708,20197.99741482704,20243.81849096042,20213.174249312193,20215.834106902374,20200.3666997393,20225.04302561796,20227.47936576359,20209.19563879915,20196.65631015972,20223.724272695097,20234.318999566913,20224.05954886193,20197.23745551556,20209.977949855085,20215.208258057628,20217.734005181075,20212.5707522119,20209.37445275479,20256.938964955683,20289.907788027263,20249.54053754098,20231.502679765545,20257.34129635588,20263.756247014553,20246.031313661493,20229.692188464665,20277.234348921105,20300.435459665714,20304.726994601133,20303.385889933812,20328.5986576794,20320.82025060895,20314.561762161466,20284.67747982472,20305.19638123469,20356.4042277818,20367.378934309356,20352.202099824204,20361.299259817515,20397.598492812933,20408.99788248514,20379.493579804133,20394.379841611368,20416.28455117757,20436.155251998338,20445.99001955867,20453.05317080655,20495.566188760542,20506.29502609909,20495.588540505,20509.58073253402,20536.4475293693,20523.93055247433,20516.576828548532,20488.860665423952,20481.305775798057,20470.085200081492,20457.52351969761,20418.407966900824,20382.980451939162,20354.37021903637,20348.894041644817,20324.038901810516,20289.036069993504,20288.857256037863,20265.834959248896,20199.584388683368,20180.51835066299,20181.725344863575,20185.122810020785,20179.199597740128,20167.219062712084,20191.604815912822,20182.172379752683,20139.12291993176,20118.60401852179,20185.6145483988,20182.842932086343,20169.767161579988,20137.625353053256,20165.922661533674,20191.56011242391,20165.6097371113,20134.965495463075,20189.23553100056,20223.903086650742,20212.928380123187,20201.014900328508,20267.980726716607,20314.472355183647,20295.29455844099,20263.219805147626,20267.64545054978,20305.19638123469,20281.548235600978,20268.740686028086,20268.02543020552,20310.471392926145,20321.937837831716,20311.276055726536,20296.21097996366,20303.229427722625,20299.384927676314,20259.10708416785,20245.159595627738,20273.00986921905,20267.176063916217,20243.43851130468,20222.76314768352,20240.91276418123,20243.14793862676,20223.031368616983,20201.014900328508,20188.788496111454,20218.181040070183,20230.18392684268,20199.00324332753,20189.90608333422,20205.015862586006,20216.90699063623,20200.545513694946,20176.785609338953,20186.8662460883,20198.623263671787,20171.957632536607,20168.31429819039,20206.55813295342,20212.10136557834,20178.216120984092,20153.428036383157,20193.214141513603,20191.202484512625,20182.865283830797,20168.157835979204,20188.453219944622,20219.94682788215,20216.61641795831,20207.20633354263,20217.152859825237,20228.127566352792,20222.38316802778,20248.73587474059,20258.078903922906,20304.302311456482,20309.91259931476,20269.522997084023,20228.351083797348,20280.25183442257,20270.215901162137,20260.179967901706,20241.359799070335,20260.24702313507,20263.53272957,20243.77378747151,20185.100458276327,20167.688449345642,20178.104362261816,20157.160777707195,20146.454292113103,20164.916833033185,20179.870150073784,20168.80603656841,20154.880899772754,20144.08500720084,20145.537870590433,20176.673850616677,20183.200559997626,20165.587385366845,20196.455144459625,20200.23258927257,20192.7671066245,20169.588347624343,20202.132487551273,20234.229592589094,20217.28697029197,20233.00024664405,20311.007834793072,20262.996287703074,20164.89448128873,20188.90025483373,20358.41588478278,20352.93970739123,20151.058751470897,20065.988012073998,20136.84304199732,20175.153931993715,20151.12580670426,20146.588402579833,20191.247188001536,20237.224726346103,20238.38701705778,20239.66106649173,20226.85351691884,20238.834051946887,20244.511395038535,20248.11002589584,20240.53278452549,20264.404447603756,20261.141092913284,20257.408351589245,20256.558985299944,20311.76779410455,20326.07291055595,20332.197288536703,20319.859125597373,20339.394550251312,20370.5081785331,20352.962059135683,20331.012646080573,20379.873559459873,20416.84334478895,20413.065899976005,20397.37497536838,20407.276798162082,20466.352458757457,20473.549720472067,20434.14359499736,20422.677150091786,20490.134714857904,20512.933494202316,20499.88007544042,20479.76350543064,20511.413575579354,20555.804140067594,20558.50870114669,20555.804140067594,20586.046050315625,20614.70098670733,20628.916696180906,20592.706870163307,20630.011931659214,20686.04775500867,20699.838781337596,20674.491903125276,20672.927281013406,20714.635636167008,20699.347042959576,20680.57157761712,20679.230472949803,20697.894179569983,20685.935996286393,20654.531795326686,20613.851620418027,20587.610672427498,20554.887718544927,20532.40186362289,20471.04632509307,20439.977400300195,20441.497318923157,20385.84147522944,20327.92810534574,20366.976602909162,20398.89489399134,20353.49850100261,20321.289637242513,20315.478183684136,20304.21290447866,20300.435459665714,20259.598822545868,20273.881587252807,20291.561817116955,20295.853352052374,20277.748439043575,20249.71935149662,20281.68234606771,20292.388831661803,20259.82233999042,20259.330601612404,20280.25183442257,20299.317872442945,20293.93110202922,20268.91949998373,20277.86019776585,20292.54529387299,20299.58609337641,20280.140075700292,20304.726994601133,20326.810518122973,20298.24498870909,20270.841750006886,20293.282901440016,20343.46256774218,20323.815384365964,20292.344128172892,20288.72314557113,20325.31295124447,20327.190497778716,20322.898962843297,20326.922276845253,20367.13306512035,20354.12434984736,20329.425672224246,20311.723090615644,20354.75019869211,20363.132102862848,20350.950402134706,20347.754102677598,20386.60143454092,20387.65196653032,20356.65009697081,20347.30706778849,20369.97173666617,20381.147608893825,20370.55288202201,20337.584058950433,20357.924146404763,20383.293376361537,20380.812332726997,20341.6520764413,20331.12440480285,20367.803617454007,20403.767574282596,20383.472190317178,20370.239957599635,20400.906550992317,20397.03969920155,20365.724905219664,20358.997030138617,20383.18161763926,20381.6616990163,20389.171885153282,20369.32353607697,20399.006652713615,20425.180545470783,20397.307920135012,20363.5567860075,20411.32246390849,20442.14551951236,20415.99397849965,20401.89002774835,20432.489565907665,20459.62458367641,20479.204711819257,20446.705275381242,20390.80356249852,20440.357379955934,20453.366095228925,20436.669342120807,20420.978417513183,20450.080388793995,20458.171720286813,20411.121298208393,20377.03488791405,20415.65870233282,20404.773402783085,20385.483847318155,20362.260384829093,20387.093172918936,20404.90751324982,20367.13306512035,20334.23129728214,20371.491655289134,20389.685975275752,20377.526626292067,20369.56940526598,20377.97366118117,20411.03189123057,20398.291396891047,20361.723942962166,20354.5043295031,20393.709289277707,20417.111565722415,20446.101778280947,20468.162950058337,20562.73318084874,20588.661204416898,20520.376625105935,20460.071618565515,20566.197701239314,20709.628845409017,20607.011986614703,20391.18354215426,20347.038846855026,20388.568388052987,20392.859922988406,20376.386687324844,20389.484809575657,20410.920132508294,20408.953178996228,20373.21273961219,20343.060236341982,20381.348774593924,20373.70447799021,20347.5529369775,20349.877518400852,20371.84928320042,20363.377972051858,20362.84153018493,20334.96890484916,20351.68800970173,20381.572292038476,20369.12237037687,20344.580154964944,20360.628707483855,20388.23311188616,20368.13889362084,20348.82698641145,20377.884254203353,20399.856019002917,20391.496466576635,20372.2069111117,20381.348774593924,20418.497373878643,20417.4691936337,20387.98724269715,20402.247655659638,20443.039589290573,20435.596458386954,20425.873449548897,20435.395292686855,20467.782970402597,20467.023011091114,20498.784839962107,20501.847028952485,20546.014075996172,20543.175404450347,20556.988782523727,20547.377532407943,20597.668957432386,20632.537678782664,20640.114920153013,20634.75050148374,20644.00412368824,20673.597833347063,20692.820333578627,20683.09732474057,20692.52976090071,20701.51516217174,20683.745525329774,20653.973001715305,20633.69996949434,20643.51238531022,20611.4152802724,20548.897451030905,20500.14829637388,20508.373738333434,20482.110438598447,20445.095949780458,20418.743243067653,20418.65383608983,20410.22722843018,20385.506199062613,20351.68800970173,20364.584966252445,20353.40909402479,20330.386797235824,20329.917410602262,20345.250707298605,20352.35856203539,20342.300277030503,20307.990349291606,20316.372253462345,20355.264288814582,20361.522777262067,20338.96986710666,20343.730788675643,20379.493579804133,20374.08445764595,20353.900832402807,20361.79099819553,20406.293321406047,20414.89874302134,20413.244713931646,20396.302091634523,20382.064030416495,20394.782173011565,20421.291341935557,20399.453687602723,20413.267065676104,20430.36615018441,20422.766557069608,20402.18060042627,20414.00467324313,20412.32829240898,20423.66062684782,20390.5129898206,20392.211722399203,20429.069749006005,20438.301019466046,20401.353585881425,20382.600472283422,20397.95612072422,20430.90259205134,20405.645120816844,20360.852224928407,20374.777361724064,20409.08728946296,20417.625655844888,20392.390536354844,20408.79671678504,20427.99686527215,20421.492507635656,20422.18541171377,20454.05899930704,20470.219310548226,20470.822807648517,20440.71500786722,20458.864624364927,20492.034613136606,20495.76735446064,20482.043383365082,20485.574958989022,20510.363043589958,20491.207598591758,20488.704203212765,20503.545761531088,20559.73804709173,20553.97129702226,20539.375607892944,20524.39993910789,20563.73900934923,20586.78365788265,20549.16567196437,20520.309569872566,20544.49415737321,20539.666180570865,20522.25417164018,20540.11321545997,20639.064388163613,20664.053638464648,20616.086794863557,20552.16080572138,20575.831303099552,20610.968245383294,20595.925521364872,20569.706925118797,20549.366837664467,20585.42020147088,20618.389024542455,20603.74863192423,20535.665218313363,20611.83996341705,20665.3276878986,20600.12764932247,20538.794462537106,20533.094767701004,20445.788853858576,20460.317487754524,20474.15321757236,20406.002748728126,20312.97478830514,20233.134357110783,20098.420393278648,20064.98218357351,20019.29521790686,19858.764989228846,19716.116156115077,19620.74126252428,19560.05627632812,19526.327493945064,19478.003022432687,19438.0381033466,19436.56288821255,19428.873888119924,19346.060674913013,19303.68176742575,19328.849831682426,19396.06152725953,19276.43499093473,18996.99348175448,18946.813815452315,18997.842848043783,19011.85739181726,19007.05176675937,19007.655263859662,19018.026473286925,18990.15384795116,18902.266788752888,18835.457424575976,18780.360374493644,18717.261399896313,18604.273331674736,18493.408679176413,18429.482690034234,18358.582956622,18302.05539489453,18275.166246314795,18303.24003735066,18234.597830128412,18168.59312875189,18031.509880007492,17861.278994235872,17792.81560096927,17497.0796700811,17241.286306534566,17121.86093590986,17179.01434648208,17388.09256411702,17582.9997757673,17845.543366139336,17979.0950392598,18038.081292877352,18094.25122669354,18091.05492723643,18157.618422224336,18003.190219782617,17964.231129197018,18150.041180853987,18348.18939545028,18512.47471719679,18601.568770595644,18772.738429634384,18953.921670189105,19017.132403508713,19120.21864893659,19264.34269718441,19408.310283221042,19531.267229469686,19582.005689383233,19657.80045483118,19816.699006163955,19900.965082760464,20045.692628108576,20118.73812898852,20191.157781023718,20103.248370080993,19775.013002754808,19412.445355945274,19305.760479660094,19368.010087968123,19477.555987543583,19471.923347940847,19363.249166399142,19402.968216296224,19573.06499160111,19685.963652844865,19784.646604615045,19895.399498391092,20005.012453199917,20086.75278267298,20118.35814933278,20210.313226021914,20283.24696817958,20328.106919301383,20352.112692846382,20339.841585140417,20270.72999128461,20172.67288835918,20082.729468671023,20087.579797217822,20072.40296273267,19981.565473266302,19856.97684967242,19749.040275697742,19681.694469653903,19637.84034703259,19648.94916402688,19626.843288760578,19537.615124894994,19427.666893919337,19264.119179739857,19128.913477529703,19008.683444104605,18899.204599762514,18811.04931963078,18746.94451653296,18737.735597817373,18768.670412143518,18752.800673580252,18713.796879505742,18668.534596983744,18642.897146093506,18624.903991806983,18534.535888974176,18578.948805206874,18624.613419129066,18585.944901221384,18531.94308661736,18476.399001645925,18503.779888603676,18542.649572211456,18487.485466895756,18491.88876055345,18540.123825088005,18589.76704952324,18622.35589293908,18712.07579518268,18821.934619180516,18913.800288891827,19013.645531373684,19122.49852687103,19241.052179461978,19323.932447902258,19361.818654754003,19425.364664240442,19512.29059842713,19567.67822118738,19643.7859110577,19683.862588866068,19720.921781172965,19774.633023099068,19816.855468375143,19872.064277179754,19940.393559979628,20014.40018587115,20069.139608042195,20096.296977555394,20143.816786267376,20207.899237620742,20244.511395038535,20271.467598851636,20314.360596461367,20371.961041922696,20369.725867477166,20387.60726304141,20421.51485938011,20428.622714116897,20426.544001882554,20402.85115275993,20369.055315143505,20416.128088966383,20468.520577969623,20474.130865827905,20447.308772481534,20454.260165007134,20461.211557532737,20437.496356665655,20417.826821544986,20410.003710985628,20427.773347827595,20468.140598313883,20474.913176883838,20457.992906331172,20456.182415030293,20454.03664756258,20448.359304470934,20437.94339155476,20470.3310692705,20455.71302839673,20462.66442092233,20481.77516243162,20517.40384309338,20560.989744781225,20526.188078664312,20542.88483177243,20601.84873364553,20658.55510932864,20682.717345084828,20715.90968560096,20792.844390016126,20756.299287831698,20652.56484181462,20703.37035696153,20878.675088724507,20877.71396371293,20660.18678667388,20570.39982919691,20608.956588382316,20631.08481539307,20627.530888024678,20651.89428948096,20653.70478078184,20686.673603853418,20694.72023185733,20686.29362419768,20668.4792838668,20694.630824879507,20713.160421032957,20710.612322165052,20702.09630752758,20752.87947093004,20768.033953670736,20743.20116558089,20744.139938848013,20773.040744428727,20824.293294464744,20843.649905163038,20837.3690649711,20875.41173403403,20924.786737535804,20945.14917673459,20951.161795993066,20970.361944480177,21045.97789597248,21111.736728159995,21107.624007180217,21106.50641995745,21161.71522876206,21189.185522697633,21205.39053742773,21199.892008291725,21240.169851800187,21266.72372421309,21286.326204100395,21354.476672944627,21413.597037028914,21474.34907845844,21491.269349011105,21527.25565758415,21621.89294360792,21696.9724532333,21783.160779852962,21838.213126446382,21804.417288829958,21790.87213169004,21762.284250531706,21734.903363573954,21717.33489243208,21717.178430220894,21606.80551610059,21053.130454198177,19984.940586679055,19137.29538170044,18623.83110807313,18314.28179911158,18170.940061919697,18205.674672803245,18268.70659216721,18357.711238588243,18465.714867796287,18587.196598910883,18710.93585621546,18791.558598465755,18856.55747134179,18912.906219113614,18990.37736539571,19064.607508731784,19122.140898959744,19207.815135456938,19280.19008400322,19328.44750028223,19389.89244578987,19422.41423397234,19511.351825160007,19563.789017652158,19602.569294282115,19660.28149846572,19742.155938405507,19777.047011500243,19762.13839794855,19766.787560795256,19773.314270176204,19810.93225609449,19842.425864032015,19848.036151890297,19885.587082575214,19927.630713895647,19940.058283812796,19953.46933048598,19986.01347041291,20026.06779647682,20070.793637131886,20083.578834960324,20081.477770981524,20096.78871593341,20175.265690715994,20207.94394110965,20192.700051391133,20232.597915243856,20269.701811039664,20280.475351867124,20284.766886802543,20322.340169231913,20321.982541320627,20332.55491644799,20320.84260235341,20328.084567556925,20346.97179162166,20367.89302443183,20383.472190317178,20382.667527516787,20395.94446372324,20412.864734275907,20401.04066145905,20383.427486828266,20386.534379307555,20407.097984206437,20400.705385292218,20369.79292271053,20311.611331893368,20270.43941860669,20248.06532240693,20181.56888265239,20147.79539678042,20144.621449067767,20097.056936866873,20050.610011888744,20027.073624977307,20036.684875093088,20052.21933748953,20079.197893047083,20107.003463149485,20147.61658282478,20175.89153956074,20171.152969736217,20155.774969550966,20178.28317621746,20212.72721442309,20218.91864763721,20234.408406544735,20243.81849096042,20231.368569298815,20202.311301506914,20209.642673688257,20259.509415568045,20298.915541042752,20333.672503670754,20337.181727550236,20358.482940016143,20348.82698641145,20352.470320757668,20353.56555623598,20370.776399466562,20414.5187633656,20371.491655289134,20293.90875028476,20283.44813387968,20295.316910185447,20280.72122105613,20183.200559997626,20100.342643301803,20035.09790123676,19949.893051373132,19868.08566666671,19841.151814598063,19872.891291724598,19919.56173414728,20010.91331373612,20111.898495185196,20217.935170881174,20300.658977110266,20333.314875759468,20345.69774218771,20391.027079943073,20433.09306300796,20449.298077738058,20424.442937903757,20426.923981538293,20416.776289555586,20414.205838943224,20424.264123948113,20459.24460402067,20553.34544817751,20574.93723332134,20594.584416697555,20651.827234247594,20632.157699126925,20529.809061266074,20441.542022412064,20422.744205325154,20281.838808278895,19980.760810465912,19746.9615634634,19689.271711024252,19682.23091152083,19696.156048316487,19796.53773266527,19874.45591383647,19977.452752286525,20081.276605281426,20180.630109385267,20249.205261374147,20329.425672224246,20394.245731144638,20479.249415308168,20566.711791361784,20635.17518462839,20677.509388626742,20705.85140059607,20715.641464667497,20715.61911292304,20751.82893894064,20779.366288109577,20767.385753081533,20750.890165673514,20752.47713952984,20766.29051760322,20758.176834365946,20731.421796252944,20716.71434840135,20685.377202675012,20675.38597290349,20661.527891341197,20684.349022430066,20717.362548990553,20712.44516521039,20697.3353859586,20710.992301820792,20703.32565347262,20690.13812424399,20658.063370950626,20639.51142305272,20680.57157761712,20745.570450493153,20740.854232413083,20705.963159318348,20710.5899704206,20742.955296391883,20734.64044745451,20670.26742342322,20531.440738611313,20353.632611469344,20248.512357296033,20256.62604053331,20310.896076070796,20372.251614600613,20387.875483974873,20336.86880312786,20344.289582287023,20356.538338248534,20315.96992206215,20226.808813429932,20164.98388826655,20135.189012907627,20111.78673646292,20026.023092987907,19985.320566334794,19992.76369723841,19999.357461852727,19982.392487811147,19966.008659125408,20005.72770902249,20037.511889637935,20051.459378178046,20061.20473876056,20104.254198581482,20150.499957859513,20185.055754787416,20191.7165746351,20230.899182665253,20272.20520641866,20267.980726716607,20238.18585135768,20207.675720176187,20221.869077905307,20188.94495832264,20085.277567538928,20012.38852887017,20017.44002311707,19995.222389128496,19957.85027239922,19915.06903351176,19902.55205661679,19907.93882703052,19828.36661676963,19732.8576127121,19666.025896790732,19589.962910409322,19520.87366829797,19473.085638652523,19497.449040108808,19526.171031733877,19512.8046885496,19530.037883524645,19557.575232693584,19612.91815196492,19666.13765551301,19716.33967355963,19760.305554903218,19831.11588133763,19855.523986282824,19848.483186779402,19903.468478139457,19983.75594422292,20033.712093080532,20044.887965308186,20098.532152000924,20146.476643857557,20128.03645468193,20101.12495435774,20091.558407730867,20112.16671611866,20116.949989432098,20103.516591014457,20116.07827139834,20148.197728180618,20191.828333357375,20222.76314768352,20214.33654002387,20252.982706187096,20305.531657401523,20336.31000951648,20355.487806259134,20379.515931548587,20411.367167397402,20432.37780718539,20454.48368245169,20466.352458757457,20462.731476155695,20445.99001955867,20451.309734739036,20467.402990746858,20514.520468058643,20523.662331540865,20521.762433262164,20502.428174308323,20491.274653825123,20519.43785183881,20539.48736661522,20490.24647358018,20517.515601815656,20566.912957061882,20553.88189004444,20507.949055188783,20539.73323580423,20592.84098063004,20611.28116980567,20595.970224853783,20628.38025431398,20615.483297763265,20625.876858934982,20671.742638557273,20716.96021759036,20732.38292126452,20707.013691307748,20694.56376964614,20697.938883058894,20731.33238927512,20738.86492715656,20714.836801867106,20682.873807296015,20698.22945573681,20711.19346752089,20676.302394426155,20641.70189400934,20648.116844668013,20662.71253379733,20619.32779780958,20582.849750858517,20582.26860550268,20561.1015035035,20563.98487853824,20562.39790468191,20558.64281161342,20590.851675373517,20622.010007144214,20596.08198357606,20559.380419180445,20564.521320405165,20608.196629070837,20582.02273631367,20579.07230604557,20629.073158392093,20686.695955597872,20746.844499927105,20814.279712948766,20841.12415803959,20778.740439264828,20785.73653527934,20900.08805991269,20935.38146440762,20791.056250459704,20651.17903365839,20662.153740185946,20661.66200180793,20639.623181774998,20678.872845038517,20699.570560404132,20669.46276062283,20634.862260206017,20615.03626287416,20587.83418987205,20579.988727568238,20590.73991665124,20614.946855896338,20621.250047832735,20645.077007422093,20712.042833810192,20733.902839887483,20752.34302906311,20712.221647765833,20736.897973644493,20771.789046739228,20769.30800310469,20771.811398483682,20798.87936101906,20801.606273842608,20808.490611134843,20800.376927897567,20788.798724269716,20766.648145514508,20759.0485523997,20765.664668758473,20759.652049499997,20771.16319789448,20809.004701257312,20830.685893378963,20862.358315272133,20900.64685352407,20866.046353107256,20815.41965191599,20850.958925599924,20916.449536853976,20947.13848199111,20953.173452994044,20952.257031471378,20965.466912444463,20927.84892652618,20945.640915112606,20971.926566592047,21013.143183367632,21011.220933344477,21020.07222414878,21061.579413602285,21100.27028325442,21116.162373562143,21071.30242244034,21077.627966121196,21092.31306222833,21106.70758565755,21081.78539058988,21032.700959766025,21011.44445078903,21021.34627358273,21028.25296261942,20995.082973847744,20945.037418012314,20951.877051815638,20941.170566221546,20906.435955337998,20892.913149942535,20937.884859786613,20912.962664718947,20917.32125488773,20925.27847591382,20924.116185202147,20921.143403189588,20934.62150509614,20916.47188859843,20969.78079912434,21010.908008922102,21006.16943909758,21014.707805479506,21004.06837511878,21040.345256369743,21065.379210159685,21063.54636711435,21067.41321890512,21097.40925996414,21116.408242751153,21113.502515971963,21094.436477951585,21106.50641995745,21137.128309861222,21146.493690787996,21149.578231522828,21167.169054409154,21202.305996692896,21238.44876747713,21242.047398334435,21264.019163134,21295.98215770509,21305.481649098594,21314.534105602994,21334.9859517796,21362.635059670814,21374.436780743217,21395.0003856421,21402.443516545718,21431.947819226723,21449.91862176879,21439.14508094133,21454.232508448662,21449.1139589684,21431.47843259316,21423.588266800438,21444.39774088833,21491.24699726665,21501.48409622718,21513.889314399876,21530.563715763536,21533.9835326652,21543.751244992167,21560.02331495563,21560.31388763355,21578.731725064725,21603.85508583249,21638.52264148267,21656.627554491468,21662.05902839411,21702.24746492475,21734.031645540195,21733.808128095643,21756.048113828674,21789.06164038916,21804.149067896495,21818.32007388116,21841.208260203395,21876.501664698324,21923.686197243478,21935.107938660138,21948.58604056669,22006.655872661577,22062.42347507757,22087.680946312066,22088.843237023742,22110.99381577895,22167.990764139984,22214.415337373655,22241.393892931213,22259.722323384565,22279.414210249688,22324.587085793864,22344.346027892356,22367.43537991469,22408.450830990176,22417.704453194674,22423.895886408794,22445.308857596978,22486.21254995019,22509.011329294604,22540.236716298667,22554.09479786096,22578.681716761796,22634.516374411152,22663.528938714142,22667.44049399382,22726.40439586692,22789.23514953079,22809.932864896404,22828.864792450047,22866.862758024068,22923.122098818076,22968.339677851163,22979.560253567728,22984.432933858985,23036.55720192876,23082.065353639766,23154.999095797433,23204.910541166133,23267.51777738545,23355.762464495,23396.15206672574,23331.063786871888,23357.081217417865,23537.03511202754,23657.10868324145,23567.99227809814,23453.193718575683,23513.498725116104,23587.14772309634,23612.025214675097,23685.20482602177,23792.068516262596,23831.899324881953,23832.703987682344,23881.028459194717,23927.54243940621,24000.766754241795,24076.13683654509,24161.319334664266,24243.730216470984,24309.556103891864,24378.757104725493,24502.27284458552,24637.947933429234,24696.26363471313,24748.70082720528,24862.381799504972,24998.772144171257,25107.11104954613,25170.65705903257,25232.861963851687,25344.888907061686,25444.89061175473,25533.53763026448,25601.174008986236,25709.37880389438,25821.91983722685,25917.02650988418,25994.385897444,26105.630529598064,26231.53790611481,26373.672649106105,26503.379822180254,26613.059832222443,26757.139176981353,26878.285631929117,27014.787735317677,27182.917557110497,27389.5147311109,27604.94084417115,27807.22413149168,27988.005040646203,28266.64188702606,28539.60139031427,28765.08578837941,28974.432226947814,29223.11773575756,29488.45529418651,29765.773387643505,30042.33152178902,30364.263697178805,30744.958608741596,31166.26663997968,31517.70311805047,31835.388461993753,32168.809434033567,32424.669852813466,32367.87407015253,32149.54223031309,31907.584596584395,31789.925013771655,32130.163267870343,32472.14495803654,32803.77779051993,33045.22133412616,33106.97920405617,33073.54099435103,33176.64959152336,33331.12249745399,33438.768498750745,33489.19403424192,33524.17451431448,33553.05296815073,33543.844049435145,33509.46706646289,33552.248305350346,33568.945058458456,33567.31338111322,33545.78865120276,33532.73523244086,33519.63711019005,33470.038589243726,33341.15843071442,33152.912038911825,32971.88526056829,32826.710680331074,32683.592460583743,32553.43825262049,32466.7134841339,32409.98475670633,32351.467889722335,32336.358110470548,32383.676753482432,32391.052829152686,32381.41922729245,32384.7943407052,32385.97898316133,32374.333724300115,32381.50863427027,32403.011012436273,32497.558891482222,32602.992070077908,32708.335841695767,32861.378235981254,33125.35233799843,33441.02602494074,33763.33817998626,34039.918665876234,34298.796570157596,34539.16723002997,34658.21262099894,34786.064599283294,35072.88218413379,35420.22829296927,35648.2160864134,35751.52584928583,35901.5731098143,36123.34711829986,36307.88312052287,36500.59986121653,36576.12640573101,36653.485793290834,36688.73449429685,36728.67706163848,36747.787803147774,36729.92875932798,36692.69075306544,36583.4354261679,36417.42902009833,36287.25246039063,36212.03884029852,36108.93024312618,35953.965598817544,35822.20206525351,35765.83096573722,35721.46275299344,35651.83706901516,35628.03246117025,35708.11876155362,35761.04769242379,35899.98613595797,36123.39182178877,36442.79825005511,36682.855985505106,36836.41246991306,36993.724047389514,37234.38527993981,37461.05432046107,37632.916883577935,37755.49385017084,37890.43133144752,38036.81290588533,38157.66878815518,38250.38382415579,38405.86255858691,38550.79126963512,38652.402299928945,38706.3370592996,38768.74312981882,38899.00909650434,38996.7532750074,39035.19827547053,39089.51301449693,39213.40873401269,39237.36980406878,39202.23286178504,39177.80240509539,39287.61652560432,39354.89527641479,39408.71827706317,39438.98253905565,39598.66340144437,39676.782748315665,39684.9187832974,39703.38132421748,39903.58589930367,40163.60374255225,40414.50207406307,40587.66103835834,40888.24729779331,41222.69645007807,41392.65911491622,41483.49660438259,41704.30948785657,42064.70901545394,42231.765953512906,42151.65730138509,42182.97209536697,42435.055069333925,42567.28798953152,42550.85945735687,42500.45627361015,42540.64471014079,42375.30885640489,42159.614522411175,41945.39540355151,41932.87842665654,41811.91078566442,41619.417562415314,41388.52404219199,41221.19888319956,40934.60481579362,40493.71665641268,39927.546969359755,39660.39891962992,39677.31919018259,39510.70928701273,39189.514719189974,39053.54905766834,39277.44648187715,39332.87880812631,39205.56327170888,39152.50023037198,39554.07167125603,39846.32073000917,39908.83855925066,39889.45959680791,40296.7083807836,40650.29062632211,40750.82877288208,40694.658839065894,41032.97484314142,41386.020646813,41544.29334930103,41553.077584871964,41844.79020175817,42292.94267808708,42507.11709345783,42617.087676177944,42945.948892348875,43527.18365516468,43774.304541862555,43796.52217585113,43905.174005648376,44389.80452892835,44613.567842670425,44584.15294696724,44559.454269344125,44956.957692737305,45244.53523689929,45320.03942966931,45315.56908077825,45717.5428530625,46075.26017132523,46176.312408007674,46112.67699154341,46369.43148010153,46618.09463716682,46751.735717265095,46830.950299614706,46983.09862412198,47169.802745557165,47070.60570366451,46771.047624474486,46653.14217247274,46849.77046844608,46870.78110823406,46740.93982469319,46728.53460652049,47054.579502890054,47246.96096741688,47347.007375598834,47263.99299669183,47453.66990013956,47453.64754839511,47187.19240274339,46781.28472343501,46705.601716709345,46475.043472652855,45881.67171259782,44800.69664725025,42673.01174080512,36463.25009623171,29377.18831028799,25575.268337162535,25118.91277061853,27167.00311505832,29981.73594257068,33232.52895266163,37844.54320008078,43974.28559950419,46738.190560125186,37069.20588841509,34063.70092197668,33777.71035167103,33371.802672362646,33060.64403780032,32905.925262680685,32928.634635047274,33016.70050820118,33101.033640031055,33230.517295660655,33382.57621319011,33310.73770651075,33185.05384743856,33088.516663136084,32987.91146134275,32778.7885402189,32382.44740753739,31971.97997236013,31861.048264628444,31952.71276863966,32023.76896426308,31986.352144044897,31947.638922648304,32012.011946679588,32018.38219384935,31962.882812366825,31979.691324197214,32097.239148287674,32194.62569887945,32176.409027148373,31996.075152882953,31679.820320584815,31139.44454663331,30966.754968971607,31028.53519064608,31191.725276914272,31327.19920005789,31413.186360977455,31458.582753966184,31687.75518986645,31914.40187864326,31979.04312360801,31952.690416895202,32062.079854259475,32220.84429512552,32172.60923059097,31968.22487929164,31813.930787316658,31910.199750685664,31892.83244524389,31746.205001617076,31557.221002247454,31653.84759352775,31623.650386768626,31389.135883943545,31089.44369428679,31154.084939251537,31197.044992094638,31046.036606554582,30769.8137485759,30788.14217902925,30815.478362498092,30618.134810702184,30254.89661155899,30122.462525661296,30120.607330871506,29923.420241286785,29561.210222388534,29347.81811807372,29375.467225964934,29230.538514916723,28914.194275640762,28708.692337118668,28946.246677189672,29037.866477711974,28897.363412065915,28572.391399430206,28778.876814708332,29130.559161968133,29289.904748190016,29248.799890136706,29541.741852967963,29840.785842035515,29922.839095930947,29851.849955540893,30101.76481029568,30488.248823672395,30712.36976532576,30783.157740015715,31144.227819946747,31693.633698658195,32049.62993259787,32270.91220270541,32720.42813544609,33490.356324953595,34085.918555965254,34515.00499427378,35015.862884028305,35886.88801370717,36605.47424620083,37138.83157239337,37628.290072475684,38316.768505188054,38598.422837069375,38408.567119666,37987.88493727266,37779.09729231564,37011.67249818713,35752.46462255295,34516.994299530306,33911.57494921386,33538.881962166066,32849.48710793103,31921.330919424407,31296.554958409663,31049.031740311595,30718.628253773244,30303.62341447156,30130.196229242832,30330.981949684854,30344.460051591406,30176.464340265316,30102.614176584982,30413.817514636223,30553.985304115453,30542.98824584344,30498.530626121836,30840.847592454862,31136.717633809763,31269.308181918645,31379.524633827765,31990.263699324576,32662.93944870704,33145.714777197216,33417.71315547385,33876.84033833031,34377.362951918,34604.88135872858,34639.258341700835,34932.55793244337,35526.399079131974,35951.64101739419,36196.50437790208,36589.29158321519,37317.891397224834,37842.285673890794,38143.63189263724,38436.90913163533,39092.28463080939,39584.850023370986,39814.35773543808,39953.206771994446,40467.56511539997,40951.234513668365,41130.87548385566,41126.02515530887,41487.989305018105,41819.51037877922,41885.358617944556,41789.35787550901,42002.794683312735,42421.57696742737,42626.1624844268,42619.881644234854,42795.96868705376,43234.71107896699,43479.19445981913,43535.923187246706,43673.83345053595,44139.06265962871,44409.429360560105,44424.807360745355,44388.239906816474,44748.52767569157,44987.311361707616,45050.209170604845,44978.772995325686,45264.830620864705,45534.70558341809,45601.64905806173,45510.52099591744,45758.22302797116,46054.607159448526,46082.65859873994,45930.19734981029,46100.338828604086,46414.69376262352,46452.35645203072,46282.527897659296,46236.48330408136,46448.0649170953,46423.61210866119,46165.628274158036,45968.552943295595,46121.90826200345,46076.84714518156,45784.687493406236,45456.98856794698,45470.019634964425,45367.24631395892,45074.08083368312,44716.47527414266,44797.90267919334,44851.30099669707,44522.14920784822,43532.413963367224,42608.214033629185,41820.11387587951,40830.021003487236,39713.93134760039,38866.62141878861,38235.02817571499,37402.15747382134,36383.074388870526,35496.78301772869,34934.413127233165,34160.95336210172,33069.83060477145,31989.123760357354,31281.914565791438,30414.242197780874,29353.070778020716,28265.54665154775,27612.719251241597,26930.700472676814,26048.521822514755,25060.842938523645,24448.896878826246,23844.975095388305,22998.335718910184,21932.58219153669,21156.66373451516,20492.280482325612,19559.519834461193,18410.88603864742,17495.40328924695,16839.312534250323,15951.59065146335,14853.494149863023,13854.415876199708,13163.881082997452,12288.832639316635,11181.706032956366,10089.599798870064,9376.646205979134,8516.752245039015,7409.491528212015,6164.991100429428,5335.651974159715,4490.487812815644,3385.5069739230844,2118.7889121519224,1248.9931284181034,465.5644852595908,-550.2105415118386,-1679.5547818606833,-2448.521846356612,-2975.039538745825,-3647.558825917104,-4547.216540243214,-5296.894049274212,-5792.633389548468,-6519.445064001688,-7503.078282246385,-8500.97191345357,-9158.560235328703,-9968.073364266558,-10994.197248720795,-12089.902113664402,-12792.328034916884,-13590.464125926987,-14627.160385508585,-15776.062402255822,-16479.315338053148,-17243.83440540247,-18305.65402575183,-19465.173121115342,-20262.30338362496,-20938.130728975622,-21870.869025095588,-23014.98776852939,-23902.50848561627,-24588.729392138648,-25475.75837084751,-26552.553659981928,-27451.741987674475,-28105.91049264795,-29023.20373334929,-30192.31172708413,-31300.891196833993,-32028.753403276613,-32923.09140242236,-33994.477569398594,-35142.61962683435,-35952.1327557722,-36839.07232750324,-37881.62474413213,-39007.37035362367,-39699.76034161572,-40284.97371494457,-41014.46759873243,-41986.45555811591,-42696.90575562784,-43241.28249183685,-43962.1262505205,-44916.769256206666,-45708.84802446938,-46311.227537539904,-47127.69205900336,-48139.644937472935,-48999.47184317969,-49616.37999014616,-50476.452765041926,-51577.231475976885,-52617.52636641578,-53222.43162660976,-53946.67285045062,-54902.38873987064,-55970.28803471185,-56666.94720589486,-57466.44675331673,-58533.429626635276,-59732.354847473485,-60509.90498184026,-61217.60591478419,-62183.53655142028,-63398.063289888305,-64269.691916667456,-64909.39884297834,-65753.04308569945,-66800.62464483078,-67671.58271927628,-68257.86897633898,-69029.22767749162,-70054.27867821201,-71003.13258208425,-71679.00463092382,-72499.22424545577,-73448.99457085069,-74362.1527388278,-74956.37386517214,-75701.80454275662,-76701.46396177578,-77809.99872803673,-78389.06537164038,-78942.69573005388,-79767.11747254342,-80876.05457020456,-82012.12668563446,-82900.89910041084,-83497.53421515635,-85231.78371569917,-91327.5067600616,-99123.3481911836,-107605.67874976144,-119628.97266494903,-130950.13123156206,-136684.13599540424,-140087.32319919148,-143816.97998249292,-147896.41921477547,-151222.31408623626,-154952.03792477108,-157422.01744580478,-158900.00419616752,-160527.7476343808,-162758.1164548536,-164930.25898102034,-166808.00668096624,-167983.1943491929,-169134.44329910795,-170984.29602197363,-173921.73992654562,-176258.0113122477,-177134.22204664018,-176529.33913819067,-175647.4063572176,-174197.38163916848,-172630.72551855154,-172805.27029100305,-174926.49554330058,-177774.64422877363,-180619.59661478957,-183447.4499162972,-186008.5574994752,-187500.02235174447,-187500.02235174447,-187500.02235174447,-187500.02235174447,-187500.02235174447,-187500.02235174447,-187500.02235174447,-187500.02235174447,-187500.02235174447,-187500.02235174447,-187500.02235174447,-187500.02235174447,-187500.02235174447,-187500.02235174447,-187500.02235174447,-187500.02235174447,-187500.02235174447,-187500.02235174447,-187500.02235174447,-187500.02235174447,-187500.02235174447,-187500.02235174447,-187500.02235174447,-187500.02235174447,-187500.02235174447,-187500.02235174447,-187500.02235174447,-187500.02235174447,-187500.02235174447,-187500.02235174447,-187500.02235174447,-187500.02235174447,-187500.02235174447,-187500.02235174447,-187500.02235174447,-187500.02235174447,-187500.02235174447,-187500.02235174447,-187500.02235174447,-187500.02235174447,-187500.02235174447,-187500.02235174447,-187500.02235174447,-187500.02235174447,-187500.02235174447,-187500.02235174447,-187500.02235174447,-187500.02235174447,-187500.02235174447,-187500.02235174447,-187500.02235174447,-187500.02235174447,-187500.02235174447,-187500.02235174447,-187500.02235174447,-187500.02235174447,-187500.02235174447,-187500.02235174447,-187500.02235174447,-187500.02235174447,-187500.02235174447,-187500.02235174447,-187500.02235174447,-187500.02235174447,-187500.02235174447,-187500.02235174447,-187500.02235174447,-187500.02235174447,-187500.02235174447,-187500.02235174447,-187500.02235174447,-187500.02235174447,-187500.02235174447,-187500.02235174447,-187500.02235174447,-187500.02235174447,-187500.02235174447,-187500.02235174447,-187500.02235174447,-187500.02235174447,-187500.02235174447,-187500.02235174447,-187500.02235174447,-187500.02235174447,-187500.02235174447,-187500.02235174447,-187500.02235174447,-187500.02235174447,-187500.02235174447,-187500.02235174447,-187500.02235174447,-187500.02235174447,-187500.02235174447,-187500.02235174447,-187500.02235174447,-187500.02235174447,-187500.02235174447,-187500.02235174447,-187500.02235174447,-187500.02235174447,-187500.02235174447,-187500.02235174447,-187500.02235174447,-187500.02235174447,-187500.02235174447,-187500.02235174447,-187500.02235174447,-187500.02235174447,-187500.02235174447,-187500.02235174447,-187500.02235174447,-187500.02235174447,-187500.02235174447,-187500.02235174447,-187500.02235174447,-187500.02235174447,-187500.02235174447,-187500.02235174447,-187500.02235174447,-187500.02235174447,-187500.02235174447,-187500.02235174447,-187500.02235174447,-187500.02235174447,-187500.02235174447,-187500.02235174447,-187500.02235174447,-187500.02235174447,-187500.02235174447,-187500.02235174447,-187500.02235174447,-187500.02235174447,-187500.02235174447,-187500.02235174447,-187500.02235174447,-187500.02235174447,-187500.02235174447,-187500.02235174447,-187500.02235174447,-187500.02235174447,-187500.02235174447,-187500.02235174447,-187500.02235174447,-187500.02235174447,-187500.02235174447,-187500.02235174447,-187500.02235174447,-187500.02235174447,-187500.02235174447,-187500.02235174447,-187500.02235174447,-187500.02235174447,-187500.02235174447,-187500.02235174447,-187500.02235174447,-187500.02235174447,-187500.02235174447,-187500.02235174447,-187500.02235174447,-187500.02235174447,-187500.02235174447,-187500.02235174447,-187500.02235174447,-187500.02235174447,-187500.02235174447,-187500.02235174447,-187500.02235174447,-187500.02235174447,-187500.02235174447,-187500.02235174447,-187500.02235174447,-187500.02235174447,-187500.02235174447,-187500.02235174447,-187500.02235174447,-187500.02235174447,-187500.02235174447,-187500.02235174447,-187500.02235174447,-187500.02235174447,-187500.02235174447,-187500.02235174447,-187500.02235174447,-187500.02235174447,-187500.02235174447,-187500.02235174447,-187500.02235174447,-187500.02235174447,-187500.02235174447,-187500.02235174447,-187500.02235174447,-187500.02235174447,-187500.02235174447,-187500.02235174447,-187500.02235174447,-187500.02235174447,-187500.02235174447,-187500.02235174447,-187500.02235174447,-187500.02235174447,-187500.02235174447,-187500.02235174447,-187500.02235174447,-187500.02235174447,-187500.02235174447,-187500.02235174447,-187500.02235174447,-187500.02235174447,-187500.02235174447,-187500.02235174447,-187500.02235174447,-187500.02235174447,-187500.02235174447,-187500.02235174447,-187500.02235174447,-187500.02235174447,-187500.02235174447,-187500.02235174447,-187500.02235174447,-187500.02235174447,-187500.02235174447,-187500.02235174447,-187500.02235174447,-187500.02235174447,-187500.02235174447,-187500.02235174447,-187500.02235174447,-187500.02235174447,-187500.02235174447,-187500.02235174447,-187500.02235174447,-187500.02235174447,-187500.02235174447,-187500.02235174447,-187500.02235174447,-187500.02235174447,-187500.02235174447,-187500.02235174447,-187500.02235174447,-187500.02235174447,-187500.02235174447,-187500.02235174447,-187500.02235174447,-187500.02235174447,-187500.02235174447,-187500.02235174447,-187500.02235174447,-187500.02235174447,-187500.02235174447,-187500.02235174447,-187500.02235174447,-187500.02235174447,-187500.02235174447,-187500.02235174447,-187500.02235174447,-187500.02235174447,-187500.02235174447,-187500.02235174447,-187500.02235174447,-187500.02235174447,-187500.02235174447,-187500.02235174447,-187500.02235174447,-187500.02235174447,-187500.02235174447,-187500.02235174447,-187500.02235174447,-187500.02235174447,-187500.02235174447,-187500.02235174447,-187500.02235174447,-187500.02235174447,-187500.02235174447,-187500.02235174447,-187500.02235174447,-187500.02235174447,-187500.02235174447,-187500.02235174447,-187500.02235174447,-187500.02235174447,-187500.02235174447,-187500.02235174447,-187500.02235174447,-187500.02235174447,-187500.02235174447,-187500.02235174447,-187500.02235174447,-187500.02235174447,-187500.02235174447,-187500.02235174447,-187500.02235174447,-187500.02235174447,-187500.02235174447,-187500.02235174447,-187500.02235174447,-187500.02235174447,-187500.02235174447,-187500.02235174447,-187500.02235174447,-187500.02235174447,-187500.02235174447,-187500.02235174447,-187500.02235174447,-187500.02235174447,-187500.02235174447,-187500.02235174447,-187500.02235174447,-187500.02235174447,-187500.02235174447,-187500.02235174447,-187500.02235174447,-187500.02235174447,-187500.02235174447,-187500.02235174447,-187500.02235174447,-187500.02235174447,-187500.02235174447,-187500.02235174447,-187500.02235174447,-187500.02235174447,-187500.02235174447,-187500.02235174447,-187500.02235174447,-187500.02235174447,-187500.02235174447,-187500.02235174447,-187500.02235174447,-187500.02235174447,-187500.02235174447,-187500.02235174447,-187500.02235174447,-187500.02235174447,-187500.02235174447,-187500.02235174447,-187500.02235174447,-187500.02235174447,-187500.02235174447,-187500.02235174447,-187500.02235174447,-187500.02235174447,-187500.02235174447,-187500.02235174447,-187500.02235174447,-187500.02235174447,-187500.02235174447,-187500.02235174447,-187500.02235174447,-187500.02235174447,-187500.02235174447,-187500.02235174447,-187500.02235174447,-187500.02235174447,-187500.02235174447,-187500.02235174447,-187500.02235174447,-187500.02235174447,-187500.02235174447,-187500.02235174447,-187500.02235174447,-187500.02235174447,-187500.02235174447,-187500.02235174447,-187500.02235174447,-187500.02235174447,-187500.02235174447,-187500.02235174447,-187500.02235174447,-187500.02235174447,-187500.02235174447,-187500.02235174447,-187500.02235174447,-187500.02235174447,-187500.02235174447,-187500.02235174447,-187500.02235174447,-187500.02235174447,-187500.02235174447,-187500.02235174447,-187500.02235174447,-187500.02235174447,-187500.02235174447,-187500.02235174447,-187500.02235174447,-187500.02235174447,-187500.02235174447,-187500.02235174447,-187500.02235174447,-187500.02235174447,-187500.02235174447,-187500.02235174447,-187500.02235174447,-187500.02235174447,-187500.02235174447,-187500.02235174447,-187500.02235174447,-187500.02235174447,-187500.02235174447,-187500.02235174447,-187500.02235174447,-187500.02235174447,-187500.02235174447,-187500.02235174447,-187500.02235174447,-187500.02235174447,-187500.02235174447,-187500.02235174447,-187500.02235174447,-187500.02235174447,-187500.02235174447,-187500.02235174447,-187500.02235174447,-187500.02235174447,-187500.02235174447,-187500.02235174447,-187500.02235174447,-187500.02235174447,-187500.02235174447,-187500.02235174447,-187500.02235174447,-187500.02235174447,-187500.02235174447,-187500.02235174447,-187500.02235174447,-187500.02235174447,-187500.02235174447,-187500.02235174447,-187500.02235174447,-187500.02235174447,-187500.02235174447,-187500.02235174447,-187500.02235174447,-187500.02235174447,-187500.02235174447,-187500.02235174447,-187500.02235174447,-187500.02235174447,-187500.02235174447,-187500.02235174447,-187500.02235174447,-187500.02235174447,-187500.02235174447,-187500.02235174447,-187500.02235174447,-187500.02235174447,-187500.02235174447,-187500.02235174447,-187500.02235174447,-187500.02235174447,-187500.02235174447,-187500.02235174447,-187500.02235174447,-187500.02235174447,-187500.02235174447,-187500.02235174447,-187500.02235174447,-187500.02235174447,-187500.02235174447,-187500.02235174447,-187500.02235174447,-187500.02235174447,-187500.02235174447,-187500.02235174447,-187500.02235174447,-187500.02235174447,-187500.02235174447,-187500.02235174447,-187500.02235174447,-187500.02235174447,-187500.02235174447,-187500.02235174447,-187500.02235174447,-187500.02235174447,-187500.02235174447,-187500.02235174447,-187500.02235174447,-187500.02235174447,-187500.02235174447,-187500.02235174447,-187500.02235174447,-187500.02235174447,-187500.02235174447,-187500.02235174447,-187500.02235174447,-187500.02235174447,-187500.02235174447,-187500.02235174447,-187500.02235174447,-187500.02235174447,-187500.02235174447,-187500.02235174447,-187500.02235174447,-187500.02235174447,-187500.02235174447,-187500.02235174447,-187500.02235174447,-187500.02235174447,-187500.02235174447,-187500.02235174447,-187500.02235174447,-187500.02235174447,-187500.02235174447,-187500.02235174447,-187500.02235174447,-187500.02235174447,-187500.02235174447,-187500.02235174447,-187500.02235174447,-187500.02235174447,-187500.02235174447,-187500.02235174447,-187500.02235174447,-187500.02235174447,-187500.02235174447,-187500.02235174447,-187500.02235174447,-187500.02235174447,-187500.02235174447,-187500.02235174447,-187500.02235174447,-187500.02235174447,-187500.02235174447,-187500.02235174447,-187500.02235174447,-187500.02235174447,-187500.02235174447,-187500.02235174447,-187500.02235174447,-187500.02235174447,-187500.02235174447,-187500.02235174447,-187500.02235174447,-187500.02235174447,-187500.02235174447,-187500.02235174447,-187500.02235174447,-187500.02235174447,-187500.02235174447,-187500.02235174447,-187500.02235174447,-187500.02235174447,-187500.02235174447,-187500.02235174447,-187500.02235174447,-187500.02235174447,-187500.02235174447,-187500.02235174447,-187500.02235174447,-187500.02235174447,-187500.02235174447,-187500.02235174447,-187500.02235174447,-187500.02235174447,-187500.02235174447,-187500.02235174447,-187500.02235174447,-187500.02235174447,-187500.02235174447,-187500.02235174447,-187500.02235174447,-187500.02235174447,-187500.02235174447,-187500.02235174447,-187500.02235174447,-187500.02235174447,-187500.02235174447,-187500.02235174447,-187500.02235174447,-187500.02235174447,-187500.02235174447,-187500.02235174447,-187500.02235174447,-187500.02235174447,-187500.02235174447,-187500.02235174447,-187500.02235174447,-187500.02235174447,-187500.02235174447,-187500.02235174447,-187500.02235174447,-187500.02235174447,-187500.02235174447,-187500.02235174447,-187500.02235174447,-187500.02235174447,-187500.02235174447,-187500.02235174447,-187500.02235174447,-187500.02235174447,-187500.02235174447,-187500.02235174447,-187500.02235174447,-187500.02235174447,-187500.02235174447,-187500.02235174447,-187500.02235174447,-187500.02235174447,-187500.02235174447,-187500.02235174447,-187500.02235174447,-187500.02235174447,-187500.02235174447,-187500.02235174447,-187500.02235174447,-187500.02235174447,-187500.02235174447,-187500.02235174447,-187500.02235174447,-187500.02235174447,-187500.02235174447,-187500.02235174447,-187500.02235174447,-187500.02235174447,-187500.02235174447,-187500.02235174447,-187500.02235174447,-187500.02235174447,-187500.02235174447,-187500.02235174447,-187500.02235174447,-187500.02235174447,-187500.02235174447,-187500.02235174447,-187500.02235174447,-187500.02235174447,-187500.02235174447,-187500.02235174447,-187500.02235174447,-187500.02235174447,-187500.02235174447,-187500.02235174447,-187500.02235174447,-187500.02235174447,-187500.02235174447,-187500.02235174447,-187500.02235174447,-187500.02235174447,-187500.02235174447,-187500.02235174447,-187500.02235174447,-187500.02235174447,-187500.02235174447,-187500.02235174447,-187500.02235174447,-187500.02235174447,-187500.02235174447,-187500.02235174447,-187500.02235174447,-187500.02235174447,-187500.02235174447,-187500.02235174447,-187500.02235174447,-187500.02235174447,-187500.02235174447,-187500.02235174447,-187500.02235174447,-187500.02235174447,-187500.02235174447,-187500.02235174447,-187500.02235174447,-187500.02235174447,-187500.02235174447,-187500.02235174447,-187500.02235174447,-187500.02235174447,-187500.02235174447,-187500.02235174447,-187500.02235174447,-187500.02235174447,-187500.02235174447,-187500.02235174447,-187500.02235174447,-187500.02235174447,-187500.02235174447,-187500.02235174447,-187500.02235174447,-187500.02235174447,