42903 
42894 
42902 
42873 
42814 
42793 
42776 
42779 
42759 
42712 
42706 
42745 
42777 
42732 
42689 
42661 
42668 
42691 
42683 
42636 
42595 
42592 
42600 
42598 
42578 
42562 
42609 
42625 
42601 
42545 
42460 
42407 
42405 
42451 
42434 
42372 
42364 
42362 
42305 
42274 
42294 
42271 
42216 
42180 
42128 
42108 
42056 
42026 
42003 
41970 
41929 
41914 
41880 
41809 
41689 
41498 
41197 
40813 
40293 
39715 
39130 
38573 
38022 
37424 
36840 
36296 
35848 
35393 
34948 
34581 
34249 
33941 
33694 
33458 
33181 
32922 
32714 
32547 
32450 
32370 
32260 
32177 
32137 
32088 
32072 
32073 
32115 
32109 
32091 
32113 
32180 
32220 
32233 
32252 
32328 
32426 
32539 
32652 
32735 
32768 
32840 
32946 
33118 
33270 
33399 
33551 
33666 
33807 
33976 
34171 
34373 
34545 
34725 
34868 
35024 
35215 
35393 
35546 
35667 
35777 
35909 
36038 
36165 
36293 
36476 
36656 
36775 
36858 
36940 
37014 
37094 
37178 
37274 
37317 
37369 
37407 
37465 
37550 
37669 
37765 
37879 
37975 
38046 
38090 
38167 
38227 
38309 
38396 
38459 
38530 
38669 
38795 
38892 
38988 
39161 
39290 
39382 
39542 
39627 
39685 
39805 
39984 
40121 
40235 
40387 
40494 
40553 
40574 
40660 
40780 
40884 
40965 
40992 
41003 
41046 
41156 
41277 
41370 
41477 
41573 
41632 
41718 
41795 
41806 
41788 
41833 
41908 
42019 
42113 
42208 
42251 
42297 
42323 
42340 
42371 
42381 
42422 
42466 
42464 
42410 
42475 
42560 
42577 
42583 
42554 
42546 
42580 
42590 
42621 
42670 
42692 
42686 
42699 
42719 
42708 
42726 
42697 
42650 
42622 
42684 
42704 
42713 
42659 
42594 
42568 
42608 
42610 
42554 
42524 
42558 
42518 
42495 
42490 
42452 
42456 
42376 
42297 
42283 
42270 
42267 
42258 
42257 
42240 
42200 
42132 
42099 
42128 
42108 
42084 
42101 
42143 
42129 
42081 
42040 
41959 
41890 
41840 
41784 
41733 
41724 
41781 
41780 
41716 
41707 
41655 
41592 
41623 
41680 
41640 
41581 
41489 
41366 
41168 
40886 
40439 
39956 
39461 
38891 
38302 
37650 
36990 
36348 
35726 
35159 
34653 
34186 
33705 
33271 
32861 
32511 
32251 
32035 
31800 
31558 
31346 
31154 
30993 
30884 
30810 
30672 
30603 
30606 
30638 
30674 
30722 
30770 
30858 
30952 
31040 
31122 
31185 
31292 
31399 
31515 
31624 
31742 
31838 
31984 
32110 
32196 
32285 
32400 
32549 
32655 
32738 
32880 
33006 
33191 
33327 
33498 
33707 
33853 
34030 
34244 
34445 
34598 
34731 
34909 
35084 
35244 
35367 
35483 
35634 
35832 
35994 
36135 
36240 
36314 
36412 
36515 
36621 
36733 
36828 
36881 
36925 
37013 
37113 
37189 
37266 
37386 
37547 
37619 
37691 
37764 
37892 
38050 
38257 
38387 
38452 
38541 
38666 
38789 
38866 
38936 
39044 
39154 
39288 
39423 
39600 
39732 
39887 
40010 
40110 
40225 
40368 
40449 
40487 
40541 
40637 
40740 
40853 
40974 
41044 
41125 
41268 
41365 
41435 
41453 
41538 
41666 
41838 
42005 
42100 
42170 
42171 
42172 
42209 
42247 
42268 
42290 
42333 
42428 
42459 
42402 
42358 
42374 
42420 
42472 
42632 
42662 
42619 
42623 
42636 
42663 
42673 
42696 
42700 
42688 
42699 
42692 
42728 
42740 
42719 
42708 
42680 
42614 
42582 
42587 
42554 
42515 
42543 
42576 
42581 
42574 
42640 
42733 
42706 
42588 
42520 
42470 
42452 
42443 
42461 
42419 
42331 
42309 
42333 
42364 
42335 
42303 
42302 
42346 
42346 
42296 
42261 
42253 
42213 
42198 
42146 
42118 
42103 
42089 
42071 
42035 
41967 
41923 
41876 
41908 
41979 
41995 
42019 
42025 
41997 
41966 
41961 
41918 
41877 
41874 
41818 
41766 
41710 
41667 
41605 
41559 
41515 
41529 
41512 
41439 
41358 
41344 
41291 
41197 
41222 
41246 
41204 
41063 
40824 
40471 
40003 
39507 
38966 
38334 
37761 
37175 
36626 
36044 
35434 
34854 
34368 
33877 
33437 
33045 
32678 
32316 
31974 
31722 
31480 
31272 
31121 
30975 
30876 
30746 
30686 
30677 
30671 
30672 
30714 
30772 
30830 
30819 
30879 
30979 
31110 
31151 
31177 
31279 
31391 
31524 
31651 
31710 
31805 
31904 
31961 
32014 
32125 
32292 
32466 
32626 
32812 
32996 
33115 
33264 
33494 
33653 
33787 
33956 
34052 
34215 
34354 
34491 
34671 
34833 
35024 
35231 
35321 
35413 
35439 
35520 
35730 
35938 
35995 
36040 
36101 
36148 
36202 
36314 
36470 
36580 
36659 
36757 
36808 
36859 
36911 
37028 
37108 
37137 
37249 
37376 
37509 
37629 
37781 
37913 
37992 
38075 
38127 
38223 
38354 
38549 
38748 
38891 
39004 
39195 
39385 
39417 
39497 
39602 
39683 
39810 
39994 
40095 
40197 
40343 
40524 
40679 
40756 
40821 
40906 
41002 
41100 
41209 
41339 
41454 
41543 
41666 
41772 
41825 
41884 
41929 
41992 
42068 
42116 
42257 
42333 
42316 
42338 
42440 
42485 
42532 
42567 
42587 
42624 
42624 
42657 
42749 
42857 
42940 
42970 
42953 
42910 
42915 
42867 
42837 
42803 
42806 
42883 
42955 
42912 
42867 
42879 
42915 
42918 
42872 
42908 
42897 
42851 
42872 
42840 
42808 
42808 
42809 
42846 
42854 
42839 
42830 
42762 
42723 
42693 
42701 
42692 
42672 
42668 
42689 
42706 
42699 
42697 
42662 
42582 
42585 
42648 
42669 
42686 
42743 
42743 
42715 
42683 
42653 
42640 
42623 
42579 
42539 
42541 
42546 
42540 
42568 
42559 
42523 
42479 
42492 
42441 
42262 
42044 
41738 
41337 
40888 
40381 
39883 
39364 
38799 
38200 
37655 
37151 
36623 
36097 
35616 
35155 
34761 
34422 
34114 
33810 
33478 
33183 
32945 
32721 
32584 
32484 
32395 
32374 
32386 
32397 
32385 
32454 
32550 
32626 
32693 
32796 
32873 
32946 
33039 
33147 
33253 
33398 
33502 
33578 
33696 
33799 
33900 
34041 
34163 
34257 
34338 
34410 
34520 
34614 
34704 
34838 
34947 
35077 
35230 
35394 
35569 
35753 
35977 
36135 
36246 
36359 
36487 
36522 
36579 
36690 
36789 
36927 
36992 
37024 
37088 
37172 
37254 
37288 
37336 
37446 
37587 
37646 
37709 
37806 
37868 
37929 
37965 
38010 
38017 
38065 
38104 
38170 
38240 
38300 
38350 
38441 
38556 
38669 
38778 
38893 
38978 
39032 
39210 
39400 
39452 
39517 
39610 
39735 
39902 
40021 
40108 
40189 
40270 
40405 
40535 
40626 
40713 
40794 
40832 
40948 
41035 
41127 
41203 
41277 
41350 
41467 
41603 
41699 
41736 
41728 
41731 
41744 
41818 
41931 
42039 
42093 
42125 
42189 
42239 
42304 
42359 
42400 
42377 
42374 
42406 
42420 
42448 
42391 
42325 
42318 
42364 
42411 
42433 
42421 
42381 
42338 
42325 
42329 
42367 
42324 
42349 
42402 
42427 
42404 
42344 
42329 
42358 
42370 
42369 
42395 
42381 
42339 
42308 
42331 
42304 
42284 
42323 
42366 
42426 
42436 
42459 
42446 
42449 
42430 
42381 
42350 
42364 
42406 
42437 
42389 
42358 
42452 
42457 
42443 
42418 
42408 
42486 
42451 
42367 
42326 
42289 
42312 
42322 
42278 
42250 
42262 
42269 
42237 
42261 
42226 
42201 
42191 
42175 
42162 
42128 
42043 
41957 
41891 
41728 
41456 
41138 
40779 
40406 
39972 
39473 
38989 
38465 
37815 
37155 
36524 
35869 
35270 
34704 
34191 
33714 
33270 
32850 
32438 
32139 
31902 
31723 
31573 
31419 
31270 
31136 
31064 
31066 
31020 
30957 
30905 
30876 
30874 
30941 
31040 
31154 
31236 
31292 
31387 
31502 
31616 
31747 
31828 
31883 
31976 
32085 
32146 
32146 
32167 
32238 
32328 
32419 
32529 
32569 
32623 
32660 
32731 
32868 
33004 
33155 
33311 
33457 
33586 
33711 
33811 
33924 
34051 
34218 
34451 
34627 
34724 
34852 
34990 
35086 
35178 
35327 
35522 
35712 
35821 
35896 
35945 
36026 
36076 
36173 
36238 
36332 
36420 
36488 
36521 
36563 
36665 
36734 
36860 
37010 
37090 
37151 
37232 
37319 
37433 
37517 
37662 
37803 
37912 
38047 
38173 
38337 
38493 
38682 
38808 
38901 
38996 
39086 
39200 
39347 
39483 
39557 
39683 
39810 
39950 
40072 
40159 
40283 
40399 
40442 
40482 
40574 
40664 
40759 
40815 
40856 
40917 
40992 
41107 
41172 
41252 
41352 
41434 
41531 
41592 
41647 
41678 
41739 
41790 
41767 
41825 
41918 
41955 
42035 
42097 
42096 
42148 
42187 
42239 
42265 
42277 
42310 
42355 
42388 
42404 
42401 
42462 
42545 
42607 
42619 
42633 
42603 
42606 
42643 
42626 
42618 
42651 
42647 
42645 
42663 
42672 
42682 
42645 
42607 
42657 
42686 
42662 
42625 
42604 
42611 
42621 
42643 
42673 
42684 
42721 
42730 
42681 
42607 
42568 
42547 
42516 
42550 
42551 
42516 
42449 
42437 
42463 
42459 
42498 
42493 
42494 
42523 
42581 
42596 
42523 
42535 
42577 
42545 
42494 
42417 
42387 
42420 
42506 
42522 
42456 
42417 
42406 
42379 
42365 
42342 
42285 
42258 
42275 
42265 
42253 
42222 
42168 
42151 
42088 
42055 
42023 
41939 
41871 
41783 
41636 
41437 
41221 
40941 
40561 
40077 
39556 
39074 
38607 
38064 
37406 
36739 
36123 
35509 
34922 
34410 
33907 
33411 
32995 
32573 
32139 
31769 
31442 
31142 
30872 
30673 
30514 
30390 
30371 
30326 
30292 
30328 
30351 
30407 
30460 
30516 
30596 
30668 
30723 
30766 
30838 
31015 
31153 
31240 
31342 
31465 
31569 
31640 
31761 
31881 
31964 
32001 
32031 
32104 
32161 
32187 
32219 
32312 
32426 
32533 
32632 
32716 
32855 
32992 
33124 
33303 
33496 
33649 
33749 
33908 
34123 
34275 
34442 
34554 
34638 
34685 
34741 
34877 
35002 
35095 
35180 
35264 
35306 
35406 
35558 
35646 
35774 
35869 
35933 
35953 
36004 
36071 
36207 
36327 
36463 
36548 
36621 
36741 
36838 
36924 
37042 
37127 
37265 
37412 
37524 
37639 
37715 
37809 
37973 
38101 
38233 
38407 
38560 
38632 
38731 
38818 
38973 
39134 
39274 
39463 
39592 
39715 
39798 
39840 
39916 
40036 
40183 
40335 
40455 
40508 
40636 
40768 
40854 
40910 
40996 
41128 
41215 
41276 
41340 
41431 
41502 
41599 
41708 
41760 
41800 
41836 
41940 
42008 
41993 
42026 
42041 
42125 
42251 
42276 
42300 
42365 
42382 
42386 
42466 
42547 
42565 
42543 
42515 
42549 
42570 
42561 
42551 
42582 
42676 
42741 
42747 
42788 
42852 
42839 
42878 
42952 
42994 
42974 
42930 
42907 
42890 
42917 
42907 
42965 
43014 
43040 
43056 
43042 
42988 
42962 
42966 
42991 
42998 
42981 
42967 
42946 
42920 
42856 
42798 
42803 
42779 
42807 
42910 
42915 
42870 
42829 
42767 
42719 
42703 
42701 
42676 
42637 
42650 
42656 
42645 
42660 
42632 
42613 
42603 
42625 
42658 
42637 
42615 
42602 
42509 
42313 
42154 
42013 
41752 
41427 
41036 
40623 
40193 
39665 
39106 
38503 
37930 
37374 
36843 
36335 
35848 
35311 
34853 
34461 
34079 
33756 
33400 
33120 
32874 
32598 
32406 
32273 
32176 
32122 
32082 
32030 
32081 
32200 
32280 
32372 
32470 
32582 
32698 
32715 
32786 
32903 
33043 
33170 
33301 
33442 
33539 
33580 
33626 
33730 
33825 
33913 
33971 
34053 
34143 
34217 
34299 
34364 
34447 
34533 
34633 
34815 
34997 
35089 
35177 
35312 
35473 
35614 
35735 
35856 
35941 
36054 
36154 
36172 
36238 
36375 
36503 
36584 
36629 
36699 
36737 
36832 
36949 
37000 
37067 
37137 
37180 
37190 
37259 
37360 
37440 
37528 
37603 
37720 
37825 
37878 
37975 
38118 
38218 
38270 
38298 
38428 
38602 
38735 
38848 
38983 
39093 
39240 
39351 
39416 
39507 
39569 
39679 
39844 
39962 
40061 
40197 
40304 
40348 
40407 
40519 
40695 
40805 
40847 
40952 
41037 
41140 
41214 
41281 
41338 
41433 
41544 
41591 
41624 
41658 
41680 
41747 
41909 
42058 
42091 
42114 
42162 
42179 
42189 
42185 
42254 
42312 
42291 
42278 
42276 
42264 
42249 
42297 
42393 
42416 
42384 
42417 
42422 
42442 
42440 
42398 
42381 
42348 
42326 
42358 
42358 
42339 
42365 
42356 
42357 
42411 
42416 
42388 
42344 
42321 
42306 
42303 
42302 
42281 
42290 
42347 
42398 
42440 
42495 
42483 
42482 
42474 
42459 
42460 
42436 
42394 
42419 
42427 
42393 
42374 
42373 
42472 
42481 
42402 
42296 
42179 
42025 
41851 
41590 
41270 
40868 
40416 
39985 
39513 
38994 
38459 
37911 
37353 
36825 
36274 
35748 
35244 
34733 
34307 
33946 
33590 
33303 
33033 
32806 
32576 
32386 
32244 
32189 
32144 
32114 
32071 
32092 
32104 
32138 
32169 
32185 
32260 
32363 
32424 
32528 
32683 
32784 
32857 
32943 
33012 
33051 
33162 
33297 
33344 
33367 
33441 
33481 
33478 
33558 
33638 
33678 
33744 
33858 
33982 
34116 
34235 
34329 
34403 
34484 
34673 
34876 
34999 
35092 
35195 
35353 
35499 
35590 
35695 
35834 
35967 
36103 
36265 
36331 
36416 
36575 
36682 
36742 
36773 
36774 
36821 
36907 
36951 
37004 
37097 
37184 
37311 
37398 
37487 
37531 
37635 
37795 
37923 
38011 
38116 
38195 
38280 
38415 
38563 
38686 
38804 
38945 
39071 
39126 
39207 
39319 
39460 
39595 
39746 
39916 
40098 
40222 
40335 
40468 
40549 
40679 
40801 
40909 
40991 
41077 
41159 
41266 
41302 
41351 
41460 
41577 
41615 
41789 
41893 
41859 
41861 
41938 
42017 
42047 
42156 
42252 
42295 
42302 
42269 
42256 
42278 
42319 
42324 
42351 
42438 
42508 
42552 
42565 
42538 
42566 
42619 
42650 
42649 
42584 
42536 
42525 
42555 
42590 
42579 
42537 
42584 
42575 
42547 
42579 
42582 
42576 
42591 
42608 
42580 
42536 
42512 
42498 
42514 
42498 
42445 
42394 
42355 
42299 
42291 
42253 
42231 
42226 
42235 
42230 
42219 
42207 
42216 
42284 
42277 
42272 
42253 
42238 
42185 
42128 
42109 
42124 
42106 
42092 
42081 
42103 
42125 
42110 
42096 
42158 
42200 
42223 
42228 
42201 
42179 
42164 
42131 
42081 
42041 
42055 
42102 
42064 
41981 
41902 
41871 
41886 
41884 
41923 
41864 
41785 
41787 
41776 
41698 
41627 
41548 
41454 
41310 
41177 
40980 
40684 
40295 
39795 
39337 
38798 
38196 
37544 
36851 
36184 
35535 
34921 
34291 
33748 
33226 
32684 
32201 
31787 
31344 
30966 
30640 
30363 
30155 
29950 
29857 
29781 
29726 
29711 
29660 
29644 
29671 
29676 
29750 
29813 
29837 
29905 
29998 
30099 
30186 
30352 
30537 
30653 
30737 
30738 
30707 
30763 
30831 
30877 
30903 
30941 
31018 
31049 
31128 
31218 
31237 
31273 
31372 
31471 
31533 
31657 
31861 
32017 
32109 
32147 
32242 
32421 
32645 
32822 
32986 
33091 
33216 
33354 
33526 
33726 
33884 
33998 
34165 
34357 
34483 
34632 
34745 
34807 
34866 
35014 
35168 
35334 
35415 
35535 
35693 
35835 
35951 
36054 
36175 
36324 
36485 
36657 
36839 
36960 
37045 
37200 
37379 
37503 
37624 
37742 
37839 
37981 
38144 
38300 
38426 
38545 
38650 
38807 
39024 
39174 
39319 
39449 
39593 
39734 
39794 
39862 
39929 
40027 
40140 
40293 
40420 
40490 
40564 
40642 
40718 
40830 
40936 
41039 
41140 
41211 
41256 
41312 
41333 
41380 
41483 
41554 
41656 
41682 
41675 
41722 
41825 
41860 
41933 
42012 
42099 
42185 
42244 
42261 
42278 
42307 
42322 
42351 
42415 
42457 
42471 
42465 
42496 
42485 
42494 
42512 
42585 
42656 
42656 
42685 
42674 
42670 
42674 
42640 
42619 
42695 
42814 
42846 
42853 
42821 
42808 
42895 
42892 
42837 
42851 
42871 
42921 
42934 
42977 
42947 
42864 
42865 
42888 
42946 
42988 
42934 
42878 
42833 
42834 
42837 
42870 
42889 
42864 
42850 
42841 
42846 
42826 
42754 
42738 
42738 
42741 
42710 
42724 
42670 
42562 
42487 
42506 
42484 
42430 
42421 
42398 
42377 
42365 
42384 
42376 
42300 
42284 
42303 
42323 
42333 
42289 
42215 
42183 
42121 
42015 
41951 
41972 
41928 
41862 
41810 
41767 
41745 
41680 
41601 
41555 
41471 
41422 
41303 
41132 
40930 
40696 
40454 
40118 
39696 
39256 
38736 
38189 
37597 
36986 
36400 
35774 
35151 
34529 
33913 
33313 
32723 
32235 
31793 
31380 
30994 
30656 
30331 
30057 
29844 
29677 
29559 
29487 
29399 
29326 
29339 
29412 
29527 
29524 
29524 
29586 
29661 
29728 
29795 
29875 
30009 
30128 
30216 
30313 
30412 
30516 
30659 
30764 
30829 
30860 
30891 
30907 
30897 
30876 
30958 
31095 
31130 
31144 
31190 
31241 
31314 
31377 
31489 
31635 
31793 
31932 
32061 
32159 
32249 
32361 
32489 
32574 
32722 
32896 
32976 
33022 
33110 
33184 
33236 
33330 
33496 
33634 
33707 
33803 
33931 
34023 
34127 
34224 
34306 
34386 
34502 
34643 
34789 
34871 
34956 
35104 
35240 
35369 
35485 
35587 
35684 
35861 
36025 
36148 
36293 
36450 
36562 
36650 
36732 
36913 
37046 
37205 
37367 
37572 
37777 
37954 
38098 
38178 
38265 
38376 
38514 
38638 
38737 
38865 
38955 
39046 
39177 
39355 
39490 
39661 
39810 
39869 
39895 
39939 
40043 
40157 
40234 
40299 
40456 
40619 
40734 
40736 
40777 
40839 
40901 
40947 
41009 
41079 
41105 
41172 
41265 
41314 
41335 
41377 
41433 
41476 
41534 
41555 
41583 
41589 
41610 
41682 
41706 
41675 
41645 
41630 
41644 
41629 
41649 
41687 
41738 
41745 
41787 
41830 
41818 
41824 
41820 
41917 
41932 
41905 
41921 
41961 
42025 
42049 
42047 
42086 
42125 
42142 
42175 
42198 
42176 
42203 
42247 
42291 
42341 
42336 
42272 
42225 
42223 
42229 
42211 
42179 
42143 
42203 
42199 
42150 
42105 
42135 
42148 
42146 
42166 
42203 
42282 
42300 
42287 
42308 
42338 
42272 
42189 
42158 
42153 
42159 
42172 
42178 
42117 
42069 
42040 
42001 
41917 
41825 
41732 
41656 
41512 
41303 
40977 
40574 
40166 
39738 
39185 
38598 
38013 
37393 
36832 
36285 
35765 
35272 
34779 
34339 
33867 
33410 
33057 
32714 
32422 
32227 
32028 
31887 
31741 
31625 
31604 
31617 
31657 
31677 
31666 
31730 
31856 
31960 
32087 
32208 
32301 
32427 
32588 
32730 
32859 
32965 
33081 
33206 
33327 
33420 
33509 
33599 
33735 
33857 
33980 
34085 
34129 
34233 
34363 
34551 
34686 
34835 
34968 
35039 
35089 
35188 
35369 
35548 
35640 
35692 
35763 
35859 
35975 
36127 
36208 
36277 
36394 
36484 
36616 
36725 
36775 
36850 
36896 
36934 
36967 
37014 
37060 
37086 
37098 
37161 
37243 
37305 
37389 
37434 
37493 
37560 
37630 
37703 
37790 
37865 
38024 
38152 
38214 
38343 
38413 
38467 
38562 
38704 
38893 
39020 
39095 
39195 
39335 
39508 
39655 
39770 
39875 
39982 
40034 
40110 
40245 
40411 
40501 
40617 
40721 
40814 
40925 
41041 
41076 
41098 
41132 
41178 
41217 
41318 
41380 
41405 
41459 
41502 
41512 
41573 
41565 
41611 
41730 
41798 
41845 
41862 
41896 
41903 
41897 
41908 
42005 
42041 
42013 
42012 
41990 
41960 
41972 
41988 
42022 
42034 
42010 
42065 
42077 
42084 
42103 
42141 
42153 
42182 
42214 
42151 
42083 
42079 
42136 
42161 
42137 
42059 
41974 
41933 
41929 
41887 
41915 
41940 
41963 
41966 
41911 
41852 
41843 
41874 
41901 
41881 
41889 
41930 
41913 
41904 
41928 
41883 
41810 
41795 
41766 
41691 
41618 
41581 
41498 
41366 
41155 
40882 
40544 
40089 
39549 
39025 
38486 
37942 
37399 
36832 
36238 
35688 
35219 
34762 
34252 
33789 
33384 
33043 
32730 
32425 
32222 
32047 
31882 
31752 
31691 
31645 
31607 
31615 
31622 
31600 
31621 
31662 
31704 
31774 
31856 
32018 
32165 
32188 
32270 
32405 
32508 
32615 
32702 
32814 
32885 
32927 
33055 
33164 
33221 
33302 
33346 
33445 
33572 
33672 
33757 
33828 
33945 
34079 
34162 
34248 
34441 
34604 
34704 
34834 
34986 
35192 
35381 
35543 
35701 
35827 
35936 
36080 
36235 
36357 
36431 
36479 
36500 
36504 
36571 
36712 
36805 
36832 
36862 
36936 
36952 
36973 
37112 
37232 
37309 
37398 
37512 
37629 
37686 
37766 
37869 
37992 
38067 
38141 
38244 
38419 
38555 
38645 
38750 
38815 
38903 
39113 
39285 
39417 
39536 
39639 
39767 
39909 
40003 
40076 
40166 
40299 
40449 
40520 
40603 
40715 
40816 
40932 
41048 
41109 
41212 
41261 
41303 
41352 
41455 
41549 
41597 
41606 
41668 
41692 
41729 
41776 
41837 
41892 
41881 
41922 
42022 
42109 
42154 
42194 
42230 
42342 
42392 
42376 
42418 
42462 
42471 
42425 
42387 
42344 
42361 
42406 
42439 
42467 
42468 
42487 
42547 
42593 
42584 
42551 
42495 
42483 
42497 
42481 
42473 
42474 
42500 
42508 
42469 
42414 
42396 
42394 
42380 
42383 
42411 
42394 
42386 
42346 
42333 
42294 
42261 
42287 
42249 
42193 
42140 
42177 
42242 
42268 
42231 
42164 
42157 
42186 
42159 
42121 
42055 
41963 
41799 
41639 
41415 
41082 
40743 
40389 
39909 
39371 
38793 
38250 
37659 
37013 
36382 
35767 
35181 
34589 
34062 
33633 
33216 
32808 
32453 
32148 
31846 
31601 
31437 
31241 
31118 
31041 
30941 
30853 
30838 
30830 
30847 
30885 
30949 
31032 
31107 
31126 
31205 
31321 
31393 
31432 
31459 
31518 
31634 
31724 
31808 
31816 
31866 
31912 
31960 
32016 
32103 
32180 
32191 
32197 
32261 
32334 
32434 
32543 
32635 
32728 
32849 
32981 
33119 
33222 
33374 
33576 
33788 
34031 
34172 
34307 
34476 
34625 
34814 
34959 
35120 
35251 
35378 
35537 
35705 
35828 
35957 
36076 
36178 
36236 
36295 
36370 
36525 
36671 
36757 
36865 
36967 
37067 
37192 
37254 
37355 
37467 
37608 
37768 
37899 
38052 
38155 
38293 
38414 
38506 
38641 
38820 
38980 
39088 
39163 
39262 
39367 
39473 
39642 
39812 
39950 
40014 
40160 
40307 
40432 
40601 
40739 
40806 
40799 
40867 
40982 
41100 
41184 
41256 
41355 
41405 
41515 
41571 
41628 
41665 
41699 
41731 
41793 
41811 
41828 
41818 
41847 
41881 
41882 
41961 
42001 
42005 
42030 
42030 
42078 
42110 
42086 
42017 
41999 
42009 
42002 
42036 
42063 
42107 
42111 
42138 
42145 
42115 
42090 
42126 
42203 
42228 
42259 
42233 
42186 
42132 
42096 
42079 
42084 
42082 
42088 
42105 
42094 
42054 
41996 
42036 
42087 
42076 
42106 
42157 
42097 
42067 
42074 
42012 
41947 
41925 
41892 
41766 
41657 
41626 
41599 
41580 
41609 
41617 
41576 
41517 
41495 
41480 
41421 
41401 
41365 
41304 
41273 
41244 
41246 
41243 
41203 
41171 
41100 
41025 
40946 
40753 
40517 
40288 
39934 
39520 
39060 
38577 
38053 
37463 
36850 
36265 
35713 
35110 
34541 
33986 
33465 
32994 
32484 
32027 
31575 
31209 
30914 
30644 
30424 
30224 
30118 
30007 
29874 
29794 
29733 
29814 
29938 
29935 
29930 
30020 
30111 
30193 
30279 
30398 
30501 
30573 
30613 
30634 
30707 
30797 
30856 
30909 
30938 
30931 
30966 
30988 
30998 
31025 
31090 
31185 
31220 
31254 
31247 
31271 
31332 
31451 
31594 
31670 
31748 
31885 
32027 
32247 
32495 
32660 
32803 
32905 
33032 
33131 
33264 
33484 
33654 
33747 
33844 
33905 
34018 
34115 
34196 
34305 
34433 
34533 
34589 
34649 
34689 
34792 
34887 
34961 
35043 
35086 
35180 
35319 
35462 
35609 
35672 
35770 
35926 
36089 
36155 
36264 
36438 
36582 
36692 
36831 
36958 
37091 
37252 
37355 
37451 
37599 
37738 
37870 
37989 
38121 
38276 
38413 
38565 
38678 
38734 
38840 
39047 
39195 
39309 
39457 
39623 
39723 
39779 
39850 
39947 
40053 
40202 
40313 
40412 
40492 
40521 
40569 
40651 
40747 
40886 
41017 
41030 
40992 
41010 
41068 
41103 
41169 
41250 
41332 
41383 
41395 
41406 
41470 
41515 
41549 
41601 
41570 
41550 
41571 
41623 
41644 
41667 
41734 
41843 
41886 
41912 
41893 
41832 
41783 
41773 
41772 
41799 
41842 
41854 
41896 
41972 
42076 
42157 
42154 
42120 
42076 
42010 
41971 
41982 
42022 
42070 
42108 
42109 
42077 
42083 
42122 
42179 
42215 
42219 
42219 
42296 
42361 
42390 
42312 
42286 
42258 
42261 
42285 
42253 
42233 
42281 
42345 
42364 
42383 
42341 
42350 
42328 
42277 
42167 
42025 
41828 
41584 
41266 
40973 
40591 
40136 
39599 
39012 
38388 
37829 
37316 
36776 
36243 
35756 
35263 
34791 
34389 
34037 
33703 
33432 
33198 
32905 
32623 
32451 
32311 
32233 
32227 
32163 
32158 
32213 
32282 
32366 
32465 
32525 
32580 
32716 
32854 
32984 
33076 
33174 
33303 
33437 
33495 
33629 
33710 
33698 
33744 
33825 
33921 
34000 
34082 
34183 
34327 
34392 
34461 
34636 
34769 
34849 
34924 
35042 
35232 
35416 
35527 
35664 
35791 
35883 
35977 
36084 
36248 
36420 
36508 
36573 
36636 
36719 
36780 
36844 
36969 
37110 
37244 
37282 
37296 
37377 
37478 
37546 
37583 
37612 
37682 
37752 
37827 
37953 
38059 
38162 
38271 
38344 
38435 
38545 
38632 
38757 
38848 
38931 
39012 
39138 
39228 
39261 
39396 
39616 
39783 
39889 
39975 
40054 
40188 
40272 
40364 
40504 
40634 
40741 
40819 
40848 
40954 
41080 
41189 
41209 
41252 
41348 
41448 
41512 
41577 
41663 
41711 
41708 
41732 
41820 
41930 
42024 
42099 
42140 
42169 
42129 
42116 
42165 
42248 
42253 
42244 
42315 
42367 
42388 
42386 
42388 
42429 
42459 
42468 
42511 
42537 
42549 
42537 
42517 
42558 
42635 
42667 
42653 
42671 
42708 
42692 
42647 
42609 
42580 
42538 
42539 
42467 
42439 
42453 
42394 
42361 
42384 
42363 
42329 
42263 
42188 
42149 
42165 
42160 
42190 
42213 
42186 
42166 
42127 
42060 
41981 
41956 
41963 
42004 
42027 
41993 
41966 
41978 
41991 
41915 
41840 
41766 
41672 
41588 
41512 
41454 
41229 
40913 
40569 
40156 
39663 
39151 
38657 
38186 
37609 
37019 
36400 
35787 
35179 
34558 
34003 
33487 
33025 
32614 
32243 
31851 
31569 
31332 
31075 
30887 
30803 
30709 
30614 
30611 
30581 
30537 
30593 
30638 
30625 
30639 
30734 
30851 
30925 
31014 
31095 
31189 
31286 
31384 
31529 
31624 
31664 
31716 
31781 
31814 
31863 
31919 
31951 
32002 
32073 
32136 
32157 
32227 
32285 
32359 
32468 
32579 
32680 
32840 
33039 
33198 
33294 
33421 
33557 
33695 
33908 
34131 
34295 
34445 
34636 
34767 
34849 
34917 
34971 
35081 
35240 
35385 
35493 
35547 
35648 
35780 
35898 
36036 
36139 
36213 
36252 
36367 
36549 
36679 
36761 
36906 
37057 
37179 
37314 
37395 
37456 
37590 
37802 
38017 
38204 
38323 
38451 
38557 
38724 
38854 
38992 
39156 
39258 
39406 
39511 
39610 
39787 
39971 
40127 
40315 
40440 
40502 
40654 
40867 
41056 
41144 
41214 
41308 
41378 
41499 
41580 
41670 
41729 
41829 
41941 
42041 
42101 
42222 
42363 
42394 
42398 
42434 
42452 
42515 
42603 
42696 
42793 
42837 
42863 
42872 
42888 
42913 
42951 
42972 
42938 
42950 
42945 
42943 
42906 
42925 
42909 
42889 
42877 
42923 
42981 
42977 
42941 
42945 
42965 
42976 
42941 
42929 
42923 
42920 
42908 
42956 
42964 
43000 
43024 
42940 
42871 
42844 
42825 
42794 
42739 
42708 
42770 
42799 
42804 
42822 
42797 
42775 
42767 
42755 
42748 
42677 
42580 
42573 
42632 
42600 
42522 
42452 
42414 
42388 
42342 
42270 
42268 
42261 
42241 
42145 
41933 
41699 
41444 
41132 
40790 
40385 
39935 
39422 
38865 
38281 
37658 
37017 
36394 
35767 
35139 
34538 
33961 
33473 
33060 
32655 
32234 
31827 
31492 
31244 
31040 
30901 
30760 
30620 
30541 
30520 
30503 
30523 
30564 
30601 
30666 
30667 
30658 
30730 
30881 
31014 
31106 
31156 
31198 
31346 
31456 
31499 
31586 
31683 
31758 
31845 
31908 
31969 
32116 
32184 
32186 
32258 
32425 
32563 
32682 
32807 
32903 
33060 
33208 
33434 
33620 
33754 
33898 
34079 
34305 
34504 
34689 
34879 
35015 
35114 
35248 
35393 
35550 
35674 
35801 
35899 
36009 
36121 
36256 
36369 
36482 
36551 
36628 
36722 
36786 
36893 
36979 
37088 
37190 
37285 
37347 
37407 
37509 
37644 
37759 
37816 
37904 
38000 
38122 
38231 
38325 
38450 
38595 
38731 
38893 
39017 
39116 
39264 
39419 
39589 
39723 
39820 
39975 
40126 
40309 
40481 
40561 
40661 
40793 
40905 
41039 
41133 
41256 
41370 
41454 
41573 
41696 
41829 
41971 
42048 
42132 
42251 
42332 
42409 
42472 
42498 
42527 
42619 
42715 
42776 
42798 
42836 
42875 
42937 
42966 
43010 
43074 
43090 
43081 
43049 
43018 
43031 
43008 
42979 
42983 
42953 
42899 
42887 
42869 
42811 
42779 
42793 
42785 
42801 
42799 
42777 
42764 
42699 
42670 
42689 
42668 
42652 
42722 
42766 
42705 
42666 
42695 
42702 
42690 
42625 
42592 
42532 
42468 
42463 
42480 
42471 
42417 
42375 
42329 
42301 
42285 
42333 
42358 
42379 
42351 
42315 
42271 
42188 
42175 
42112 
42067 
42062 
42021 
42011 
42006 
41947 
41890 
41828 
41807 
41848 
41822 
41717 
41691 
41662 
41588 
41525 
41557 
41539 
41442 
41315 
41147 
40950 
40746 
40444 
40073 
39667 
39196 
38683 
38154 
37595 
36940 
36243 
35543 
34962 
34451 
33883 
33297 
32751 
32293 
31844 
31427 
31008 
30623 
30387 
30169 
29989 
29872 
29721 
29606 
29585 
29542 
29545 
29565 
29612 
29682 
29767 
29838 
29918 
30062 
30165 
30257 
30298 
30334 
30384 
30407 
30432 
30477 
30553 
30632 
30631 
30614 
30591 
30604 
30658 
30747 
30854 
30907 
30975 
30984 
31030 
31131 
31256 
31395 
31521 
31647 
31820 
31972 
32096 
32240 
32379 
32575 
32728 
32887 
33018 
33135 
33288 
33431 
33555 
33700 
33855 
33903 
33926 
34042 
34076 
34093 
34112 
34246 
34380 
34452 
34557 
34616 
34662 
34742 
34818 
34886 
35029 
35190 
35330 
35432 
35466 
35569 
35651 
35707 
35835 
35999 
36178 
36328 
36484 
36580 
36691 
36869 
37099 
37301 
37422 
37499 
37642 
37842 
38049 
38211 
38273 
38372 
38547 
38700 
38806 
38897 
39032 
39234 
39438 
39572 
39757 
39842 
39879 
40040 
40173 
40245 
40363 
40491 
40565 
40600 
40675 
40815 
40946 
40964 
40998 
41076 
41171 
41279 
41295 
41280 
41300 
41354 
41452 
41483 
41505 
41574 
41610 
41662 
41704 
41756 
41761 
41785 
41821 
41849 
41916 
41954 
42010 
42057 
42135 
42172 
42157 
42241 
42321 
42323 
42334 
42296 
42255 
42255 
42238 
42281 
42332 
42388 
42441 
42415 
42380 
42376 
42383 
42364 
42334 
42339 
42357 
42344 
42353 
42354 
42331 
42330 
42334 
42343 
42344 
42330 
42309 
42315 
42296 
42232 
42202 
42155 
42107 
42116 
42092 
42063 
42069 
42082 
42091 
42072 
42088 
42132 
42119 
42115 
42135 
42120 
42090 
42004 
41902 
41710 
41454 
41179 
40845 
40488 
40047 
39540 
38949 
38411 
37867 
37305 
36712 
36136 
35601 
35077 
34617 
34194 
33748 
33376 
33002 
32651 
32419 
32232 
31990 
31887 
31797 
31738 
31716 
31668 
31661 
31704 
31726 
31798 
31879 
31976 
32151 
32252 
32401 
32530 
32571 
32703 
32908 
33093 
33208 
33241 
33298 
33400 
33524 
33672 
33796 
33832 
33857 
33906 
33995 
34070 
34198 
34261 
34356 
34543 
34714 
34839 
34988 
35117 
35201 
35246 
35320 
35432 
35609 
35724 
35821 
35910 
35956 
36012 
36102 
36170 
36228 
36305 
36394 
36419 
36475 
36592 
36680 
36726 
36777 
36823 
36888 
36933 
37009 
37121 
37172 
37229 
37338 
37464 
37542 
37624 
37767 
37945 
38082 
38259 
38437 
38554 
38663 
38794 
38925 
39053 
39193 
39347 
39441 
39566 
39701 
39823 
39914 
40012 
40193 
40305 
40408 
40493 
40529 
40658 
40801 
40898 
40940 
40986 
41060 
41160 
41279 
41338 
41426 
41527 
41576 
41604 
41671 
41772 
41909 
42010 
42057 
42100 
42193 
42258 
42300 
42338 
42428 
42462 
42448 
42461 
42513 
42585 
42640 
42697 
42690 
42697 
42671 
42615 
42634 
42675 
42700 
42709 
42653 
42605 
42574 
42578 
42616 
42633 
42588 
42624 
42649 
42686 
42777 
42816 
42733 
42709 
42709 
42736 
42776 
42764 
42750 
42687 
42646 
42687 
42692 
42645 
42640 
42689 
42714 
42690 
42683 
42679 
42664 
42618 
42599 
42581 
42545 
42420 
42310 
42226 
42006 
41685 
41363 
40996 
40563 
40043 
39453 
38874 
38311 
37774 
37172 
36588 
36081 
35504 
34944 
34449 
33980 
33587 
33206 
32874 
32592 
32384 
32193 
32014 
31832 
31728 
31677 
31618 
31572 
31640 
31658 
31604 
31665 
31805 
31909 
32003 
32090 
32130 
32225 
32262 
32345 
32450 
32527 
32682 
32811 
32874 
32937 
33003 
33028 
33089 
33168 
33247 
33324 
33430 
33504 
33596 
33693 
33864 
33964 
34093 
34264 
34410 
34509 
34589 
34734 
34871 
35009 
35140 
35310 
35490 
35622 
35687 
35838 
35970 
36076 
36203 
36293 
36388 
36475 
36626 
36720 
36776 
36821 
36916 
36970 
37074 
37110 
37204 
37341 
37443 
37481 
37585 
37768 
37883 
37966 
38047 
38147 
38226 
38304 
38468 
38624 
38801 
38942 
39054 
39168 
39308 
39431 
39573 
39747 
39886 
39990 
40136 
40217 
40296 
40421 
40499 
40634 
40793 
40873 
40913 
41032 
41122 
41172 
41221 
41308 
41473 
41556 
41669 
41760 
41854 
41932 
41978 
42079 
42159 
42191 
42256 
42380 
42467 
42484 
42469 
42492 
42536 
42543 
42564 
42624 
42636 
42676 
42666 
42636 
42692 
42776 
42792 
42803 
42809 
42808 
42831 
42799 
42782 
42758 
42771 
42797 
42775 
42741 
42709 
42677 
42692 
42702 
42717 
42803 
42834 
42768 
42716 
42630 
42590 
42604 
42623 
42633 
42645 
42672 
42625 
42606 
42602 
42603 
42642 
42657 
42638 
42629 
42619 
42540 
42501 
42518 
42544 
42478 
42451 
42462 
42428 
42393 
42334 
42259 
42159 
41969 
41672 
41277 
40888 
40471 
39951 
39365 
38787 
38165 
37490 
36840 
36238 
35704 
35150 
34575 
34019 
33461 
32962 
32588 
32267 
31977 
31675 
31359 
31143 
31030 
30922 
30776 
30649 
30585 
30580 
30558 
30522 
30541 
30615 
30689 
30737 
30733 
30784 
30857 
30925 
30985 
31031 
31071 
31175 
31250 
31318 
31328 
31273 
31307 
31397 
31452 
31471 
31496 
31502 
31515 
31545 
31632 
31737 
31896 
31997 
32086 
32185 
32307 
32425 
32603 
32780 
32918 
33090 
33257 
33404 
33586 
33771 
33881 
34041 
34191 
34326 
34490 
34564 
34627 
34699 
34777 
34881 
34988 
35075 
35140 
35210 
35301 
35425 
35492 
35508 
35659 
35796 
35881 
36025 
36130 
36229 
36389 
36501 
36625 
36764 
36873 
36963 
37065 
37181 
37305 
37488 
37632 
37803 
37981 
38123 
38297 
38420 
38488 
38619 
38771 
38896 
39104 
39270 
39396 
39495 
39602 
39774 
39924 
40023 
40138 
40253 
40386 
40490 
40646 
40781 
40856 
40930 
41016 
41100 
41263 
41383 
41448 
41487 
41539 
41602 
41731 
41830 
41910 
41967 
42029 
42067 
42150 
42267 
42321 
42353 
42393 
42450 
42536 
42561 
42656 
42727 
42778 
42757 
42724 
42770 
42808 
42775 
42810 
42868 
42954 
42971 
42914 
42900 
42925 
42953 
42917 
42871 
42957 
43043 
43092 
43110 
43133 
43136 
43100 
43101 
43093 
43154 
43220 
43215 
43168 
43172 
43168 
43186 
43228 
43212 
43218 
43244 
43238 
43244 
43213 
43126 
43042 
42907 
42716 
42541 
42351 
42009 
41616 
41180 
40710 
40202 
39673 
39098 
38453 
37865 
37338 
36797 
36235 
35745 
35278 
34799 
34393 
34024 
33697 
33416 
33189 
33008 
32833 
32724 
32681 
32620 
32598 
32624 
32666 
32698 
32766 
32849 
32929 
33088 
33223 
33311 
33416 
33512 
33623 
33686 
33752 
33861 
33938 
33999 
34093 
34161 
34216 
34240 
34310 
34405 
34459 
34557 
34698 
34783 
34864 
34984 
35108 
35239 
35433 
35611 
35698 
35808 
35921 
36000 
36154 
36330 
36511 
36650 
36785 
36867 
36946 
37034 
37105 
37192 
37273 
37378 
37487 
37525 
37586 
37716 
37803 
37799 
37781 
37829 
37961 
38085 
38121 
38199 
38315 
38428 
38540 
38604 
38638 
38650 
38730 
38835 
38960 
39112 
39277 
39409 
39452 
39485 
39586 
39732 
39880 
39968 
39978 
40028 
40153 
40277 
40392 
40499 
40651 
40816 
40940 
41074 
41146 
41196 
41289 
41306 
41370 
41522 
41607 
41653 
41698 
41738 
41816 
41900 
41971 
42046 
42113 
42107 
42115 
42179 
42270 
42294 
42321 
42414 
42499 
42593 
42659 
42732 
42767 
42826 
42912 
43012 
43066 
43131 
43201 
43250 
43314 
43359 
43405 
43424 
43466 
43524 
43557 
43581 
43628 
43705 
43762 
43837 
43900 
43968 
43968 
43953 
43960 
43955 
44028 
44112 
44084 
44020 
44025 
44039 
43991 
43925 
43895 
43955 
43939 
43893 
43864 
43867 
43903 
43979 
43977 
43929 
43914 
43973 
43995 
44001 
44054 
44076 
44018 
43976 
43925 
43828 
43650 
43419 
43104 
42706 
42279 
41788 
41234 
40673 
40097 
39466 
38846 
38172 
37478 
36795 
36168 
35556 
35000 
34464 
34016 
33547 
33163 
32859 
32607 
32357 
32141 
31951 
31823 
31717 
31631 
31567 
31552 
31548 
31600 
31636 
31663 
31702 
31760 
31792 
31820 
31910 
32039 
32168 
32244 
32286 
32290 
32327 
32351 
32389 
32450 
32483 
32472 
32467 
32506 
32478 
32552 
32649 
32692 
32758 
32841 
32943 
33042 
33194 
33362 
33565 
33722 
33917 
34142 
34340 
34573 
34829 
35062 
35318 
35509 
35709 
35913 
36090 
36247 
36399 
36603 
36839 
37006 
37164 
37280 
37373 
37457 
37549 
37678 
37827 
37915 
38054 
38212 
38302 
38377 
38512 
38659 
38832 
38954 
39008 
39099 
39247 
39398 
39537 
39691 
39845 
39978 
40119 
40269 
40421 
40610 
40813 
40976 
41139 
41274 
41413 
41576 
41743 
41835 
41926 
42038 
42123 
42215 
42374 
42507 
42662 
42828 
42928 
42948 
43018 
43127 
43241 
43349 
43474 
43559 
43589 
43668 
43754 
43800 
43910 
43952 
43976 
44056 
44097 
44074 
44033 
44050 
44142 
44198 
44232 
44336 
44384 
44472 
44539 
44497 
44427 
44394 
44430 
44479 
44529 
44550 
44577 
44587 
44593 
44626 
44631 
44581 
44554 
44590 
44624 
44599 
44541 
44501 
44448 
44442 
44454 
44457 
44508 
44540 
44468 
44419 
44381 
44346 
44300 
44294 
44322 
44330 
44281 
44225 
44194 
44187 
44197 
44219 
44227 
44217 
44169 
44132 
44138 
44118 
44102 
44083 
44084 
44033 
44015 
43949 
43876 
43776 
43744 
43718 
43653 
43600 
43517 
43497 
43431 
43293 
43070 
42733 
42377 
42023 
41549 
41022 
40425 
39779 
39158 
38529 
37845 
37179 
36575 
36011 
35421 
34849 
34298 
33868 
33480 
33113 
32776 
32452 
32129 
31905 
31705 
31574 
31472 
31438 
31427 
31422 
31428 
31391 
31436 
31476 
31452 
31443 
31560 
31704 
31768 
31843 
31943 
32045 
32129 
32171 
32193 
32175 
32200 
32232 
32315 
32372 
32432 
32490 
32523 
32551 
32601 
32681 
32757 
32854 
32919 
32973 
33094 
33270 
33478 
33648 
33848 
34094 
34294 
34487 
34661 
34883 
35074 
35211 
35358 
35524 
35704 
35874 
36009 
36174 
36275 
36395 
36587 
36745 
36835 
36906 
37025 
37153 
37264 
37321 
37434 
37611 
37780 
37987 
38071 
38154 
38289 
38409 
38519 
38628 
38734 
38877 
39005 
39120 
39247 
39479 
39621 
39766 
39875 
40004 
40151 
40264 
40380 
40531 
40670 
40812 
40987 
41146 
41305 
41470 
41561 
41647 
41766 
41806 
41853 
41949 
42006 
42090 
42194 
42309 
42383 
42438 
42509 
42565 
42608 
42696 
42788 
42847 
42871 
42934 
43051 
43146 
43190 
43208 
43223 
43288 
43349 
43346 
43367 
43378 
43398 
43368 
43346 
43401 
43465 
43476 
43517 
43513 
43499 
43524 
43503 
43451 
43384 
43379 
43390 
43340 
43276 
43284 
43299 
43285 
43334 
43341 
43338 
43346 
43323 
43305 
43237 
43221 
43250 
43291 
43299 
43191 
43093 
43083 
43065 
43101 
43113 
43100 
43095 
42995 
42987 
43010 
43009 
42933 
42839 
42804 
42809 
42751 
42696 
42683 
42646 
42613 
42558 
42510 
42450 
42406 
42356 
42297 
42251 
42200 
42134 
42035 
41934 
41847 
41804 
41832 
41799 
41751 
41727 
41685 
41588 
41534 
41542 
41520 
41481 
41458 
41387 
41385 
41362 
41317 
41250 
41199 
41131 
41034 
40919 
40713 
40426 
40093 
39661 
39197 
38707 
38106 
37458 
36811 
36213 
35633 
35052 
34452 
33857 
33270 
32692 
32169 
31738 
31348 
30941 
30588 
30298 
30041 
29807 
29662 
29554 
29471 
29418 
29396 
29409 
29427 
29477 
29531 
29594 
29697 
29797 
29897 
29990 
30106 
30226 
30318 
30405 
30469 
30514 
30555 
30665 
30765 
30817 
30884 
30982 
31053 
31135 
31218 
31250 
31362 
31437 
31562 
31739 
31908 
32111 
32328 
32476 
32617 
32739 
32924 
33068 
33237 
33415 
33511 
33648 
33844 
34003 
34037 
34129 
34268 
34413 
34540 
34699 
34817 
34928 
35026 
35148 
35299 
35414 
35513 
35564 
35626 
35735 
35843 
35938 
36043 
36166 
36339 
36468 
36567 
36709 
36849 
37011 
37175 
37317 
37505 
37657 
37824 
37983 
38176 
38390 
38551 
38692 
38839 
39010 
39191 
39370 
39549 
39727 
39913 
40083 
40209 
40335 
40457 
40579 
40665 
40768 
40818 
40927 
41016 
41157 
41349 
41477 
41523 
41571 
41660 
41721 
41846 
41948 
42021 
42073 
42142 
42198 
42252 
42339 
42377 
42404 
42421 
42462 
42496 
42586 
42653 
42772 
42868 
42900 
42881 
42878 
42914 
42987 
42976 
42931 
42990 
43033 
43035 
43039 
43058 
43047 
43052 
43071 
43050 
42979 
42931 
42972 
43045 
43078 
43115 
43075 
43045 
43009 
43021 
43028 
43024 
43098 
43067 
43042 
43008 
42964 
42950 
42935 
42939 
42952 
42968 
42947 
42931 
42975 
43014 
43009 
42962 
42899 
42880 
42854 
42894 
42889 
42845 
42818 
42812 
42796 
42754 
42685 
42593 
42472 
42280 
42012 
41673 
41204 
40665 
40125 
39587 
38955 
38304 
37673 
37052 
36458 
35826 
35210 
34628 
34094 
33581 
33133 
32718 
32380 
32072 
31765 
31512 
31328 
31180 
31025 
30949 
30923 
30849 
30826 
30876 
30956 
31005 
31102 
31238 
31350 
31523 
31643 
31663 
31716 
31756 
31831 
31905 
31975 
32057 
32099 
32125 
32176 
32203 
32215 
32239 
32247 
32324 
32412 
32465 
32505 
32581 
32674 
32778 
32918 
33117 
33270 
33397 
33558 
33770 
33938 
34128 
34342 
34490 
34614 
34786 
34967 
35102 
35221 
35314 
35450 
35611 
35772 
35904 
36004 
36099 
36206 
36302 
36408 
36517 
36617 
36701 
36783 
36897 
37067 
37170 
37289 
37402 
37509 
37657 
37880 
37983 
38068 
38232 
38361 
38479 
38653 
38789 
38925 
39106 
39298 
39482 
39657 
39766 
39909 
40102 
40242 
40369 
40553 
40724 
40884 
41051 
41182 
41329 
41462 
41558 
41662 
41829 
41976 
42164 
42298 
42395 
42513 
42631 
42708 
42799 
42956 
43088 
43192 
43217 
43187 
43238 
43344 
43447 
43496 
43567 
43633 
43738 
43846 
43893 
43863 
43871 
43886 
43848 
43868 
43932 
44014 
44041 
44049 
44103 
44127 
44108 
44125 
44141 
44198 
44253 
44240 
44202 
44221 
44234 
44197 
44153 
44122 
44094 
44047 
44096 
44149 
44149 
44138 
44146 
44197 
44285 
44316 
44293 
44282 
44358 
44420 
44416 
44385 
44385 
44364 
44309 
44315 
44274 
44239 
44256 
44272 
44282 
44284 
44297 
44261 
44226 
44169 
44085 
44079 
44127 
44098 
44082 
44079 
44053 
44023 
44036 
44036 
44033 
44010 
43982 
43939 
43890 
43843 
43731 
43644 
43597 
43515 
43369 
43177 
42951 
42690 
42332 
41858 
41303 
40742 
40150 
39489 
38862 
38200 
37505 
36815 
36160 
35558 
35035 
34504 
34002 
33519 
33082 
32723 
32459 
32242 
32017 
31832 
31702 
31640 
31637 
31602 
31589 
31693 
31832 
31921 
31955 
31979 
32063 
32219 
32360 
32472 
32595 
32726 
32827 
32913 
33023 
33145 
33219 
33240 
33258 
33304 
33370 
33418 
33369 
33377 
33420 
33521 
33677 
33755 
33831 
33946 
34011 
34072 
34147 
34277 
34438 
34522 
34646 
34815 
34956 
35088 
35260 
35433 
35580 
35742 
35880 
35999 
36135 
36251 
36381 
36510 
36536 
36569 
36631 
36740 
36893 
37018 
37085 
37178 
37202 
37271 
37329 
37366 
37465 
37603 
37655 
37756 
37902 
38047 
38168 
38274 
38396 
38488 
38588 
38757 
38889 
38994 
39138 
39241 
39306 
39477 
39638 
39736 
39823 
39955 
40104 
40231 
40321 
40431 
40565 
40740 
40943 
41032 
41125 
41229 
41314 
41484 
41625 
41669 
41709 
41780 
41837 
41958 
42084 
42128 
42187 
42358 
42468 
42515 
42545 
42607 
42660 
42737 
42780 
42814 
42879 
42924 
42918 
42945 
43016 
43082 
43133 
43102 
43103 
43147 
43177 
43209 
43186 
43206 
43225 
43287 
43354 
43364 
43373 
43432 
43411 
43374 
43339 
43344 
43350 
43372 
43382 
43398 
43401 
43367 
43281 
43192 
43135 
43174 
43142 
43080 
43073 
43103 
43098 
43079 
43075 
43057 
43082 
43077 
43030 
42991 
42956 
42932 
42905 
42867 
42821 
42759 
42680 
42598 
42564 
42575 
42602 
42592 
42519 
42493 
42497 
42465 
42442 
42419 
42403 
42403 
42387 
42334 
42320 
42296 
42298 
42323 
42294 
42255 
42224 
42185 
42096 
42072 
42026 
41974 
41917 
41844 
41764 
41716 
41651 
41539 
41377 
41143 
40808 
40438 
39977 
39440 
38902 
38334 
37745 
37128 
36448 
35720 
35067 
34456 
33835 
33234 
32669 
32181 
31714 
31307 
30964 
30596 
30271 
29950 
29716 
29523 
29404 
29310 
29214 
29147 
29130 
29230 
29306 
29400 
29557 
29704 
29849 
29968 
30083 
30190 
30344 
30495 
30642 
30790 
30966 
31098 
31213 
31369 
31486 
31581 
31649 
31773 
31877 
31985 
32142 
32234 
32343 
32465 
32520 
32638 
32807 
32979 
33168 
33288 
33349 
33482 
33669 
33828 
34005 
34194 
34299 
34365 
34472 
34643 
34767 
34860 
34943 
35019 
35091 
35209 
35354 
35439 
35521 
35649 
35754 
35842 
35976 
36070 
36164 
36288 
36456 
36623 
36700 
36719 
36829 
36944 
36999 
37123 
37305 
37488 
37638 
37796 
37976 
38141 
38240 
38381 
38548 
38669 
38797 
38897 
39067 
39202 
39326 
39429 
39544 
39695 
39827 
39941 
40025 
40078 
40170 
40308 
40426 
40556 
40643 
40714 
40820 
40958 
41077 
41183 
41268 
41339 
41385 
41464 
41551 
41646 
41688 
41702 
41750 
41794 
41858 
41949 
42036 
42089 
42170 
42176 
42150 
42201 
42273 
42244 
42251 
42304 
42321 
42312 
42340 
42352 
42322 
42342 
42373 
42380 
42413 
42405 
42350 
42349 
42318 
42276 
42259 
42287 
42334 
42307 
42210 
42169 
42121 
42080 
42088 
42117 
42152 
42169 
42189 
42201 
42183 
42104 
42089 
42138 
42149 
42046 
42006 
42000 
42002 
42058 
42025 
41973 
41889 
41774 
41766 
41761 
41730 
41699 
41643 
41578 
41554 
41587 
41535 
41513 
41497 
41458 
41447 
41449 
41418 
41336 
41341 
41359 
41320 
41272 
41210 
41202 
41138 
41109 
41064 
40945 
40797 
40570 
40338 
40072 
39701 
39276 
38765 
38194 
37621 
37001 
36334 
35697 
35085 
34506 
33904 
33289 
32738 
32236 
31755 
31333 
30978 
30647 
30368 
30093 
29886 
29722 
29634 
29640 
29592 
29519 
29519 
29514 
29527 
29649 
29855 
30004 
30133 
30279 
30426 
30546 
30637 
30803 
31027 
31269 
31444 
31564 
31664 
31750 
31889 
32040 
32177 
32296 
32393 
32516 
32653 
32858 
32995 
33160 
33311 
33481 
33663 
33822 
33939 
34057 
34206 
34355 
34478 
34594 
34723 
34824 
34893 
34925 
35035 
35151 
35190 
35267 
35359 
35416 
35461 
35513 
35608 
35736 
35840 
35866 
35833 
35864 
35993 
36024 
36047 
36109 
36176 
36225 
36322 
36413 
36503 
36588 
36652 
36744 
36849 
36924 
37040 
37171 
37248 
37318 
37423 
37551 
37698 
37843 
37957 
38039 
38099 
38178 
38360 
38587 
38686 
38733 
38800 
38880 
38969 
39107 
39227 
39368 
39486 
39654 
39740 
39809 
39895 
39964 
40014 
40124 
40190 
40268 
40367 
40468 
40565 
40643 
40761 
40850 
40966 
40998 
40966 
40921 
40947 
41060 
41111 
41214 
41341 
41379 
41418 
41440 
41453 
41437 
41391 
41396 
41399 
41394 
41398 
41478 
41499 
41502 
41518 
41540 
41577 
41615 
41611 
41586 
41574 
41554 
41551 
41571 
41597 
41694 
41750 
41760 
41773 
41800 
41767 
41831 
41874 
41891 
41902 
41881 
41807 
41751 
41747 
41790 
41838 
41866 
41849 
41792 
41746 
41658 
41525 
41418 
41291 
41052 
40716 
40378 
39988 
39484 
38952 
38443 
37878 
37340 
36856 
36364 
35810 
35274 
34785 
34364 
33970 
33580 
33230 
32947 
32723 
32562 
32432 
32277 
32190 
32147 
32118 
32078 
32103 
32165 
32214 
32341 
32461 
32576 
32666 
32756 
32844 
33005 
33218 
33419 
33590 
33776 
33887 
33986 
34122 
34259 
34374 
34493 
34645 
34771 
34905 
35013 
35120 
35229 
35342 
35513 
35661 
35787 
35955 
36097 
36203 
36288 
36372 
36437 
36528 
36643 
36686 
36711 
36796 
36878 
36908 
36936 
36963 
37012 
37052 
37083 
37083 
37104 
37099 
37096 
37139 
37157 
37175 
37192 
37189 
37297 
37343 
37347 
37418 
37497 
37597 
37681 
37783 
37928 
38048 
38195 
38319 
38434 
38591 
38696 
38841 
38973 
39094 
39264 
39431 
39507 
39607 
39762 
39900 
40014 
40182 
40263 
40262 
40324 
40505 
40668 
40844 
40936 
40984 
41067 
41131 
41207 
41331 
41453 
41538 
41516 
41524 
41641 
41774 
41853 
41907 
41926 
41995 
42085 
42184 
42293 
42339 
42325 
42344 
42377 
42427 
42476 
42573 
42641 
42642 
42594 
42575 
42559 
42495 
42505 
42483 
42489 
42478 
42452 
42455 
42468 
42443 
42419 
42365 
42322 
42284 
42273 
42288 
42319 
42366 
42382 
42323 
42246 
42200 
42148 
42035 
41961 
41898 
41796 
41606 
41345 
41040 
40667 
40234 
39679 
39086 
38496 
37950 
37377 
36833 
36292 
35766 
35276 
34771 
34255 
33746 
33281 
32877 
32592 
32322 
32074 
31822 
31599 
31414 
31322 
31312 
31323 
31296 
31294 
31346 
31398 
31501 
31631 
31762 
31914 
32022 
32157 
32276 
32405 
32543 
32630 
32757 
32862 
32966 
33031 
33107 
33252 
33378 
33458 
33571 
33661 
33754 
33898 
34006 
34075 
34161 
34251 
34397 
34642 
34780 
34902 
34990 
35058 
35174 
35236 
35295 
35451 
35575 
35666 
35725 
35746 
35797 
35895 
35961 
36053 
36169 
36300 
36361 
36410 
36507 
36638 
36694 
36787 
36903 
36975 
37023 
37103 
37193 
37300 
37403 
37558 
37663 
37735 
37850 
37943 
38006 
38089 
38265 
38440 
38593 
38708 
38843 
38993 
39127 
39227 
39355 
39501 
39635 
39711 
39815 
39896 
40009 
40144 
40285 
40450 
40590 
40714 
40888 
41058 
41146 
41257 
41392 
41451 
41505 
41537 
41664 
41737 
41800 
41892 
41989 
42132 
42281 
42322 
42309 
42323 
42343 
42394 
42445 
42480 
42477 
42557 
42631 
42632 
42627 
42622 
42605 
42618 
42643 
42627 
42605 
42637 
42656 
42655 
42632 
42621 
42521 
42491 
42511 
42499 
42528 
42520 
42508 
42518 
42518 
42520 
42510 
42555 
42573 
42558 
42524 
42481 
42502 
42481 
42387 
42259 
42117 
41820 
41414 
41043 
40545 
40003 
39511 
39001 
38372 
37777 
37145 
36481 
35846 
35269 
34774 
34283 
33844 
33418 
33018 
32695 
32345 
32063 
31817 
31617 
31486 
31417 
31314 
31262 
31258 
31237 
31262 
31301 
31396 
31498 
31644 
31767 
31839 
31945 
32077 
32142 
32281 
32391 
32445 
32533 
32641 
32717 
32801 
32889 
32927 
32908 
32886 
32913 
32997 
33101 
33199 
33311 
33458 
33558 
33634 
33790 
33984 
34218 
34400 
34610 
34821 
34985 
35154 
35322 
35431 
35584 
35743 
35905 
36136 
36295 
36423 
36590 
36745 
36860 
36962 
37071 
37156 
37253 
37362 
37455 
37565 
37677 
37744 
37849 
37975 
38058 
38135 
38239 
38371 
38438 
38558 
38724 
38859 
39001 
39126 
39328 
39516 
39632 
39725 
39841 
39967 
40119 
40203 
40388 
40511 
40623 
40774 
40868 
41005 
41173 
41301 
41414 
41493 
41574 
41688 
41840 
42007 
42077 
42166 
42264 
42412 
42481 
42486 
42581 
42632 
42655 
42734 
42792 
42880 
42994 
43035 
43091 
43216 
43295 
43315 
43358 
43445 
43497 
43480 
43523 
43590 
43654 
43694 
43680 
43645 
43679 
43691 
43715 
43662 
43644 
43690 
43682 
43690 
43725 
43748 
43744 
43684 
43660 
43717 
43716 
43723 
43765 
43747 
43677 
43639 
43675 
43694 
43701 
43645 
43628 
43654 
43694 
43731 
43730 
43701 
43616 
43570 
43585 
43631 
43616 
43570 
43531 
43411 
43258 
43128 
42973 
42741 
42431 
42023 
41522 
40976 
40425 
39791 
39081 
38367 
37695 
37064 
36502 
35965 
35408 
34906 
34447 
34032 
33597 
33213 
32860 
32558 
32359 
32223 
32056 
31897 
31854 
31834 
31858 
31912 
31937 
31963 
31972 
32013 
32075 
32162 
32210 
32252 
32337 
32406 
32484 
32567 
32629 
32700 
32783 
32854 
32899 
32903 
32894 
32914 
32977 
33014 
33093 
33204 
33289 
33398 
33561 
33704 
33778 
33934 
34113 
34283 
34409 
34595 
34797 
35002 
35185 
35363 
35526 
35644 
35815 
35997 
36217 
36380 
36523 
36702 
36891 
37043 
37200 
37385 
37536 
37594 
37670 
37784 
37906 
38084 
38182 
38296 
38421 
38521 
38657 
38763 
38800 
38888 
39046 
39173 
39355 
39544 
39684 
39819 
39960 
40154 
40292 
40399 
40511 
40619 
40793 
40950 
41051 
41159 
41309 
41455 
41670 
41858 
41960 
42022 
42103 
42209 
42359 
42550 
42645 
42684 
42764 
42807 
42899 
43027 
43142 
43171 
43197 
43283 
43341 
43400 
43457 
43589 
43668 
43728 
43829 
43942 
43988 
43984 
44016 
44083 
44160 
44214 
44229 
44139 
44062 
44061 
44077 
44059 
44046 
44068 
44041 
43992 
44006 
44082 
44162 
44136 
44124 
44107 
44051 
44040 
44001 
44023 
44038 
43959 
43929 
43929 
43956 
43939 
43953 
43969 
43965 
43976 
43972 
43973 
43925 
43851 
43793 
43804 
43822 
43790 
43746 
43757 
43717 
43681 
43713 
43648 
43572 
43495 
43446 
43446 
43410 
43332 
43259 
43233 
43236 
43242 
43214 
43106 
43034 
43003 
42975 
42937 
42853 
42782 
42694 
42628 
42661 
42685 
42585 
42541 
42490 
42446 
42341 
42220 
42130 
42061 
41976 
41940 
41905 
41879 
41858 
41814 
41739 
41729 
41731 
41679 
41587 
41581 
41579 
41563 
41524 
41430 
41334 
41254 
41145 
41048 
40816 
40466 
40054 
39579 
39083 
38556 
37977 
37325 
36671 
36008 
35326 
34641 
33965 
33359 
32742 
32115 
31478 
30928 
30431 
29948 
29574 
29254 
29040 
28884 
28733 
28531 
28394 
28351 
28361 
28411 
28479 
28544 
28594 
28682 
28801 
28864 
28920 
29036 
29136 
29223 
29337 
29424 
29485 
29597 
29708 
29795 
29857 
29863 
29927 
30010 
30061 
30102 
30170 
30210 
30272 
30331 
30419 
30522 
30644 
30763 
30928 
31083 
31253 
31478 
31648 
31849 
32056 
32283 
32487 
32670 
32832 
33021 
33185 
33384 
33513 
33644 
33831 
33979 
34062 
34162 
34257 
34305 
34429 
34576 
34695 
34820 
34931 
35003 
35173 
35350 
35432 
35491 
35589 
35759 
35877 
35989 
36133 
36318 
36442 
36570 
36757 
36937 
37075 
37200 
37350 
37585 
37861 
38034 
38156 
38325 
38567 
38795 
38972 
39096 
39181 
39317 
39524 
39703 
39843 
39961 
40068 
40199 
40339 
40422 
40523 
40611 
40741 
40913 
41057 
41147 
41242 
41349 
41413 
41482 
41573 
41650 
41704 
41766 
41777 
41826 
41906 
41983 
42064 
42131 
42157 
42165 
42147 
42144 
42181 
42218 
42233 
42246 
42330 
42416 
42480 
42521 
42615 
42725 
42783 
42752 
42752 
42819 
42925 
42970 
42966 
42961 
42938 
43001 
43081 
43152 
43241 
43278 
43298 
43343 
43382 
43370 
43334 
43282 
43275 
43407 
43493 
43482 
43442 
43446 
43453 
43508 
43582 
43612 
43593 
43521 
43520 
43537 
43502 
43508 
43555 
43640 
43623 
43617 
43585 
43584 
43639 
43700 
43746 
43796 
43825 
43814 
43774 
43720 
43689 
43689 
43694 
43663 
43667 
43642 
43536 
43420 
43250 
42967 
42621 
42222 
41715 
41200 
40736 
40151 
39478 
38803 
38163 
37493 
36831 
36292 
35796 
35308 
34812 
34336 
33932 
33553 
33194 
32892 
32669 
32482 
32356 
32280 
32235 
32242 
32250 
32253 
32258 
32331 
32424 
32469 
32573 
32659 
32731 
32812 
32863 
32918 
32989 
33115 
33224 
33300 
33386 
33440 
33467 
33454 
33447 
33479 
33521 
33590 
33658 
33698 
33745 
33904 
34064 
34263 
34417 
34522 
34702 
34972 
35175 
35356 
35498 
35654 
35814 
35962 
36111 
36279 
36461 
36615 
36742 
36845 
37017 
37132 
37262 
37409 
37497 
37558 
37661 
37727 
37786 
37900 
37973 
38029 
38097 
38133 
38178 
38231 
38341 
38423 
38501 
38644 
38760 
38860 
38981 
39128 
39267 
39372 
39489 
39600 
39712 
39877 
40026 
40124 
40239 
40415 
40574 
40685 
40785 
40932 
41139 
41313 
41450 
41584 
41733 
41894 
42007 
42099 
42217 
42362 
42546 
42639 
42673 
42751 
42885 
43064 
43201 
43264 
43336 
43413 
43453 
43486 
43576 
43709 
43828 
43975 
44102 
44127 
44114 
44122 
44127 
44122 
44144 
44217 
44236 
44227 
44248 
44252 
44263 
44279 
44320 
44356 
44372 
44414 
44463 
44476 
44446 
44431 
44416 
44418 
44431 
44460 
44501 
44517 
44486 
44475 
44395 
44425 
44404 
44390 
44390 
44330 
44286 
44274 
44313 
44309 
44311 
44331 
44282 
44248 
44306 
44318 
44323 
44255 
44210 
44243 
44306 
44297 
44197 
44141 
44112 
44027 
43918 
43841 
43776 
43724 
43713 
43717 
43698 
43744 
43764 
43794 
43816 
43784 
43700 
43681 
43657 
43620 
43593 
43548 
43471 
43315 
43194 
43025 
42852 
42599 
42266 
41888 
41431 
40881 
40272 
39654 
39060 
38412 
37677 
36936 
36273 
35616 
34965 
34392 
33830 
33286 
32829 
32501 
32155 
31763 
31437 
31147 
30921 
30777 
30629 
30519 
30463 
30443 
30453 
30497 
30502 
30553 
30586 
30594 
30628 
30704 
30809 
30912 
30995 
31081 
31142 
31214 
31321 
31379 
31418 
31439 
31452 
31455 
31454 
31438 
31481 
31538 
31639 
31715 
31776 
31857 
31937 
32079 
32227 
32389 
32561 
32756 
32973 
33192 
33401 
33622 
33894 
34128 
34344 
34541 
34709 
34911 
35089 
35255 
35442 
35565 
35738 
35899 
36023 
36165 
36255 
36404 
36574 
36693 
36830 
36925 
37035 
37159 
37329 
37550 
37727 
37868 
37966 
38072 
38210 
38365 
38497 
38650 
38824 
38959 
39119 
39314 
39435 
39593 
39738 
39878 
40077 
40261 
40444 
40667 
40836 
40974 
41111 
41236 
41373 
41525 
41716 
41844 
41967 
42059 
42143 
42250 
42344 
42476 
42650 
42803 
42945 
43035 
43069 
43055 
43083 
43127 
43173 
43228 
43337 
43442 
43489 
43532 
43570 
43625 
43644 
43678 
43702 
43705 
43780 
43852 
43952 
43994 
43985 
43993 
44001 
44040 
44049 
44049 
44085 
44172 
44255 
44323 
44331 
44303 
44283 
44263 
44205 
44199 
44245 
44275 
44255 
44184 
44167 
44145 
44102 
44078 
44120 
44114 
44103 
44165 
44163 
44123 
44084 
44120 
44136 
44164 
44204 
44141 
44077 
44055 
44052 
44046 
43967 
43876 
43821 
43783 
43816 
43846 
43825 
43757 
43721 
43682 
43688 
43675 
43639 
43631 
43672 
43667 
43578 
43545 
43545 
43483 
43405 
43388 
43401 
43379 
43304 
43235 
43199 
43224 
43176 
43103 
43030 
42993 
42943 
42852 
42790 
42692 
42597 
42547 
42462 
42368 
42275 
42207 
42055 
41766 
41494 
41172 
40749 
40345 
39845 
39252 
38571 
37874 
37165 
36464 
35800 
35177 
34572 
33995 
33430 
32870 
32333 
31844 
31400 
31003 
30663 
30438 
30243 
30069 
29921 
29810 
29766 
29713 
29722 
29721 
29724 
29710 
29683 
29736 
29816 
29877 
29953 
30025 
30103 
30169 
30240 
30267 
30331 
30372 
30402 
30461 
30565 
30592 
30581 
30635 
30685 
30673 
30674 
30650 
30698 
30816 
30959 
31103 
31256 
31423 
31601 
31789 
31932 
31993 
32113 
32375 
32642 
32873 
33094 
33245 
33418 
33614 
33746 
33853 
34021 
34199 
34346 
34419 
34561 
34736 
34860 
35026 
35165 
35297 
35426 
35489 
35617 
35689 
35736 
35849 
35975 
36093 
36271 
36396 
36542 
36732 
36912 
37073 
37222 
37335 
37484 
37666 
37822 
37950 
38101 
38228 
38339 
38552 
38702 
38881 
39113 
39311 
39468 
39591 
39664 
39765 
39975 
40220 
40416 
40595 
40771 
40909 
41079 
41220 
41337 
41426 
41527 
41636 
41779 
41860 
41953 
42063 
42124 
42225 
42314 
42415 
42486 
42515 
42566 
42651 
42659 
42653 
42727 
42844 
42902 
42975 
43070 
43106 
43158 
43208 
43248 
43311 
43354 
43404 
43432 
43451 
43495 
43521 
43535 
43569 
43605 
43604 
43569 
43523 
43582 
43660 
43694 
43708 
43755 
43761 
43778 
43778 
43827 
43919 
43948 
43897 
43835 
43780 
43805 
43865 
43924 
43927 
43918 
43974 
43946 
43928 
43921 
43927 
43951 
43980 
43994 
44033 
44078 
44128 
44097 
44052 
44018 
43991 
43945 
43904 
43884 
43875 
43766 
43730 
43765 
43742 
43684 
43652 
43591 
43562 
43533 
43447 
43462 
43477 
43468 
43420 
43354 
43294 
43304 
43343 
43340 
43320 
43269 
43191 
43037 
42914 
42761 
42481 
42216 
41900 
41493 
41052 
40547 
40012 
39425 
38818 
38191 
37503 
36892 
36275 
35721 
35204 
34712 
34224 
33739 
33329 
32974 
32636 
32309 
32028 
31786 
31647 
31567 
31504 
31484 
31515 
31535 
31597 
31696 
31755 
31828 
31872 
31938 
32052 
32152 
32282 
32372 
32483 
32605 
32722 
32826 
32894 
32971 
33021 
33136 
33244 
33312 
33360 
33415 
33448 
33518 
33572 
33655 
33775 
33949 
34104 
34209 
34339 
34452 
34625 
34793 
35003 
35169 
35280 
35380 
35532 
35680 
35769 
35845 
35974 
36041 
36115 
36197 
36261 
36319 
36405 
36487 
36571 
36691 
36770 
36831 
36886 
37047 
37157 
37260 
37333 
37393 
37478 
37586 
37663 
37789 
37903 
37980 
38093 
38204 
38314 
38450 
38600 
38752 
38924 
39136 
39266 
39391 
39538 
39668 
39785 
39919 
40033 
40127 
40215 
40334 
40503 
40646 
40765 
40862 
41022 
41151 
41221 
41320 
41399 
41467 
41543 
41612 
41734 
41844 
41868 
41934 
41981 
42018 
42159 
42280 
42332 
42358 
42373 
42439 
42523 
42533 
42571 
42652 
42707 
42695 
42726 
42849 
42948 
43009 
43043 
43019 
43039 
43107 
43117 
43115 
43145 
43219 
43246 
43262 
43303 
43270 
43243 
43307 
43407 
43466 
43435 
43470 
43546 
43531 
43520 
43506 
43558 
43633 
43599 
43527 
43509 
43492 
43410 
43370 
43333 
43270 
43204 
43188 
43196 
43203 
43214 
43220 
43225 
43245 
43291 
43318 
43285 
43197 
43139 
43163 
43136 
43107 
43130 
43065 
43093 
43156 
43141 
43139 
43098 
43100 
43132 
43157 
43150 
43109 
43029 
42918 
42664 
42383 
42054 
41682 
41283 
40835 
40277 
39694 
39083 
38427 
37823 
37201 
36525 
35903 
35329 
34719 
34171 
33670 
33171 
32733 
32367 
31991 
31678 
31450 
31221 
30996 
30757 
30568 
30452 
30364 
30266 
30201 
30149 
30187 
30258 
30314 
30320 
30355 
30448 
30564 
30631 
30731 
30799 
30862 
30927 
31034 
31096 
31158 
31240 
31323 
31405 
31516 
31546 
31581 
31654 
31748 
31834 
31934 
32034 
32098 
32249 
32432 
32574 
32667 
32754 
32880 
33064 
33212 
33338 
33510 
33716 
33904 
34124 
34268 
34456 
34635 
34743 
34862 
34999 
35126 
35265 
35355 
35516 
35671 
35817 
35939 
36078 
36182 
36333 
36515 
36716 
36852 
36941 
37084 
37257 
37459 
37639 
37770 
37830 
37945 
38115 
38344 
38524 
38658 
38825 
39005 
39181 
39361 
39500 
39597 
39779 
39963 
40103 
40257 
40412 
40589 
40791 
40966 
41100 
41207 
41359 
41528 
41725 
41916 
42022 
42081 
42177 
42259 
42301 
42377 
42493 
42627 
42761 
42891 
42994 
43081 
43160 
43212 
43269 
43334 
43377 
43468 
43636 
43699 
43734 
43804 
43840 
43912 
43934 
43987 
44029 
44100 
44173 
44191 
44168 
44155 
44155 
44164 
44199 
44206 
44197 
44224 
44279 
44247 
44204 
44176 
44127 
44098 
44121 
44123 
44106 
44085 
44042 
44001 
43944 
43913 
43953 
43997 
44048 
44066 
43948 
43880 
43848 
43819 
43804 
43796 
43796 
43742 
43733 
43673 
43666 
43658 
43652 
43638 
43649 
43665 
43711 
43690 
43659 
43616 
43544 
43511 
43492 
43506 
43533 
43570 
43633 
43657 
43664 
43682 
43670 
43637 
43664 
43731 
43767 
43726 
43689 
43694 
43720 
43736 
43671 
43633 
43576 
43588 
43550 
43583 
43626 
43557 
43393 
43190 
42909 
42514 
42023 
41436 
40725 
40018 
39328 
38636 
37866 
37124 
36406 
35634 
34928 
34315 
33718 
33108 
32588 
32098 
31638 
31267 
30944 
30613 
30352 
30236 
30134 
30075 
30014 
29969 
29943 
29925 
29999 
30053 
30093 
30167 
30186 
30224 
30319 
30450 
30618 
30777 
30926 
31014 
31103 
31232 
31309 
31396 
31531 
31640 
31739 
31827 
31890 
31990 
32099 
32218 
32322 
32466 
32585 
32723 
32914 
33156 
33420 
33602 
33704 
33809 
34024 
34248 
34433 
34549 
34647 
34714 
34806 
34903 
35032 
35135 
35235 
35369 
35511 
35627 
35693 
35776 
35830 
35924 
36034 
36151 
36262 
36398 
36518 
36624 
36760 
36936 
37072 
37198 
37356 
37485 
37625 
37767 
37939 
38129 
38227 
38360 
38511 
38703 
38900 
39027 
39185 
39383 
39552 
39651 
39776 
39924 
40103 
40308 
40467 
40612 
40768 
40964 
41118 
41157 
41243 
41362 
41521 
41667 
41778 
41922 
42037 
42166 
42312 
42399 
42482 
42564 
42648 
42723 
42779 
42872 
42993 
43044 
43115 
43143 
43174 
43210 
43236 
43187 
43149 
43215 
43279 
43352 
43391 
43429 
43405 
43433 
43504 
43508 
43522 
43634 
43704 
43738 
43774 
43810 
43847 
43885 
43906 
43948 
43961 
43944 
43943 
43926 
43962 
44035 
44040 
43986 
43907 
43925 
43942 
43927 
43916 
43882 
43853 
43863 
43919 
43948 
43879 
43827 
43810 
43790 
43804 
43812 
43782 
43796 
43832 
43801 
43739 
43734 
43673 
43641 
43600 
43526 
43431 
43418 
43431 
43431 
43397 
43347 
43323 
43310 
43251 
43207 
43175 
43119 
43064 
42999 
42955 
42948 
42977 
42955 
42909 
42893 
42904 
42862 
42771 
42662 
42604 
42591 
42583 
42515 
42493 
42507 
42496 
42492 
42485 
42467 
42440 
42396 
42345 
42286 
42234 
42233 
42229 
42145 
42100 
42103 
42046 
41940 
41807 
41604 
41295 
40949 
40442 
39876 
39249 
38568 
37887 
37163 
36457 
35743 
34970 
34290 
33695 
33166 
32672 
32209 
31737 
31321 
30939 
30590 
30349 
30152 
29972 
29823 
29638 
29504 
29412 
29379 
29417 
29451 
29398 
29408 
29456 
29539 
29591 
29627 
29774 
29962 
30153 
30279 
30369 
30506 
30629 
30722 
30872 
31044 
31177 
31314 
31439 
31631 
31853 
32055 
32219 
32401 
32572 
32785 
33051 
33213 
33391 
33675 
33904 
34147 
34329 
34518 
34707 
34919 
35051 
35168 
35343 
35475 
35615 
35811 
35960 
36008 
36084 
36171 
36280 
36396 
36498 
36597 
36745 
36847 
36919 
37071 
37212 
37328 
37400 
37459 
37592 
37735 
37900 
38013 
38122 
38248 
38348 
38479 
38613 
38806 
38956 
39134 
39297 
39373 
39456 
39616 
39782 
39923 
40035 
40147 
40257 
40339 
40409 
40560 
40716 
40828 
40995 
41153 
41286 
41424 
41534 
41612 
41736 
41897 
42047 
42145 
42278 
42377 
42448 
42492 
42552 
42678 
42777 
42866 
42935 
42999 
43073 
43185 
43258 
43315 
43333 
43328 
43356 
43366 
43349 
43417 
43568 
43611 
43562 
43533 
43506 
43524 
43580 
43615 
43629 
43615 
43613 
43640 
43681 
43680 
43638 
43598 
43645 
43694 
43711 
43693 
43675 
43690 
43732 
43700 
43645 
43636 
43597 
43605 
43633 
43662 
43636 
43603 
43587 
43557 
43519 
43480 
43436 
43413 
43323 
43228 
43133 
43028 
42979 
42926 
42852 
42699 
42544 
42418 
42270 
42148 
42020 
41879 
41754 
41647 
41500 
41291 
41064 
40900 
40792 
40627 
40474 
40302 
40135 
39982 
39877 
39790 
39656 
39470 
39273 
39138 
39010 
38892 
38777 
38649 
38557 
38466 
38367 
38283 
38159 
38006 
37874 
37696 
37452 
37249 
37037 
36844 
36604 
36329 
36076 
35854 
35657 
35445 
35267 
35111 
34920 
34713 
34541 
34419 
34346 
34269 
34123 
34019 
33942 
33873 
33787 
33730 
33643 
33553 
33527 
33517 
33477 
33468 
33521 
33556 
33629 
33686 
33749 
33791 
33827 
33857 
33916 
34026 
34110 
34202 
34291 
34372 
34479 
34635 
34768 
34888 
35026 
35131 
35257 
35415 
35588 
35756 
35885 
36006 
36220 
36389 
36501 
36662 
36818 
36989 
37162 
37301 
37423 
37522 
37592 
37670 
37795 
37877 
37878 
37831 
37849 
37856 
37860 
37836 
37794 
37807 
37783 
37718 
37645 
37570 
37503 
37469 
37420 
37278 
37200 
37190 
37106 
37002 
36870 
36829 
36832 
36784 
36787 
36765 
36642 
36527 
36448 
36418 
36313 
36216 
36142 
36056 
35957 
35873 
35830 
35763 
35731 
35745 
35797 
35792 
35746 
35733 
35708 
35707 
35683 
35664 
35672 
35692 
35753 
35812 
35844 
35920 
35996 
36070 
36151 
36230 
36267 
36331 
36426 
36502 
36578 
36673 
36718 
36775 
36840 
36960 
37048 
37106 
37193 
37272 
37377 
37487 
37629 
37777 
37862 
37891 
37955 
38066 
38162 
38300 
38427 
38491 
38564 
38679 
38777 
38768 
38836 
38906 
38978 
39082 
39188 
39274 
39397 
39501 
39616 
39711 
39775 
39804 
39853 
39921 
39981 
40040 
40166 
40305 
40403 
40452 
40442 
40467 
40494 
40525 
40642 
40704 
40794 
40881 
40957 
40949 
40968 
41059 
41155 
41262 
41353 
41395 
41427 
41506 
41503 
41509 
41515 
41539 
41574 
41633 
41678 
41741 
41793 
41845 
41956 
41983 
41967 
41993 
41951 
41885 
41863 
41802 
41721 
41666 
41588 
41523 
41415 
41269 
41209 
41152 
41042 
40899 
40725 
40593 
40486 
40351 
40168 
39948 
39841 
39748 
39660 
39596 
39530 
39437 
39339 
39201 
39052 
38927 
38784 
38696 
38595 
38502 
38387 
38337 
38321 
38318 
38321 
38310 
38291 
38279 
38261 
38242 
38253 
38298 
38291 
38320 
38405 
38424 
38444 
38504 
38613 
38656 
38657 
38662 
38733 
38823 
38945 
39023 
39052 
39040 
39076 
39131 
39162 
39218 
39251 
39292 
39354 
39449 
39552 
39584 
39571 
39605 
39667 
39742 
39788 
39790 
39815 
39839 
39941 
40085 
40168 
40188 
40232 
40304 
40414 
40557 
40723 
40838 
40934 
40945 
40994 
41166 
41248 
41327 
41425 
41551 
41648 
41705 
41754 
41843 
41902 
41995 
42164 
42330 
42424 
42523 
42611 
42713 
42829 
42948 
43075 
43184 
43246 
43326 
43402 
43473 
43528 
43581 
43613 
43705 
43792 
43858 
43867 
43864 
43882 
43908 
43964 
44036 
44115 
44152 
44151 
44143 
44153 
44158 
44193 
44196 
44252 
44297 
44382 
44497 
44561 
44535 
44526 
44553 
44578 
44542 
44592 
44602 
44620 
44660 
44683 
44671 
44649 
44655 
44700 
44724 
44714 
44682 
44710 
44807 
44809 
44819 
44820 
44819 
44848 
44886 
44894 
44866 
44822 
44845 
44799 
44746 
44750 
44759 
44768 
44779 
44798 
44807 
44817 
44807 
44781 
44783 
44750 
44716 
44692 
44680 
44693 
44686 
44698 
44710 
44702 
44677 
44687 
44689 
44679 
44629 
44563 
44482 
44458 
44451 
44484 
44466 
44423 
44420 
44353 
44341 
44437 
44465 
44462 
44435 
44353 
44274 
44258 
44216 
44162 
44124 
44079 
44037 
44039 
44012 
44037 
44027 
43968 
43980 
43939 
43878 
43862 
43812 
43776 
43805 
43800 
43779 
43750 
43674 
43625 
43606 
43630 
43628 
43590 
43602 
43634 
43599 
43555 
43501 
43491 
43411 
43309 
43262 
43184 
43161 
43251 
43310 
43277 
43198 
43140 
43177 
43144 
43102 
43106 
43091 
43069 
43047 
43034 
43018 
43022 
43053 
43058 
43037 
42976 
42851 
42819 
42886 
42906 
42917 
42915 
42849 
42782 
42730 
42679 
42650 
42577 
42538 
42517 
42505 
42522 
42547 
42526 
42438 
42366 
42282 
42271 
42221 
42131 
42106 
42114 
42113 
42097 
42102 
42037 
42029 
42041 
42001 
41959 
42012 
42056 
41996 
41957 
41891 
41844 
41769 
41727 
41678 
41652 
41624 
41587 
41536 
41528 
41468 
41440 
41448 
41468 
41485 
41446 
41374 
41349 
41345 
41339 
41322 
41300 
41297 
41269 
41234 
41198 
41134 
41104 
41131 
41130 
41114 
41052 
40999 
40953 
40936 
40928 
40911 
40921 
40880 
40893 
40871 
40874 
40839 
40807 
40765 
40733 
40682 
40689 
40713 
40711 
40758 
40771 
40755 
40750 
40725 
40657 
40633 
40594 
40631 
40710 
40754 
40750 
40723 
40727 
40691 
40653 
40612 
40581 
40622 
40701 
40700 
40643 
40588 
40584 
40555 
40448 
40386 
40374 
40311 
40277 
40285 
40325 
40295 
40280 
40296 
40259 
40291 
40284 
40196 
40164 
40174 
40188 
40163 
40095 
40061 
40069 
40098 
40135 
40099 
40088 
40090 
40054 
39976 
39927 
39929 
39926 
39929 
39947 
39961 
39962 
39967 
40002 
39990 
39943 
39935 
39908 
39892 
39904 
39893 
39839 
39777 
39743 
39726 
39745 
39762 
39742 
39727 
39698 
39689 
39656 
39647 
39655 
39665 
39623 
39572 
39538 
39513 
39526 
39534 
39534 
39550 
39581 
39562 
39557 
39548 
39547 
39590 
39596 
39564 
39597 
39574 
39541 
39515 
39508 
39530 
39586 
39599 
39594 
39524 
39475 
39489 
39454 
39423 
39444 
39490 
39461 
39434 
39400 
39383 
39337 
39353 
39381 
39367 
39358 
39365 
39394 
39409 
39398 
39359 
39341 
39306 
39323 
39387 
39422 
39417 
39411 
39385 
39372 
39341 
39355 
39360 
39338 
39324 
39289 
39302 
39300 
39305 
39262 
39215 
39187 
39203 
39272 
39255 
39215 
39219 
39244 
39293 
39290 
39217 
39187 
39255 
39236 
39244 
39295 
39279 
39262 
39231 
39280 
39353 
39377 
39370 
39405 
39456 
39418 
39363 
39356 
39319 
39291 
39282 
39258 
39267 
39275 
39286 
39271 
39271 
39224 
39201 
39223 
39218 
39209 
39195 
39246 
39264 
39141 
39046 
39050 
39076 
39129 
39158 
39133 
39063 
39064 
39061 
39009 
38964 
38927 
38948 
38970 
38998 
38981 
38961 
38929 
38860 
38809 
38771 
38754 
38741 
38734 
38767 
38756 
38792 
38837 
38846 
38820 
38792 
38772 
38783 
38799 
38803 
38738 
38771 
38750 
38730 
38734 
38764 
38807 
38841 
38818 
38839 
38863 
38863 
38805 
38773 
38745 
38759 
38804 
38788 
38751 
38740 
38751 
38791 
38812 
38804 
38782 
38798 
38807 
38805 
38766 
38734 
38712 
38692 
38691 
38701 
38735 
38751 
38717 
38806 
38838 
38854 
38835 
38861 
38847 
38787 
38748 
38757 
38780 
38779 
38772 
38737 
38735 
38767 
38807 
38782 
38760 
38775 
38806 
38780 
38694 
38682 
38690 
38648 
38626 
38684 
38714 
38725 
38734 
38740 
38775 
38766 
38682 
38681 
38701 
38720 
38761 
38749 
38746 
38764 
38743 
38690 
38610 
38574 
38616 
38621 
38603 
38624 
38668 
38661 
38645 
38591 
38631 
38615 
38591 
38638 
38708 
38767 
38760 
38685 
38632 
38602 
38522 
38495 
38470 
38434 
38416 
38433 
38428 
38394 
38373 
38364 
38349 
38330 
38284 
38264 
38289 
38355 
38363 
38359 
38346 
38354 
38341 
38302 
38211 
38127 
38120 
38117 
38155 
38141 
38106 
38106 
38085 
38061 
38028 
37967 
37919 
37941 
37969 
37996 
37982 
37964 
37903 
37845 
37833 
37859 
37918 
37919 
37914 
37939 
37948 
37904 
37919 
37963 
37937 
37895 
37890 
37902 
37860 
37822 
37831 
37886 
37920 
37874 
37847 
37846 
37891 
37927 
37912 
37886 
37898 
37900 
37906 
37908 
37867 
37882 
37899 
37918 
37930 
37939 
37933 
37970 
38027 
38012 
38011 
38025 
37983 
37903 
37883 
37840 
37813 
37791 
37807 
37833 
37854 
37843 
37818 
37831 
37865 
37888 
37872 
37837 
37843 
37898 
37927 
37946 
37939 
37866 
37879 
37925 
37938 
37925 
37903 
37921 
37996 
38026 
37985 
37928 
37933 
37929 
37957 
37915 
37881 
37926 
37984 
38016 
37986 
37968 
37913 
37967 
37982 
37937 
37914 
37920 
37976 
38011 
38022 
37981 
37991 
38015 
38026 
38015 
37969 
37963 
37972 
37968 
37920 
37857 
37842 
37869 
37848 
37794 
37760 
37782 
37876 
37889 
37867 
37841 
37824 
37805 
37742 
37666 
37621 
37645 
37687 
37651 
37606 
37637 
37690 
37687 
37638 
37648 
37712 
37771 
37768 
37738 
37721 
37678 
37677 
37662 
37702 
37712 
37645 
37591 
37635 
37658 
37665 
37711 
37742 
37743 
37713 
37712 
37711 
37701 
37724 
37765 
37784 
37748 
37693 
37660 
37678 
37708 
37704 
37721 
37747 
37731 
37743 
37760 
37734 
37713 
37744 
37797 
37835 
37858 
37828 
37848 
37872 
37839 
37829 
37818 
37787 
37788 
37815 
37835 
37968 
37998 
37925 
37890 
37848 
37796 
37780 
37811 
37821 
37779 
37798 
37805 
37817 
37786 
37762 
37720 
37721 
37803 
37832 
37776 
37719 
37755 
37777 
37763 
37723 
37749 
37764 
37771 
37786 
37792 
37788 
37815 
37821 
37759 
37734 
37747 
37754 
37792 
37810 
37804 
37793 
37759 
37757 
37752 
37755 
37761 
37747 
37813 
37832 
37845 
37824 
37773 
37678 
37653 
37678 
37679 
37648 
37663 
37659 
37608 
37609 
37623 
37579 
37503 
37455 
37477 
37498 
37475 
37456 
37440 
37468 
37473 
37515 
37502 
37470 
37514 
37529 
37501 
37462 
37419 
37466 
37429 
37332 
37303 
37274 
37245 
37307 
37420 
37440 
37406 
37376 
37334 
37381 
37442 
37460 
37462 
37441 
37508 
37504 
37441 
37421 
37457 
37459 
37398 
37373 
37343 
37333 
37348 
37332 
37358 
37390 
37386 
37341 
37319 
37297 
37265 
37317 
37379 
37411 
37386 
37374 
37341 
37333 
37326 
37343 
37390 
37390 
37349 
37341 
37372 
37415 
37428 
37411 
37414 
37387 
37362 
37337 
37350 
37350 
37344 
37389 
37401 
37347 
37303 
37321 
37384 
37368 
37312 
37282 
37274 
37275 
37304 
37285 
37235 
37170 
37158 
37214 
37251 
37263 
37300 
37284 
37260 
37241 
37203 
37201 
37250 
37256 
37220 
37218 
37272 
37281 
37221 
37179 
37178 
37198 
37233 
37231 
37209 
37191 
37134 
37139 
37164 
37124 
37099 
37143 
37129 
37155 
37146 
37105 
37097 
37110 
37116 
37161 
37222 
37228 
37223 
37208 
37174 
37176 
37204 
37132 
37039 
37011 
37043 
37119 
37192 
37180 
37179 
37157 
37088 
37049 
37113 
37184 
37208 
37168 
37100 
37091 
37053 
37076 
37097 
37087 
37087 
37086 
37093 
37089 
37061 
37105 
37162 
37153 
37141 
37121 
37092 
37120 
37120 
37049 
37030 
37072 
37108 
37129 
37119 
37141 
37162 
37140 
37141 
37156 
37129 
37065 
36977 
36929 
36963 
36953 
36969 
37007 
36985 
36977 
36962 
36976 
37003 
36920 
36851 
36847 
36861 
36917 
36946 
36951 
36899 
36878 
36892 
36920 
36933 
36986 
37041 
36993 
36979 
36921 
36839 
36825 
36806 
36785 
36738 
36716 
36720 
36757 
36814 
36791 
36734 
36742 
36709 
36645 
36649 
36634 
36631 
36677 
36719 
36706 
36712 
36717 
36675 
36659 
36642 
36611 
36641 
36689 
36649 
36614 
36622 
36662 
36684 
36669 
36721 
36708 
36663 
36670 
36634 
36588 
36574 
36545 
36531 
36504 
36513 
36486 
36495 
36538 
36614 
36598 
36482 
36476 
36512 
36485 
36484 
36495 
36490 
36543 
36577 
36552 
36504 
36443 
36399 
36367 
36333 
36324 
36339 
36367 
36419 
36425 
36420 
36415 
36433 
36446 
36458 
36455 
36474 
36494 
36468 
36476 
36465 
36455 
36432 
36474 
36526 
36575 
36575 
36536 
36495 
36448 
36497 
36525 
36525 
36527 
36555 
36593 
36621 
36674 
36675 
36647 
36658 
36623 
36584 
36569 
36573 
36555 
36536 
36537 
36501 
36472 
36525 
36553 
36571 
36531 
36474 
36468 
36479 
36481 
36424 
36407 
36437 
36468 
36510 
36476 
36423 
36422 
36412 
36446 
36444 
36406 
36391 
36465 
36487 
36438 
36507 
36536 
36519 
36520 
36500 
36465 
36470 
36526 
36515 
36523 
36538 
36537 
36518 
36480 
36413 
36479 
36558 
36556 
36501 
36475 
36507 
36456 
36450 
36486 
36573 
36566 
36515 
36495 
36484 
36482 
36462 
36505 
36512 
36540 
36591 
36614 
36681 
36728 
36696 
36685 
36645 
36658 
36710 
36666 
36646 
36666 
36663 
36655 
36638 
36626 
36651 
36650 
36662 
36697 
36723 
36747 
36697 
36665 
36736 
36813 
36843 
36854 
36840 
36845 
36844 
36823 
36812 
36816 
36852 
36832 
36847 
36849 
36801 
36754 
36761 
36758 
36756 
36767 
36784 
36756 
36748 
36770 
36835 
36849 
36841 
36812 
36778 
36830 
36861 
36876 
36951 
36988 
36983 
36921 
36872 
36898 
36963 
37039 
37068 
37056 
37073 
37076 
36998 
36956 
36927 
36908 
36942 
37000 
37012 
37019 
37036 
37063 
37069 
37059 
37025 
37049 
37121 
37132 
37131 
37109 
37082 
37070 
37043 
37019 
37036 
37102 
37200 
37178 
37067 
37031 
37046 
37066 
37051 
37010 
37012 
37011 
36971 
36962 
36954 
36942 
36966 
36967 
36959 
36939 
36858 
36824 
36791 
36826 
36902 
36901 
36909 
36950 
36954 
36941 
36903 
36917 
37020 
37059 
36961 
36953 
36937 
36888 
36934 
36987 
36981 
36975 
36986 
37004 
36988 
36965 
36949 
36971 
36952 
36934 
36964 
36969 
36933 
36879 
36854 
36834 
36861 
36896 
36899 
36892 
36880 
36891 
36889 
36926 
36918 
36845 
36780 
36796 
36850 
36916 
36930 
36911 
36858 
36809 
36774 
36738 
36710 
36698 
36700 
36698 
36667 
36666 
36667 
36661 
36651 
36629 
36593 
36513 
36430 
36442 
36452 
36424 
36392 
36363 
36353 
36362 
36417 
36455 
36482 
36472 
36482 
36514 
36508 
36497 
36492 
36522 
36572 
36568 
36577 
36594 
36580 
36563 
36554 
36515 
36509 
36605 
36652 
36685 
36713 
36741 
36711 
36670 
36574 
36524 
36516 
36564 
36632 
36667 
36687 
36711 
36680 
36666 
36730 
36767 
36730 
36734 
36709 
36687 
36734 
36748 
36713 
36679 
36668 
36685 
36656 
36667 
36712 
36737 
36757 
36784 
36838 
36835 
36824 
36801 
36797 
36803 
36767 
36673 
36635 
36616 
36645 
36695 
36710 
36723 
36714 
36693 
36704 
36700 
36682 
36676 
36599 
36594 
36661 
36677 
36627 
36540 
36553 
36599 
36599 
36616 
36679 
36685 
36657 
36566 
36522 
36487 
36438 
36468 
36506 
36533 
36584 
36616 
36673 
36667 
36662 
36626 
36653 
36634 
36560 
36465 
36415 
36401 
36391 
36442 
36490 
36493 
36441 
36392 
36409 
36399 
36376 
36379 
36394 
36382 
36359 
36292 
36282 
36259 
36213 
36220 
36232 
36254 
36268 
36310 
36296 
36269 
36234 
36211 
36251 
36301 
36306 
36274 
36290 
36279 
36271 
36217 
36149 
36165 
36224 
36246 
36261 
36258 
36253 
36224 
36228 
36242 
36240 
36220 
36185 
36194 
36228 
36179 
36160 
36209 
36267 
36299 
36301 
36330 
36315 
36285 
36293 
36276 
36251 
36244 
36195 
36185 
36272 
36308 
36310 
36271 
36231 
36210 
36224 
36248 
36262 
36286 
36312 
36267 
36185 
36148 
36154 
36167 
36149 
36131 
36114 
36122 
36189 
36230 
36192 
36109 
36141 
36174 
36216 
36236 
36225 
36203 
36226 
36186 
36169 
36211 
36200 
36144 
36128 
36119 
36120 
36149 
36145 
36103 
36160 
36213 
36212 
36188 
36199 
36187 
36205 
36247 
36263 
36232 
36184 
36124 
36017 
35910 
35869 
35867 
35771 
35639 
35569 
35546 
35498 
35431 
35424 
35374 
35308 
35213 
35147 
35066 
34997 
34907 
34746 
34651 
34622 
34493 
34386 
34303 
34214 
34148 
34101 
34028 
33961 
33904 
33807 
33744 
33680 
33600 
33558 
33513 
33498 
33521 
33551 
33548 
33475 
33369 
33306 
33302 
33295 
33224 
33217 
33206 
33191 
33196 
33155 
33127 
33103 
33041 
33043 
33081 
33109 
33127 
33122 
33104 
33159 
33188 
33250 
33259 
33260 
33257 
33231 
33298 
33312 
33314 
33298 
33308 
33338 
33363 
33359 
33420 
33488 
33542 
33597 
33652 
33737 
33789 
33859 
33897 
33923 
33998 
34038 
34078 
34135 
34237 
34307 
34330 
34336 
34350 
34350 
34407 
34510 
34623 
34648 
34703 
34766 
34801 
34915 
35045 
35138 
35249 
35310 
35356 
35376 
35434 
35450 
35393 
35389 
35469 
35540 
35591 
35633 
35690 
35747 
35833 
35876 
35932 
35996 
36087 
36162 
36148 
36120 
36144 
36190 
36221 
36272 
36339 
36428 
36523 
36632 
36685 
36694 
36675 
36712 
36728 
36701 
36692 
36753 
36867 
36899 
36890 
36886 
36923 
36991 
37089 
37158 
37179 
37240 
37260 
37259 
37286 
37394 
37489 
37518 
37496 
37508 
37485 
37501 
37583 
37622 
37691 
37694 
37670 
37705 
37710 
37721 
37760 
37846 
37844 
37904 
37937 
37917 
37865 
37882 
37954 
37995 
37974 
38004 
38015 
38039 
38091 
38120 
38160 
38187 
38189 
38169 
38183 
38138 
38115 
38115 
38116 
38073 
38092 
38117 
38115 
38127 
38099 
38113 
38108 
38117 
38151 
38156 
38105 
38078 
38056 
38124 
38138 
38129 
38145 
38120 
38129 
38181 
38161 
38111 
37995 
37894 
37841 
37743 
37574 
37396 
37251 
37167 
37045 
36892 
36773 
36650 
36543 
36407 
36315 
36210 
36101 
36027 
35940 
35797 
35670 
35609 
35486 
35343 
35250 
35191 
35078 
34958 
34809 
34658 
34526 
34447 
34386 
34271 
34119 
33965 
33878 
33873 
33872 
33830 
33709 
33659 
33571 
33466 
33437 
33414 
33433 
33365 
33308 
33297 
33299 
33354 
33358 
33287 
33232 
33269 
33315 
33338 
33341 
33369 
33404 
33394 
33379 
33412 
33422 
33432 
33422 
33476 
33565 
33586 
33601 
33666 
33691 
33753 
33829 
33855 
33870 
33937 
33953 
33996 
34127 
34188 
34189 
34237 
34293 
34374 
34459 
34527 
34577 
34638 
34681 
34739 
34790 
34877 
34968 
35003 
34980 
34935 
35040 
35188 
35323 
35446 
35531 
35620 
35718 
35816 
35862 
35916 
36005 
36071 
36131 
36191 
36255 
36310 
36350 
36430 
36486 
36560 
36630 
36753 
36852 
36932 
36961 
36998 
37017 
37054 
37135 
37249 
37348 
37441 
37571 
37667 
37763 
37821 
37878 
37917 
37967 
38002 
38075 
38113 
38195 
38228 
38224 
38353 
38434 
38487 
38568 
38625 
38694 
38770 
38815 
38874 
38946 
38933 
38944 
39021 
39067 
39142 
39225 
39285 
39334 
39381 
39458 
39527 
39624 
39592 
39561 
39606 
39638 
39620 
39588 
39586 
39681 
39778 
39826 
39882 
39943 
39943 
39964 
40023 
40078 
40102 
40139 
40174 
40171 
40225 
40255 
40330 
40352 
40335 
40349 
40386 
40351 
40365 
40386 
40433 
40512 
40583 
40592 
40685 
40725 
40732 
40718 
40696 
40695 
40705 
40730 
40748 
40756 
40794 
40811 
40771 
40745 
40771 
40822 
40836 
40793 
40783 
40756 
40706 
40599 
40504 
40383 
40299 
40233 
40179 
40102 
40006 
39919 
39825 
39735 
39696 
39619 
39576 
39525 
39442 
39338 
39311 
39321 
39290 
39220 
39141 
39143 
39137 
39127 
39011 
38939 
38917 
38901 
38889 
38852 
38780 
38746 
38714 
38735 
38759 
38781 
38807 
38767 
38663 
38583 
38557 
38577 
38622 
38589 
38505 
38469 
38438 
38406 
38422 
38444 
38443 
38407 
38439 
38503 
38500 
38478 
38481 
38534 
38555 
38551 
38550 
38546 
38534 
38539 
38603 
38621 
38584 
38578 
38592 
38649 
38676 
38694 
38739 
38821 
38828 
38834 
38832 
38893 
38936 
38920 
38958 
38940 
38982 
39060 
39073 
39120 
39174 
39164 
39156 
39199 
39304 
39434 
39460 
39457 
39492 
39532 
39533 
39560 
39623 
39638 
39685 
39705 
39733 
39758 
39794 
39857 
39909 
39935 
40004 
40032 
40035 
40047 
40033 
40001 
40047 
40105 
40101 
40111 
40131 
40188 
40231 
40286 
40315 
40374 
40444 
40494 
40489 
40471 
40499 
40459 
40432 
40421 
40374 
40404 
40395 
40345 
40392 
40473 
40519 
40514 
40526 
40607 
40640 
40627 
40653 
40683 
40732 
40704 
40664 
40688 
40710 
40750 
40793 
40802 
40781 
40830 
40875 
40894 
40869 
40909 
40938 
40897 
40902 
40875 
40829 
40876 
40911 
40882 
40867 
40896 
40900 
40931 
40953 
40936 
40922 
40961 
41030 
41064 
41031 
40978 
40947 
40929 
40918 
40910 
40915 
40949 
40921 
40763 
40574 
40445 
40297 
40173 
40017 
39761 
39510 
39327 
39170 
39028 
38896 
38726 
38549 
38391 
38246 
38106 
37940 
37764 
37612 
37502 
37377 
37200 
37074 
36965 
36875 
36751 
36627 
36516 
36352 
36209 
36137 
36028 
35905 
35787 
35729 
35701 
35607 
35530 
35472 
35408 
35357 
35337 
35320 
35332 
35409 
35451 
35435 
35410 
35390 
35349 
35294 
35277 
35358 
35479 
35514 
35510 
35531 
35557 
35602 
35649 
35672 
35702 
35732 
35778 
35821 
35918 
36087 
36169 
36213 
36291 
36321 
36341 
36357 
36402 
36445 
36482 
36557 
36661 
36733 
36790 
36826 
36880 
36949 
36997 
37054 
37139 
37179 
37225 
37318 
37380 
37415 
37489 
37611 
37675 
37772 
37865 
37923 
37993 
38074 
38177 
38264 
38283 
38328 
38446 
38554 
38665 
38748 
38806 
38868 
38980 
39060 
39144 
39249 
39360 
39476 
39570 
39647 
39753 
39789 
39763 
39847 
39904 
39991 
40088 
40161 
40276 
40381 
40443 
40493 
40502 
40511 
40590 
40667 
40742 
40819 
40877 
40896 
40918 
41003 
41069 
41089 
41119 
41193 
41238 
41212 
41213 
41201 
41177 
41189 
41250 
41292 
41284 
41308 
41374 
41427 
41491 
41482 
41514 
41569 
41584 
41604 
41588 
41598 
41632 
41640 
41619 
41633 
41703 
41806 
41838 
41837 
41818 
41841 
41941 
41965 
42022 
42053 
42068 
42108 
42139 
42175 
42255 
42253 
42263 
42249 
42246 
42265 
42249 
42216 
42208 
42185 
42101 
42076 
42076 
42079 
42107 
42117 
42074 
42065 
42097 
42124 
42201 
42153 
42000 
41796 
41592 
41307 
41040 
40765 
40465 
40148 
39883 
39639 
39389 
39205 
39059 
38835 
38669 
38531 
38389 
38232 
38081 
37918 
37773 
37672 
37653 
37574 
37405 
37285 
37219 
37124 
36928 
36777 
36674 
36587 
36489 
36393 
36301 
36211 
36117 
36023 
35958 
35902 
35848 
35831 
35869 
35925 
35885 
35871 
35997 
36142 
36253 
36375 
36453 
36551 
36690 
36801 
36892 
37053 
37225 
37363 
37501 
37616 
37803 
37930 
38025 
38150 
38268 
38419 
38539 
38634 
38728 
38881 
39029 
39170 
39294 
39380 
39437 
39512 
39548 
39633 
39759 
39836 
39915 
40008 
40135 
40217 
40270 
40377 
40509 
40576 
40638 
40737 
40839 
40926 
41021 
41148 
41268 
41334 
41374 
41438 
41549 
41659 
41770 
41846 
41895 
41947 
41959 
42047 
42135 
42253 
42320 
42401 
42390 
42379 
42399 
42433 
42452 
42477 
42474 
42497 
42494 
42531 
42592 
42603 
42594 
42652 
42648 
42642 
42691 
42752 
42761 
42715 
42731 
42777 
42875 
42869 
42840 
42843 
42841 
42851 
42914 
42992 
43071 
43089 
43129 
43152 
43170 
43208 
43241 
43244 
43242 
43225 
43202 
43196 
43133 
43139 
43174 
43181 
43168 
43175 
43145 
43183 
43189 
43197 
43213 
43217 
43266 
43284 
43287 
43255 
43292 
43354 
43311 
43264 
43244 
43220 
43229 
43252 
43230 
43199 
43177 
43214 
43222 
43260 
43239 
43198 
43140 
43099 
43124 
43093 
43068 
43098 
43180 
43214 
43175 
43123 
43097 
43022 
42955 
42957 
42997 
42955 
42929 
42918 
42849 
42767 
42696 
42685 
42691 
42653 
42605 
42587 
42563 
42581 
42592 
42626 
42591 
42547 
42501 
42458 
42388 
42341 
42320 
42288 
42248 
42248 
42217 
42263 
42311 
42272 
42231 
42211 
42183 
42123 
42032 
41851 
41623 
41339 
41004 
40723 
40433 
40109 
39815 
39519 
39252 
39031 
38824 
38596 
38384 
38193 
37980 
37802 
37654 
37519 
37438 
37321 
37193 
37085 
36973 
36931 
36890 
36861 
36804 
36788 
36760 
36737 
36687 
36600 
36559 
36523 
36508 
36475 
36449 
36497 
36548 
36550 
36569 
36547 
36549 
36595 
36623 
36725 
36837 
36961 
37099 
37208 
37307 
37447 
37631 
37779 
37887 
38034 
38203 
38351 
38518 
38707 
38812 
38901 
39015 
39124 
39207 
39269 
39444 
39587 
39622 
39757 
39894 
40021 
40190 
40276 
40314 
40363 
40423 
40481 
40567 
40657 
40765 
40799 
40784 
40779 
40849 
40933 
40984 
41015 
41047 
41096 
41174 
41264 
41353 
41405 
41506 
41573 
41581 
41646 
41714 
41747 
41732 
41743 
41817 
41847 
41922 
41999 
42085 
42138 
42158 
42221 
42252 
42279 
42366 
42385 
42403 
42427 
42421 
42407 
42464 
42468 
42465 
42496 
42506 
42442 
42386 
42383 
42370 
42397 
42424 
42422 
42456 
42460 
42434 
42446 
42454 
42473 
42468 
42433 
42449 
42467 
42450 
42455 
42450 
42409 
42444 
42491 
42456 
42457 
42435 
42424 
42483 
42553 
42592 
42578 
42570 
42615 
42596 
42545 
42512 
42524 
42515 
42547 
42531 
42502 
42474 
42425 
42417 
42373 
42330 
42321 
42292 
42284 
42303 
42258 
42196 
42186 
42183 
42173 
42082 
42042 
41992 
41976 
41994 
42061 
42043 
42015 
41984 
41956 
41956 
41941 
41922 
41871 
41801 
41757 
41707 
41657 
41658 
41659 
41623 
41566 
41503 
41451 
41419 
41379 
41365 
41422 
41429 
41360 
41327 
41322 
41325 
41284 
41247 
41209 
41148 
41063 
41025 
40980 
40995 
40969 
40937 
40896 
40830 
40801 
40773 
40737 
40712 
40683 
40647 
40631 
40669 
40717 
40703 
40672 
40652 
40639 
40608 
40636 
40663 
40656 
40595 
40521 
40461 
40343 
40135 
39914 
39675 
39422 
39098 
38794 
38546 
38433 
38295 
38093 
37903 
37717 
37531 
37388 
37228 
37036 
36937 
36888 
36809 
36757 
36704 
36670 
36607 
36581 
36577 
36519 
36484 
36494 
36506 
36510 
36467 
36459 
36459 
36419 
36399 
36430 
36485 
36493 
36489 
36557 
36631 
36672 
36639 
36625 
36693 
36800 
36887 
37007 
37146 
37244 
37282 
37369 
37506 
37632 
37710 
37795 
37885 
37967 
38064 
38163 
38268 
38389 
38478 
38560 
38646 
38717 
38764 
38820 
38907 
38975 
39023 
39044 
39114 
39202 
39348 
39481 
39503 
39520 
39594 
39641 
39664 
39666 
39717 
39803 
39872 
39972 
40048 
40072 
40091 
40141 
40167 
40191 
40229 
40279 
40391 
40469 
40514 
40529 
40547 
40564 
40595 
40615 
40597 
40577 
40577 
40550 
40610 
40641 
40701 
40742 
40772 
40825 
40819 
40792 
40802 
40832 
40865 
40906 
40946 
40941 
40893 
40865 
40849 
40797 
40821 
40854 
40836 
40843 
40859 
40913 
40925 
40878 
40895 
40924 
40938 
40900 
40872 
40869 
40860 
40881 
40923 
40881 
40860 
40857 
40847 
40841 
40814 
40825 
40824 
40831 
40797 
40833 
40928 
40959 
40991 
40974 
40957 
40939 
40923 
40914 
40891 
40893 
40889 
40878 
40894 
40969 
40951 
40896 
40850 
40821 
40796 
40803 
40819 
40794 
40791 
40833 
40811 
40728 
40714 
40774 
40761 
40689 
40663 
40672 
40654 
40576 
40519 
40511 
40510 
40525 
40551 
40551 
40592 
40542 
40478 
40428 
40397 
40355 
40271 
40220 
40212 
40238 
40251 
40333 
40359 
40341 
40337 
40367 
40369 
40305 
40222 
40144 
40124 
40162 
40130 
40106 
40101 
40104 
40075 
40127 
40210 
40201 
40193 
40235 
40203 
40132 
40087 
40091 
40060 
40020 
40014 
39993 
39957 
39961 
39974 
39943 
39864 
39755 
39623 
39515 
39384 
39172 
38963 
38820 
38694 
38562 
38394 
38199 
38042 
37948 
37813 
37738 
37691 
37668 
37657 
37646 
37675 
37714 
37686 
37633 
37682 
37728 
37750 
37774 
37795 
37823 
37867 
37880 
37931 
37955 
38016 
38042 
38046 
38076 
38116 
38109 
38188 
38307 
38338 
38354 
38380 
38430 
38478 
38524 
38592 
38672 
38737 
38808 
38856 
38885 
38940 
39031 
39101 
39233 
39342 
39399 
39481 
39501 
39479 
39528 
39574 
39686 
39798 
39816 
39821 
39894 
39994 
40118 
40136 
40155 
40153 
40161 
40206 
40215 
40181 
40207 
40299 
40428 
40567 
40633 
40648 
40653 
40673 
40692 
40719 
40671 
40716 
40756 
40737 
40777 
40844 
40849 
40854 
40829 
40825 
40864 
40867 
40877 
40921 
40950 
40947 
41009 
41095 
41115 
41097 
41111 
41178 
41162 
41150 
41218 
41265 
41238 
41200 
41108 
41091 
41132 
41169 
41210 
41217 
41170 
41184 
41227 
41241 
41254 
41251 
41274 
41322 
41305 
41320 
41356 
41343 
41332 
41241 
41208 
41270 
41259 
41270 
41297 
41339 
41357 
41354 
41401 
41402 
41351 
41344 
41389 
41453 
41430 
41383 
41379 
41389 
41420 
41442 
41397 
41396 
41416 
41500 
41478 
41429 
41412 
41421 
41377 
41372 
41395 
41369 
41354 
41334 
41282 
41266 
41239 
41260 
41245 
41199 
41186 
41150 
41123 
41129 
41136 
41085 
41073 
41036 
41003 
40931 
40896 
40844 
40811 
40762 
40753 
40746 
40774 
40772 
40711 
40629 
40548 
40423 
40272 
40057 
39822 
39559 
39311 
39094 
38901 
38726 
38570 
38451 
38332 
38188 
38063 
38009 
37955 
37819 
37699 
37641 
37589 
37575 
37616 
37688 
37709 
37742 
37736 
37759 
37770 
37756 
37784 
37856 
37883 
37933 
37935 
37913 
37935 
37952 
37993 
38032 
38068 
38093 
38132 
38185 
38244 
38311 
38363 
38385 
38440 
38501 
38531 
38573 
38656 
38733 
38775 
38862 
38927 
38979 
39029 
39119 
39190 
39230 
39266 
39267 
39292 
39357 
39378 
39422 
39515 
39555 
39587 
39602 
39643 
39719 
39782 
39852 
39843 
39819 
39875 
39947 
40026 
40101 
40119 
40091 
40103 
40137 
40183 
40253 
40271 
40248 
40254 
40322 
40363 
40372 
40408 
40473 
40504 
40580 
40645 
40698 
40743 
40776 
40776 
40819 
40859 
40897 
40992 
41039 
41068 
41067 
41079 
41080 
41062 
41150 
41221 
41236 
41236 
41251 
41301 
41358 
41327 
41310 
41318 
41272 
41197 
41176 
41186 
41203 
41215 
41200 
41186 
41186 
41212 
41203 
41164 
41148 
41140 
41111 
41090 
41077 
41108 
41126 
41186 
41195 
41116 
41053 
41037 
41000 
40958 
40969 
40990 
40951 
40915 
40916 
40964 
40936 
40874 
40852 
40841 
40899 
40880 
40835 
40853 
40897 
40832 
40798 
40842 
40824 
40782 
40794 
40767 
40770 
40761 
40727 
40705 
40726 
40727 
40739 
40713 
40661 
40580 
40524 
40435 
40240 
39999 
39735 
39403 
39060 
38798 
38447 
38124 
37817 
37505 
37237 
37020 
36754 
36519 
36324 
36146 
35993 
35852 
35723 
35617 
35546 
35487 
35427 
35371 
35302 
35267 
35230 
35214 
35265 
35275 
35270 
35259 
35259 
35306 
35385 
35437 
35466 
35492 
35529 
35520 
35548 
35604 
35707 
35779 
35806 
35846 
35945 
36125 
36267 
36446 
36632 
36722 
36824 
36943 
37103 
37289 
37447 
37581 
37748 
37917 
38075 
38241 
38326 
38401 
38509 
38636 
38765 
38861 
39033 
39214 
39279 
39304 
39380 
39484 
39606 
39714 
39718 
39797 
39925 
39980 
40069 
40171 
40256 
40350 
40388 
40385 
40433 
40505 
40580 
40680 
40745 
40737 
40792 
40892 
40975 
41053 
41112 
41195 
41234 
41223 
41218 
41229 
41296 
41340 
41330 
41362 
41447 
41561 
41586 
41650 
41729 
41726 
41774 
41825 
41846 
41883 
41875 
41869 
41916 
41963 
41998 
42015 
41983 
41982 
41997 
42093 
42150 
42121 
42037 
41992 
42007 
42082 
42093 
42065 
42058 
42061 
42024 
42013 
42070 
42122 
42130 
42181 
42182 
42207 
42201 
42100 
42052 
42080 
42091 
42083 
42023 
41974 
41950 
41962 
42017 
42040 
42016 
42002 
42003 
41961 
41963 
41949 
41913 
41835 
41791 
41741 
41734 
41790 
41767 
41721 
41743 
41753 
41715 
41700 
41638 
41593 
41612 
41555 
41546 
41556 
41548 
41493 
41439 
41434 
41399 
41398 
41399 
41335 
41343 
41359 
41316 
41201 
41021 
40778 
40419 
40005 
39541 
39049 
38533 
38086 
37652 
37192 
36723 
36316 
35960 
35556 
35214 
34982 
34735 
34438 
34205 
34030 
33798 
33646 
33496 
33330 
33258 
33168 
33063 
33027 
32984 
32928 
32920 
32927 
32883 
32840 
32850 
32921 
32953 
32956 
32960 
32976 
33068 
33205 
33345 
33531 
33678 
33793 
33942 
34053 
34152 
34271 
34454 
34697 
34952 
35167 
35350 
35616 
35905 
36127 
36329 
36532 
36741 
37018 
37259 
37437 
37601 
37823 
38043 
38187 
38270 
38370 
38514 
38696 
38844 
38963 
39009 
39074 
39237 
39368 
39491 
39629 
39741 
39852 
39934 
39977 
40043 
40158 
40250 
40315 
40457 
40557 
40637 
40758 
40875 
40920 
40978 
41040 
41089 
41182 
41277 
41390 
41443 
41493 
41615 
41687 
41687 
41744 
41842 
41884 
41958 
42018 
42095 
42190 
42290 
42339 
42373 
42427 
42533 
42706 
42789 
42847 
42896 
42926 
42907 
42920 
42997 
43068 
43160 
43231 
43229 
43249 
43257 
43278 
43325 
43385 
43431 
43414 
43401 
43428 
43506 
43587 
43628 
43665 
43637 
43640 
43628 
43617 
43648 
43692 
43683 
43619 
43643 
43684 
43702 
43733 
43732 
43679 
43669 
43717 
43740 
43753 
43773 
43819 
43831 
43772 
43759 
43755 
43724 
43763 
43743 
43754 
43743 
43681 
43651 
43585 
43517 
43454 
43426 
43405 
43339 
43346 
43290 
43246 
43252 
43237 
43243 
43247 
43131 
43001 
43003 
43032 
43043 
43026 
42960 
42902 
42849 
42794 
42736 
42673 
42665 
42620 
42559 
42562 
42532 
42469 
42397 
42332 
42312 
42275 
42232 
42167 
42162 
42141 
42111 
42123 
42067 
42012 
41973 
41930 
41871 
41777 
41701 
41582 
41401 
41180 
40829 
40363 
39885 
39375 
38786 
38240 
37656 
37078 
36566 
36086 
35660 
35265 
34892 
34516 
34162 
33848 
33545 
33292 
33089 
32891 
32710 
32570 
32403 
32255 
32167 
32127 
32072 
32033 
31998 
31973 
31965 
32016 
32024 
32028 
32023 
32040 
32095 
32128 
32200 
32279 
32375 
32549 
32699 
32851 
32983 
33111 
33289 
33456 
33599 
33779 
34011 
34267 
34492 
34681 
34841 
35002 
35232 
35513 
35744 
35961 
36127 
36316 
36461 
36622 
36771 
36953 
37114 
37237 
37365 
37480 
37622 
37830 
37966 
38020 
38129 
38285 
38394 
38489 
38557 
38621 
38699 
38823 
38910 
38998 
39115 
39192 
39290 
39428 
39555 
39677 
39781 
39881 
40023 
40179 
40341 
40416 
40499 
40603 
40698 
40761 
40822 
40949 
41022 
41088 
41192 
41269 
41360 
41501 
41632 
41763 
41822 
41861 
41954 
42089 
42186 
42286 
42356 
42364 
42398 
42450 
42522 
42573 
42676 
42732 
42770 
42898 
42998 
43038 
43078 
43115 
43175 
43193 
43221 
43296 
43364 
43459 
43525 
43573 
43627 
43640 
43615 
43640 
43669 
43724 
43764 
43787 
43826 
43792 
43784 
43841 
43858 
43867 
43894 
43865 
43887 
43926 
43907 
43932 
43988 
44014 
44044 
44049 
44037 
44082 
44152 
44200 
44209 
44214 
44191 
44207 
44215 
44147 
44102 
44127 
44104 
44092 
44072 
44059 
44040 
44018 
43986 
43969 
43913 
43891 
43922 
43979 
44029 
43992 
43978 
43940 
43873 
43817 
43759 
43665 
43643 
43628 
43670 
43726 
43727 
43714 
43650 
43603 
43587 
43521 
43448 
43425 
43411 
43383 
43329 
43244 
43250 
43236 
43206 
43173 
43076 
42911 
42645 
42291 
41827 
41363 
40857 
40309 
39754 
39204 
38649 
38117 
37636 
37210 
36758 
36357 
36011 
35685 
35402 
35189 
34981 
34799 
34613 
34467 
34319 
34219 
34125 
34028 
33912 
33838 
33794 
33729 
33706 
33745 
33763 
33816 
33921 
34018 
34099 
34141 
34188 
34302 
34407 
34525 
34625 
34759 
34888 
35032 
35241 
35435 
35673 
35893 
36113 
36307 
36487 
36691 
36925 
37068 
37265 
37539 
37740 
37908 
38076 
38212 
38333 
38513 
38676 
38804 
38933 
39030 
39173 
39358 
39541 
39584 
39619 
39714 
39775 
39841 
39898 
39971 
40080 
40165 
40270 
40333 
40416 
40497 
40567 
40645 
40720 
40788 
40915 
41045 
41167 
41282 
41370 
41461 
41577 
41663 
41717 
41800 
41882 
41961 
42008 
42095 
42253 
42318 
42375 
42484 
42548 
42560 
42674 
42776 
42827 
42870 
42914 
43007 
43061 
43102 
43190 
43254 
43321 
43408 
43457 
43517 
43589 
43659 
43729 
43743 
43727 
43769 
43804 
43858 
43940 
44003 
43968 
43935 
43914 
43888 
43882 
43874 
43923 
44005 
44036 
44046 
44038 
44071 
44093 
44143 
44174 
44142 
44124 
44108 
44064 
44059 
44058 
44015 
44001 
44018 
44034 
44003 
43948 
43924 
43905 
43903 
43918 
43908 
43864 
43856 
43846 
43836 
43781 
43753 
43725 
43741 
43772 
43715 
43669 
43667 
43666 
43687 
43698 
43697 
43663 
43591 
43557 
43560 
43519 
43483 
43414 
43439 
43382 
43291 
43212 
43165 
43147 
43055 
42965 
42794 
42506 
42097 
41613 
41025 
40412 
39787 
39056 
38373 
37805 
37239 
36694 
36146 
35650 
35196 
34790 
34409 
34040 
33745 
33461 
33193 
32930 
32684 
32481 
32354 
32229 
32154 
32070 
31921 
31812 
31768 
31798 
31914 
32036 
32073 
32095 
32134 
32201 
32295 
32338 
32429 
32535 
32634 
32704 
32787 
32953 
33095 
33241 
33444 
33725 
33937 
34131 
34382 
34635 
34901 
35191 
35517 
35807 
36023 
36226 
36502 
36769 
36942 
37169 
37360 
37522 
37634 
37742 
37848 
37928 
38128 
38406 
38581 
38717 
38831 
38894 
38984 
39083 
39186 
39298 
39418 
39527 
39610 
39725 
39840 
39941 
40080 
40206 
40370 
40491 
40626 
40759 
40899 
41030 
41124 
41175 
41285 
41374 
41469 
41569 
41699 
41814 
41974 
42121 
42208 
42270 
42443 
42614 
42711 
42746 
42858 
43003 
43157 
43279 
43365 
43442 
43564 
43668 
43738 
43858 
43971 
44021 
44079 
44184 
44257 
44289 
44371 
44469 
44545 
44638 
44821 
44920 
44982 
44971 
44947 
44943 
44986 
45038 
45128 
45188 
45263 
45345 
45390 
45388 
45405 
45437 
45489 
45480 
45445 
45475 
45509 
45516 
45540 
45518 
45514 
45553 
45613 
45598 
45589 
45570 
45529 
45485 
45466 
45425 
45485 
45530 
45577 
45554 
45480 
45411 
45336 
45276 
45270 
45206 
45114 
45105 
45116 
45064 
45038 
45038 
44999 
44948 
44918 
44865 
44802 
44759 
44700 
44681 
44761 
44736 
44666 
44600 
44507 
44453 
44456 
44441 
44430 
44419 
44341 
44238 
44159 
44088 
44014 
44010 
44004 
43966 
43947 
43875 
43802 
43738 
43671 
43571 
43387 
43117 
42686 
42121 
41495 
40798 
40000 
39198 
38408 
37593 
36873 
36149 
35480 
34829 
34293 
33796 
33327 
32845 
32403 
31998 
31645 
31349 
31077 
30801 
30520 
30343 
30203 
30091 
29982 
29920 
29926 
29896 
29899 
29925 
29955 
30031 
30064 
30073 
30091 
30179 
30314 
30387 
30499 
30621 
30712 
30805 
30930 
31061 
31212 
31427 
31635 
31827 
32068 
32299 
32558 
32815 
33046 
33265 
33516 
33737 
33943 
34242 
34525 
34806 
35132 
35393 
35586 
35764 
35921 
36167 
36475 
36695 
36825 
37015 
37238 
37359 
37429 
37541 
37677 
37792 
37954 
38091 
38196 
38345 
38474 
38614 
38804 
38962 
39068 
39210 
39344 
39487 
39672 
39827 
39963 
40114 
40231 
40338 
40502 
40640 
40797 
40960 
41107 
41228 
41355 
41515 
41728 
41908 
42105 
42227 
42344 
42471 
42604 
42802 
42966 
43074 
43219 
43329 
43450 
43548 
43686 
43836 
43958 
44057 
44165 
44264 
44287 
44342 
44407 
44461 
44559 
44675 
44765 
44875 
45013 
45063 
45041 
45074 
45150 
45180 
45212 
45225 
45287 
45306 
45301 
45325 
45338 
45362 
45400 
45400 
45385 
45386 
45358 
45389 
45409 
45455 
45505 
45534 
45588 
45588 
45578 
45580 
45610 
45614 
45587 
45601 
45588 
45597 
45612 
45666 
45653 
45644 
45683 
45677 
45663 
45597 
45559 
45532 
45518 
45520 
45505 
45526 
45446 
45383 
45386 
45362 
45302 
45256 
45197 
45183 
45201 
45156 
45082 
45030 
44989 
44893 
44822 
44788 
44769 
44724 
44660 
44629 
44602 
44531 
44443 
44362 
44291 
44216 
44161 
44132 
44124 
44010 
43892 
43801 
43715 
43626 
43576 
43577 
43555 
43537 
43497 
43399 
43362 
43373 
43318 
43253 
43208 
43205 
43194 
43162 
43126 
43029 
42959 
42964 
42940 
42820 
42753 
42754 
42771 
42762 
42740 
42600 
42309 
41940 
41432 
40808 
40095 
39331 
38578 
37797 
36990 
36264 
35606 
34981 
34376 
33814 
33280 
32780 
32314 
31905 
31535 
31220 
30925 
30724 
30505 
30293 
30158 
30068 
29980 
29913 
29908 
29934 
29885 
29795 
29748 
29897 
30026 
30056 
30136 
30216 
30260 
30373 
30547 
30665 
30807 
30974 
31065 
31141 
31281 
31478 
31703 
31886 
32032 
32242 
32513 
32797 
33065 
33296 
33533 
33801 
34055 
34264 
34498 
34766 
34996 
35234 
35442 
35687 
35930 
36056 
36241 
36415 
36573 
36782 
36910 
37042 
37212 
37375 
37560 
37648 
37712 
37778 
37848 
38005 
38140 
38220 
38339 
38441 
38551 
38657 
38787 
38852 
38988 
39193 
39323 
39443 
39605 
39794 
39930 
40008 
40120 
40317 
40524 
40707 
40811 
40923 
41136 
41349 
41479 
41573 
41723 
41883 
42052 
42195 
42354 
42430 
42512 
42665 
42786 
42885 
42992 
43088 
43159 
43310 
43519 
43611 
43673 
43747 
43802 
43868 
43945 
44086 
44204 
44237 
44359 
44434 
44466 
44528 
44624 
44685 
44734 
44812 
44914 
45000 
45050 
45076 
45119 
45149 
45125 
45143 
45199 
45278 
45267 
45285 
45366 
45393 
45461 
45514 
45547 
45547 
45498 
45545 
45618 
45556 
45503 
45536 
45607 
45707 
45732 
45699 
45690 
45704 
45714 
45716 
45649 
45586 
45570 
45592 
45527 
45493 
45483 
45519 
45577 
45579 
45522 
45438 
45389 
45376 
45342 
45283 
45248 
45251 
45293 
45330 
45339 
45341 
45295 
45265 
45237 
45258 
45266 
45241 
45184 
45131 
45063 
45066 
45074 
45077 
45072 
45029 
44968 
44900 
44793 
44790 
44754 
44716 
44680 
44627 
44529 
44427 
44344 
44283 
44301 
44352 
44304 
44286 
44282 
44246 
44217 
44136 
43990 
43739 
43314 
42796 
42198 
41532 
40834 
40163 
39460 
38778 
38182 
37573 
36956 
36385 
35884 
35392 
34991 
34630 
34316 
34037 
33759 
33545 
33373 
33228 
33154 
33109 
33041 
32980 
33003 
33053 
33077 
33151 
33277 
33396 
33460 
33504 
33525 
33565 
33651 
33735 
33842 
33970 
34107 
34212 
34296 
34428 
34535 
34671 
34885 
35068 
35194 
35363 
35597 
35815 
35998 
36237 
36517 
36692 
36833 
36993 
37180 
37387 
37535 
37648 
37772 
37930 
38079 
38241 
38377 
38526 
38608 
38678 
38751 
38841 
38934 
39025 
39091 
39150 
39155 
39195 
39326 
39450 
39489 
39539 
39671 
39699 
39757 
39838 
39915 
39973 
40075 
40236 
40347 
40494 
40552 
40590 
40784 
41056 
41193 
41328 
41447 
41587 
41673 
41756 
41877 
41964 
42056 
42221 
42406 
42590 
42673 
42760 
42838 
42894 
42977 
43075 
43167 
43247 
43357 
43455 
43584 
43648 
43707 
43757 
43794 
43851 
43901 
43954 
44084 
44165 
44240 
44283 
44297 
44342 
44433 
44414 
44415 
44486 
44559 
44641 
44700 
44713 
44699 
44687 
44728 
44734 
44751 
44807 
44860 
44871 
44908 
44914 
44906 
44881 
44898 
44918 
44930 
44985 
44986 
44957 
44865 
44803 
44779 
44763 
44785 
44762 
44660 
44635 
44683 
44706 
44693 
44674 
44600 
44521 
44474 
44492 
44530 
44592 
44584 
44570 
44547 
44549 
44558 
44473 
44401 
44358 
44316 
44253 
44247 
44229 
44170 
44153 
44143 
44101 
44124 
44177 
44144 
44109 
44114 
44068 
44001 
43965 
43914 
43857 
43863 
43901 
43820 
43633 
43334 
42948 
42437 
41805 
41121 
40423 
39721 
39045 
38309 
37597 
36932 
36328 
35673 
35048 
34530 
34091 
33711 
33338 
32968 
32576 
32264 
32022 
31808 
31652 
31525 
31427 
31309 
31247 
31271 
31317 
31318 
31377 
31498 
31550 
31622 
31718 
31796 
31936 
32056 
32180 
32326 
32425 
32541 
32656 
32721 
32792 
32968 
33174 
33347 
33514 
33645 
33736 
33915 
34109 
34328 
34588 
34798 
34992 
35213 
35385 
35545 
35800 
36093 
36276 
36440 
36654 
36894 
37086 
37212 
37361 
37538 
37749 
37898 
37980 
38087 
38192 
38331 
38495 
38573 
38591 
38681 
38758 
38863 
39019 
39117 
39157 
39263 
39392 
39529 
39623 
39662 
39742 
39934 
40104 
40279 
40449 
40604 
40739 
40912 
41090 
41224 
41354 
41503 
41643 
41767 
41860 
41995 
42164 
42326 
42525 
42569 
42619 
42731 
42819 
43012 
43216 
43313 
43424 
43549 
43623 
43703 
43808 
43965 
44063 
44116 
44188 
44267 
44326 
44406 
44471 
44533 
44600 
44696 
44785 
44930 
45001 
44991 
45025 
45036 
45075 
45175 
45279 
45325 
45336 
45370 
45429 
45410 
45397 
45431 
45470 
45535 
45611 
45610 
45596 
45582 
45522 
45507 
45546 
45562 
45572 
45510 
45423 
45406 
45438 
45395 
45319 
45269 
45301 
45359 
45362 
45330 
45265 
45216 
45165 
45112 
45142 
45154 
45147 
45038 
44931 
44885 
44861 
44894 
44948 
44949 
44921 
44851 
44798 
44708 
44646 
44594 
44567 
44528 
44457 
44475 
44474 
44438 
44442 
44480 
44449 
44388 
44355 
44315 
44215 
44137 
44114 
44092 
44064 
44010 
43910 
43844 
43782 
43726 
43662 
43615 
43592 
43576 
43560 
43434 
43255 
43032 
42726 
42325 
41832 
41223 
40520 
39700 
38876 
38101 
37383 
36647 
35866 
35161 
34522 
33987 
33427 
32850 
32352 
31874 
31460 
31153 
30910 
30681 
30472 
30327 
30171 
30100 
30055 
30016 
30047 
30070 
30097 
30130 
30145 
30208 
30307 
30411 
30534 
30691 
30837 
30990 
31090 
31236 
31372 
31509 
31643 
31747 
31859 
31971 
32031 
32133 
32330 
32531 
32684 
32824 
32997 
33160 
33360 
33622 
33858 
34039 
34192 
34476 
34727 
34965 
35165 
35393 
35630 
35887 
36067 
36150 
36302 
36493 
36658 
36835 
37046 
37217 
37312 
37408 
37518 
37627 
37743 
37903 
38078 
38221 
38287 
38374 
38449 
38598 
38732 
38872 
39007 
39147 
39339 
39526 
39624 
39636 
39728 
39879 
40069 
40223 
40374 
40535 
40684 
40886 
41018 
41148 
41297 
41457 
41623 
41800 
41971 
42138 
42258 
42404 
42552 
42634 
42743 
42895 
42993 
43083 
43214 
43305 
43428 
43552 
43678 
43830 
43906 
43998 
44109 
44195 
44260 
44360 
44379 
44455 
44535 
44560 
44623 
44710 
44753 
44810 
44848 
44896 
44950 
45051 
45167 
45182 
45186 
45222 
45225 
45203 
45179 
45158 
45193 
45218 
45187 
45164 
45192 
45241 
45301 
45335 
45352 
45330 
45347 
45361 
45359 
45334 
45315 
45361 
45430 
45471 
45464 
45400 
45361 
45298 
45297 
45274 
45239 
45223 
45220 
45213 
45201 
45142 
45044 
44970 
44938 
44892 
44866 
44816 
44769 
44710 
44697 
44700 
44726 
44659 
44550 
44521 
44482 
44463 
44458 
44423 
44375 
44324 
44260 
44216 
44215 
44237 
44244 
44215 
44192 
44165 
44153 
44190 
44115 
44005 
43937 
43906 
43862 
43823 
43810 
43821 
43819 
43780 
43764 
43709 
43662 
43630 
43591 
43540 
43459 
43430 
43423 
43426 
43351 
43213 
42927 
42420 
41822 
41155 
40427 
39728 
39012 
38257 
37506 
36754 
36036 
35324 
34667 
34102 
33586 
33092 
32644 
32277 
31903 
31608 
31350 
31181 
31025 
30856 
30701 
30636 
30601 
30578 
30565 
30568 
30621 
30730 
30841 
30904 
30979 
31098 
31274 
31412 
31524 
31704 
31891 
32045 
32137 
32222 
32369 
32534 
32705 
32876 
33070 
33212 
33335 
33529 
33692 
33840 
34024 
34244 
34487 
34679 
34849 
35021 
35201 
35429 
35598 
35751 
35935 
36157 
36374 
36546 
36698 
36837 
36993 
37218 
37374 
37445 
37516 
37606 
37741 
37909 
38069 
38179 
38263 
38338 
38506 
38618 
38729 
38820 
38950 
39082 
39185 
39334 
39446 
39470 
39529 
39715 
39871 
39975 
40062 
40185 
40349 
40482 
40569 
40659 
40784 
40930 
41123 
41338 
41469 
41575 
41701 
41828 
41920 
42033 
42136 
42249 
42360 
42505 
42623 
42690 
42792 
42938 
43044 
43174 
43245 
43317 
43410 
43501 
43567 
43655 
43710 
43774 
43827 
43899 
44008 
44106 
44113 
44090 
44097 
44146 
44215 
44199 
44199 
44283 
44360 
44336 
44361 
44446 
44513 
44498 
44487 
44560 
44620 
44641 
44662 
44648 
44631 
44648 
44661 
44622 
44625 
44674 
44697 
44686 
44671 
44691 
44718 
44719 
44713 
44726 
44803 
44842 
44801 
44771 
44743 
44686 
44704 
44741 
44760 
44710 
44623 
44572 
44547 
44519 
44455 
44442 
44412 
44358 
44409 
44445 
44414 
44412 
44422 
44382 
44310 
44323 
44336 
44330 
44324 
44357 
44311 
44303 
44304 
44286 
44292 
44261 
44289 
44265 
44171 
44097 
44116 
44120 
44105 
43977 
43766 
43489 
43122 
42687 
42181 
41561 
40926 
40286 
39659 
39023 
38333 
37684 
37054 
36474 
35917 
35385 
34919 
34475 
34042 
33681 
33438 
33220 
33042 
32885 
32731 
32638 
32611 
32624 
32645 
32700 
32733 
32745 
32809 
32854 
32899 
33049 
33217 
33392 
33582 
33751 
33909 
34105 
34267 
34411 
34567 
34714 
34897 
35041 
35176 
35315 
35469 
35624 
35795 
35946 
36122 
36351 
36593 
36820 
37036 
37233 
37398 
37519 
37688 
37832 
37963 
38093 
38246 
38378 
38485 
38560 
38595 
38684 
38823 
38918 
39007 
39073 
39117 
39180 
39250 
39336 
39443 
39495 
39510 
39544 
39675 
39760 
39860 
39963 
40019 
40108 
40219 
40306 
40410 
40515 
40602 
40704 
40793 
40924 
41074 
41210 
41323 
41483 
41560 
41605 
41727 
41863 
42034 
42163 
42314 
42438 
42526 
42585 
42650 
42774 
42913 
42981 
43051 
43151 
43310 
43452 
43521 
43628 
43750 
43824 
43913 
44006 
44033 
44053 
44145 
44269 
44337 
44361 
44420 
44412 
44413 
44494 
44585 
44597 
44620 
44688 
44713 
44729 
44791 
44869 
44919 
44940 
44925 
44894 
44815 
44789 
44793 
44746 
44689 
44665 
44728 
44778 
44724 
44672 
44646 
44621 
44624 
44585 
44559 
44545 
44551 
44475 
44375 
44309 
44273 
44289 
44328 
44357 
44307 
44255 
44220 
44160 
44177 
44182 
44202 
44193 
44077 
44034 
44043 
44018 
44027 
43931 
43776 
43610 
43417 
43061 
42625 
42100 
41476 
40805 
40168 
39536 
38859 
38223 
37649 
36995 
36333 
35717 
35190 
34720 
34259 
33839 
33450 
33120 
32870 
32716 
32559 
32414 
32280 
32169 
32034 
32025 
32057 
32065 
32148 
32228 
32277 
32385 
32493 
32580 
32770 
32950 
33068 
33157 
33278 
33420 
33557 
33640 
33751 
33877 
33960 
34089 
34206 
34284 
34427 
34571 
34712 
34828 
34888 
35035 
35237 
35408 
35605 
35826 
36118 
36375 
36540 
36668 
36869 
37084 
37254 
37438 
37578 
37662 
37838 
38037 
38190 
38286 
38359 
38465 
38532 
38618 
38737 
38851 
38959 
39017 
39152 
39276 
39375 
39489 
39567 
39668 
39784 
39890 
39956 
40076 
40244 
40381 
40544 
40679 
40819 
40912 
41027 
41198 
41347 
41464 
41628 
41769 
41970 
42135 
42242 
42374 
42531 
42636 
42725 
42873 
43023 
43128 
43254 
43308 
43459 
43656 
43777 
43901 
44008 
44139 
44247 
44406 
44506 
44601 
44698 
44805 
44894 
44927 
44961 
44990 
44980 
45016 
45073 
45107 
45173 
45194 
45196 
45167 
45151 
45122 
45091 
45054 
44982 
44928 
44931 
44936 
44927 
44892 
44911 
44930 
44932 
44940 
44914 
44888 
44868 
44837 
44851 
44853 
44858 
44796 
44758 
44732 
44670 
44603 
44608 
44658 
44675 
44676 
44652 
44637 
44672 
44678 
44727 
44807 
44795 
44765 
44770 
44775 
44766 
44809 
44849 
44835 
44789 
44755 
44665 
44549 
44359 
44114 
43798 
43367 
42907 
42311 
41680 
41076 
40352 
39584 
38882 
38242 
37566 
36908 
36269 
35672 
35094 
34546 
34084 
33649 
33230 
32892 
32635 
32408 
32155 
31986 
31839 
31716 
31600 
31511 
31471 
31455 
31405 
31462 
31566 
31601 
31611 
31652 
31655 
31703 
31755 
31890 
32053 
32134 
32196 
32269 
32283 
32277 
32334 
32433 
32556 
32675 
32759 
32921 
33121 
33287 
33421 
33614 
33811 
33964 
34192 
34467 
34689 
34927 
35222 
35469 
35655 
35872 
36127 
36360 
36670 
36947 
37163 
37340 
37479 
37657 
37820 
38041 
38298 
38499 
38670 
38784 
38870 
38927 
39072 
39201 
39358 
39544 
39711 
39807 
39910 
40060 
40223 
40322 
40398 
40513 
40694 
40890 
41103 
41294 
41471 
41611 
41760 
41899 
42071 
42242 
42409 
42596 
42778 
42971 
43091 
43181 
43392 
43600 
43787 
43970 
44125 
44264 
44405 
44560 
44746 
44842 
45002 
45203 
45334 
45466 
45645 
45819 
45988 
46174 
46328 
46470 
46594 
46649 
46765 
46902 
47081 
47234 
47335 
47468 
47597 
47691 
47752 
47795 
47834 
47876 
47909 
47970 
48031 
48089 
48169 
48185 
48196 
48233 
48267 
48265 
48284 
48287 
48215 
48140 
48157 
48211 
48193 
48139 
48107 
48118 
48130 
48104 
48047 
47944 
47922 
47909 
47836 
47795 
47767 
47664 
47575 
47563 
47527 
47514 
47527 
47493 
47444 
47418 
47377 
47308 
47256 
47194 
47109 
47140 
47141 
47122 
47140 
47071 
47048 
47054 
46991 
46898 
46818 
46712 
46541 
46230 
45868 
45495 
45058 
44513 
43868 
43171 
42441 
41708 
40973 
40278 
39622 
38927 
38262 
37665 
37063 
36490 
35930 
35447 
35055 
34707 
34361 
34066 
33808 
33605 
33426 
33236 
33098 
33012 
32896 
32768 
32746 
32765 
32780 
32791 
32834 
32808 
32774 
32766 
32867 
32961 
32936 
32880 
32932 
32995 
33057 
33090 
33105 
33110 
33112 
33141 
33125 
33182 
33255 
33382 
33594 
33792 
33998 
34232 
34427 
34631 
34845 
35108 
35393 
35651 
35945 
36248 
36497 
36729 
36917 
37072 
37292 
37511 
37715 
37902 
38066 
38233 
38353 
38509 
38729 
38909 
38993 
39137 
39250 
39310 
39379 
39512 
39640 
39769 
39867 
39970 
40096 
40273 
40486 
40637 
40749 
40889 
41048 
41152 
41281 
41380 
41438 
41521 
41693 
41888 
42099 
42250 
42383 
42479 
42565 
42720 
42894 
43081 
43221 
43332 
43461 
43658 
43846 
44016 
44192 
44307 
44432 
44585 
44750 
44886 
45006 
45104 
45277 
45428 
45510 
45639 
45805 
45914 
46029 
46162 
46195 
46205 
46300 
46442 
46536 
46660 
46669 
46650 
46708 
46770 
46860 
46908 
46882 
46876 
46934 
46980 
47042 
47155 
47219 
47313 
47340 
47301 
47283 
47260 
47224 
47190 
47185 
47178 
47177 
47207 
47264 
47297 
47241 
47209 
47185 
47159 
47137 
47154 
47160 
47145 
47104 
47150 
47198 
47195 
47125 
47114 
47100 
47082 
47045 
47021 
47005 
46955 
46910 
46877 
46837 
46826 
46808 
46747 
46669 
46659 
46662 
46604 
46607 
46619 
46549 
46498 
46474 
46469 
46462 
46462 
46397 
46311 
46280 
46268 
46118 
45874 
45605 
45299 
44874 
44398 
43855 
43266 
42628 
41923 
41220 
40523 
39834 
39154 
38435 
37719 
37104 
36537 
35993 
35542 
35114 
34756 
34440 
34153 
33925 
33723 
33570 
33436 
33284 
33160 
33096 
33084 
33089 
33082 
33171 
33219 
33300 
33430 
33535 
33628 
33763 
33901 
34025 
34139 
34225 
34250 
34292 
34340 
34468 
34574 
34666 
34767 
34886 
35014 
35151 
35290 
35460 
35594 
35725 
35864 
36043 
36245 
36492 
36781 
37008 
37178 
37324 
37493 
37680 
37811 
37925 
38059 
38215 
38333 
38434 
38537 
38632 
38700 
38825 
38944 
39026 
39186 
39287 
39325 
39459 
39616 
39753 
39851 
39957 
40064 
40194 
40298 
40442 
40543 
40616 
40752 
40957 
41088 
41190 
41308 
41385 
41582 
41759 
41894 
42062 
42276 
42452 
42556 
42641 
42760 
42956 
43065 
43179 
43308 
43397 
43518 
43640 
43768 
43927 
44038 
44102 
44153 
44240 
44365 
44525 
44639 
44768 
44896 
44945 
44971 
45085 
45162 
45165 
45224 
45286 
45337 
45414 
45464 
45530 
45551 
45605 
45683 
45720 
45710 
45685 
45677 
45649 
45677 
45730 
45717 
45732 
45784 
45832 
45847 
45853 
45891 
45896 
45910 
45899 
45899 
45917 
45892 
45859 
45824 
45768 
45766 
45786 
45804 
45752 
45752 
45825 
45780 
45704 
45664 
45636 
45610 
45571 
45567 
45607 
45625 
45600 
45616 
45646 
45648 
45646 
45699 
45711 
45658 
45612 
45559 
45557 
45543 
45502 
45430 
45306 
45139 
44919 
44609 
44236 
43728 
43144 
42607 
42008 
41350 
40652 
39999 
39395 
38768 
38109 
37464 
36862 
36341 
35819 
35368 
34925 
34526 
34159 
33852 
33593 
33369 
33204 
33098 
33051 
32990 
32925 
32901 
32912 
32888 
32904 
32966 
33081 
33170 
33247 
33288 
33377 
33467 
33556 
33651 
33760 
33805 
33882 
33953 
33998 
34086 
34186 
34257 
34321 
34426 
34560 
34654 
34769 
34966 
35146 
35284 
35474 
35707 
35925 
36121 
36347 
36573 
36776 
37000 
37176 
37431 
37664 
37865 
38056 
38288 
38504 
38711 
38878 
39028 
39088 
39238 
39353 
39408 
39449 
39542 
39645 
39753 
39862 
39987 
40135 
40245 
40343 
40471 
40624 
40772 
40876 
40969 
41110 
41229 
41395 
41556 
41742 
41942 
42056 
42182 
42263 
42335 
42468 
42636 
42805 
42939 
43056 
43182 
43271 
43355 
43474 
43606 
43731 
43828 
43965 
44141 
44234 
44316 
44400 
44510 
44698 
44845 
44900 
44967 
45024 
45127 
45257 
45367 
45396 
45410 
45445 
45549 
45620 
45674 
45775 
45833 
45879 
45849 
45828 
45889 
45917 
45913 
46004 
46026 
46000 
46006 
46065 
46123 
46135 
46148 
46135 
46137 
46128 
46147 
46213 
46162 
46161 
46225 
46257 
46228 
46209 
46162 
46099 
46095 
46116 
46101 
46067 
46056 
46087 
46113 
46129 
46072 
45987 
45983 
46010 
46017 
46036 
46020 
46023 
46036 
46030 
45984 
45960 
45951 
45994 
46045 
46005 
45950 
45960 
45925 
45890 
45865 
45844 
45804 
45729 
45651 
45617 
45640 
45663 
45650 
45524 
45449 
45442 
45476 
45487 
45451 
45400 
45386 
45336 
45277 
45268 
45176 
45073 
44950 
44771 
44472 
44075 
43619 
43088 
42485 
41836 
41116 
40391 
39653 
38917 
38165 
37430 
36704 
36004 
35388 
34826 
34302 
33859 
33398 
32959 
32609 
32303 
32046 
31797 
31605 
31455 
31320 
31235 
31199 
31224 
31297 
31288 
31259 
31277 
31337 
31381 
31376 
31401 
31449 
31504 
31523 
31583 
31588 
31605 
31675 
31720 
31680 
31677 
31723 
31757 
31802 
31886 
32042 
32209 
32306 
32369 
32414 
32516 
32686 
32874 
33096 
33365 
33623 
33877 
34146 
34394 
34556 
34761 
35020 
35269 
35437 
35637 
35834 
36043 
36280 
36504 
36702 
36889 
37052 
37174 
37317 
37504 
37748 
37986 
38110 
38209 
38305 
38422 
38581 
38748 
38916 
39093 
39240 
39367 
39498 
39631 
39793 
39973 
40100 
40208 
40422 
40614 
40712 
40814 
40913 
41033 
41216 
41406 
41611 
41781 
41951 
42121 
42250 
42376 
42490 
42596 
42753 
42948 
43075 
43190 
43266 
43348 
43482 
43623 
43782 
43929 
43996 
44036 
44106 
44225 
44314 
44353 
44453 
44581 
44671 
44800 
44884 
44959 
45009 
45036 
45067 
45109 
45180 
45234 
45315 
45395 
45405 
45434 
45436 
45436 
45477 
45480 
45464 
45503 
45546 
45560 
45576 
45596 
45687 
45677 
45697 
45701 
45699 
45735 
45778 
45771 
45768 
45765 
45788 
45761 
45713 
45713 
45773 
45789 
45797 
45806 
45774 
45761 
45796 
45830 
45808 
45773 
45731 
45727 
45727 
45701 
45713 
45693 
45632 
45602 
45616 
45610 
45565 
45546 
45534 
45481 
45518 
45578 
45566 
45536 
45512 
45432 
45371 
45325 
45256 
45186 
45157 
45170 
45178 
45153 
45079 
45066 
45087 
45045 
44953 
44901 
44900 
44808 
44737 
44616 
44469 
44388 
44307 
44286 
44208 
44125 
44113 
44049 
43954 
43823 
43770 
43702 
43649 
43566 
43473 
43401 
43376 
43349 
43296 
43233 
43173 
43112 
43039 
42989 
42904 
42794 
42678 
42530 
42318 
41995 
41609 
41150 
40661 
40098 
39484 
38812 
38056 
37389 
36709 
36020 
35341 
34629 
33947 
33331 
32752 
32211 
31730 
31307 
30849 
30445 
30120 
29882 
29746 
29626 
29510 
29347 
29241 
29207 
29140 
29163 
29220 
29252 
29253 
29334 
29451 
29550 
29726 
29874 
29917 
29937 
29984 
30046 
30170 
30276 
30383 
30449 
30439 
30452 
30497 
30639 
30759 
30808 
30899 
31020 
31141 
31263 
31412 
31583 
31753 
31958 
32145 
32344 
32524 
32737 
33019 
33226 
33468 
33746 
33952 
34169 
34417 
34635 
34841 
35046 
35229 
35451 
35681 
35886 
35994 
36115 
36268 
36397 
36474 
36617 
36791 
36924 
37002 
37149 
37291 
37417 
37569 
37751 
37922 
38062 
38223 
38368 
38478 
38652 
38873 
39107 
39353 
39530 
39605 
39740 
39942 
40129 
40320 
40477 
40601 
40777 
41014 
41199 
41351 
41476 
41637 
41758 
41922 
42010 
42107 
42188 
42315 
42428 
42587 
42736 
42857 
42963 
43069 
43177 
43325 
43427 
43562 
43662 
43724 
43757 
43876 
44056 
44182 
44286 
44408 
44443 
44434 
44481 
44590 
44626 
44710 
44757 
44760 
44783 
44833 
44903 
44958 
44971 
44988 
45072 
45100 
45129 
45158 
45173 
45200 
45245 
45362 
45411 
45432 
45489 
45494 
45495 
45464 
45464 
45479 
45448 
45419 
45417 
45484 
45548 
45580 
45638 
45677 
45720 
45743 
45712 
45681 
45675 
45687 
45749 
45755 
45766 
45696 
45729 
45751 
45747 
45749 
45708 
45664 
45614 
45570 
45532 
45554 
45587 
45557 
45518 
45511 
45534 
45525 
45457 
45386 
45351 
45374 
45363 
45394 
45442 
45478 
45494 
45467 
45422 
45421 
45429 
45455 
45547 
45545 
45496 
45471 
45415 
45334 
45219 
45054 
44846 
44575 
44223 
43772 
43311 
42844 
42372 
41819 
41182 
40548 
39970 
39396 
38761 
38170 
37594 
37026 
36511 
36020 
35647 
35319 
34986 
34714 
34474 
34283 
34130 
33911 
33808 
33746 
33710 
33722 
33779 
33773 
33752 
33818 
33929 
33990 
34079 
34196 
34278 
34412 
34560 
34713 
34790 
34892 
35024 
35113 
35174 
35240 
35269 
35290 
35339 
35382 
35426 
35549 
35719 
35890 
36057 
36260 
36409 
36552 
36719 
36875 
37024 
37176 
37349 
37571 
37724 
37826 
37954 
38109 
38263 
38381 
38420 
38477 
38533 
38649 
38762 
38899 
38968 
38979 
38987 
39056 
39096 
39081 
39091 
39136 
39199 
39281 
39289 
39285 
39288 
39274 
39304 
39447 
39512 
39541 
39570 
39644 
39767 
39911 
40015 
40166 
40277 
40354 
40454 
40574 
40662 
40737 
40931 
41099 
41261 
41415 
41540 
41672 
41811 
41985 
42147 
42218 
42280 
42385 
42438 
42553 
42671 
42733 
42834 
42930 
42970 
43005 
43100 
43178 
43211 
43256 
43359 
43467 
43571 
43665 
43731 
43748 
43790 
43836 
43837 
43893 
43958 
43999 
44032 
44016 
43986 
44003 
44055 
44054 
44087 
44099 
44074 
44070 
44063 
44071 
44122 
44152 
44210 
44284 
44338 
44358 
44338 
44298 
44306 
44371 
44387 
44361 
44354 
44318 
44293 
44278 
44221 
44202 
44239 
44251 
44228 
44189 
44191 
44179 
44173 
44164 
44080 
44081 
44004 
43949 
43925 
43937 
43945 
43934 
43926 
43908 
43918 
43938 
43971 
44019 
43976 
43929 
43941 
43967 
44032 
44059 
43970 
43897 
43884 
43861 
43831 
43771 
43725 
43729 
43754 
43796 
43785 
43666 
43591 
43440 
43182 
42857 
42505 
42029 
41450 
40904 
40275 
39534 
38800 
38102 
37395 
36640 
35995 
35403 
34863 
34354 
33849 
33333 
32912 
32559 
32231 
31928 
31681 
31468 
31261 
31064 
30971 
30918 
30869 
30838 
30789 
30740 
30734 
30760 
30809 
30842 
30946 
31005 
31072 
31177 
31271 
31306 
31442 
31647 
31740 
31823 
31855 
31864 
31946 
31999 
32028 
32148 
32215 
32271 
32349 
32499 
32673 
32824 
32982 
33197 
33386 
33530 
33674 
33809 
33973 
34165 
34343 
34526 
34703 
34874 
35045 
35232 
35369 
35601 
35790 
35995 
36207 
36369 
36523 
