-187500.04470348894,-187500.04470348894,-187500.04470348894,-187500.04470348894,-187500.04470348894,-187500.04470348894,-187500.04470348894,-187500.04470348894,-187500.04470348894,-187500.04470348894,-187500.04470348894,-187500.04470348894,-187500.04470348894,-187500.04470348894,-187500.04470348894,-187500.04470348894,-187500.04470348894,-187500.04470348894,-187500.04470348894,-187500.04470348894,-187500.04470348894,-187500.04470348894,-187500.04470348894,-187500.04470348894,-187500.04470348894,-187500.04470348894,-187500.04470348894,-187500.04470348894,-187500.04470348894,-187500.04470348894,-187500.04470348894,-187500.04470348894,-187500.04470348894,-187500.04470348894,-187500.04470348894,-187500.04470348894,-187500.04470348894,-187500.04470348894,-187500.04470348894,-187500.04470348894,-187500.04470348894,-187500.04470348894,-187500.04470348894,-187500.04470348894,-187500.04470348894,-187500.04470348894,-187500.04470348894,-187500.04470348894,-187500.04470348894,-187500.04470348894,-187500.04470348894,-187500.04470348894,-187500.04470348894,-187500.04470348894,-187500.04470348894,-187500.04470348894,-187500.04470348894,-187500.04470348894,-187500.04470348894,-187500.04470348894,-187500.04470348894,-187500.04470348894,-187500.04470348894,-187500.04470348894,-187500.04470348894,-187500.04470348894,-187500.04470348894,-187500.04470348894,-187500.04470348894,-187500.04470348894,-187500.04470348894,-187500.04470348894,-187500.04470348894,-187500.04470348894,-187500.04470348894,-187500.04470348894,-187500.04470348894,-187500.04470348894,-187500.04470348894,-187500.04470348894,-187500.04470348894,-187500.04470348894,-187500.04470348894,-187500.04470348894,-187500.04470348894,-187500.04470348894,-187500.04470348894,-187500.04470348894,-187500.04470348894,-187500.04470348894,-187500.04470348894,-187500.04470348894,-187500.04470348894,-187500.04470348894,-187500.04470348894,-187500.04470348894,-187500.04470348894,-187500.04470348894,-187500.04470348894,-187500.04470348894,-187500.04470348894,-187500.04470348894,-187500.04470348894,-187500.04470348894,-187500.04470348894,-187500.04470348894,-187500.04470348894,-187500.04470348894,-187500.04470348894,-187500.04470348894,-187500.04470348894,-187500.04470348894,-187500.04470348894,-187500.04470348894,-187500.04470348894,-187500.04470348894,-187500.04470348894,-187500.04470348894,-187500.04470348894,-187500.04470348894,-187500.04470348894,-187500.04470348894,-187500.04470348894,-187500.04470348894,-187500.04470348894,-187500.04470348894,-187500.04470348894,-187500.04470348894,-187500.04470348894,-187500.04470348894,-187500.04470348894,-187500.04470348894,-187500.04470348894,-187500.04470348894,-187500.04470348894,-187500.04470348894,-187500.04470348894,-187500.04470348894,-187500.04470348894,-187500.04470348894,-187500.04470348894,-187500.04470348894,-187500.04470348894,-187500.04470348894,-187500.04470348894,-187500.04470348894,-187500.04470348894,-187500.04470348894,-187500.04470348894,-187500.04470348894,-187500.04470348894,-187500.04470348894,-187500.04470348894,-187500.04470348894,-187500.04470348894,-187500.04470348894,-187500.04470348894,-187500.04470348894,-187500.04470348894,-187500.04470348894,-187500.04470348894,-187500.04470348894,-187500.04470348894,-187500.04470348894,-187500.04470348894,-187500.04470348894,-187500.04470348894,-187500.04470348894,-187500.04470348894,-187500.04470348894,-187500.04470348894,-187500.04470348894,-187500.04470348894,-187500.04470348894,-187500.04470348894,-187500.04470348894,-187500.04470348894,-187500.04470348894,-187500.04470348894,-187500.04470348894,-187500.04470348894,-187500.04470348894,-187500.04470348894,-187500.04470348894,-187500.04470348894,-187500.04470348894,-187500.04470348894,-187500.04470348894,-187500.04470348894,-187500.04470348894,-187500.04470348894,-187500.04470348894,-187500.04470348894,-187500.04470348894,-187500.04470348894,-187500.04470348894,-187500.04470348894,-187500.04470348894,-187500.04470348894,-187500.04470348894,-187500.04470348894,-187500.04470348894,-187500.04470348894,-187500.04470348894,-187500.04470348894,-187500.04470348894,-187500.04470348894,-187500.04470348894,-187500.04470348894,-187500.04470348894,-187500.04470348894,-187500.04470348894,-187500.04470348894,-187500.04470348894,-187500.04470348894,-187500.04470348894,-187500.04470348894,-187500.04470348894,-187500.04470348894,-187500.04470348894,-187500.04470348894,-187500.04470348894,-187500.04470348894,-187500.04470348894,-187500.04470348894,-187500.04470348894,-187500.04470348894,-187500.04470348894,-187500.04470348894,-187500.04470348894,-187500.04470348894,-187500.04470348894,-187500.04470348894,-187500.04470348894,-187500.04470348894,-187500.04470348894,-187500.04470348894,-187500.04470348894,-187500.04470348894,-187500.04470348894,-187500.04470348894,-187500.04470348894,-187500.04470348894,-187500.04470348894,-187500.04470348894,-187500.04470348894,-187500.04470348894,-187500.04470348894,-187500.04470348894,-187500.04470348894,-187500.04470348894,-187500.04470348894,-187500.04470348894,-187500.04470348894,-187500.04470348894,-187500.04470348894,-187500.04470348894,-187500.04470348894,-187500.04470348894,-187500.04470348894,-187500.04470348894,-187500.04470348894,-187500.04470348894,-187500.04470348894,-187500.04470348894,-187500.04470348894,-187500.04470348894,-187500.04470348894,-187500.04470348894,-187500.04470348894,-187500.04470348894,-187500.04470348894,-187500.04470348894,-187500.04470348894,-187500.04470348894,-187500.04470348894,-187500.04470348894,-187500.04470348894,-187500.04470348894,-187500.04470348894,-187500.04470348894,-187500.04470348894,-187500.04470348894,-187500.04470348894,-187500.04470348894,-187500.04470348894,-187500.04470348894,-187500.04470348894,-187500.04470348894,-187500.04470348894,-187500.04470348894,-187500.04470348894,-187500.04470348894,-187500.04470348894,-187500.04470348894,-187500.04470348894,-187500.04470348894,-187500.04470348894,-187500.04470348894,-187500.04470348894,-187500.04470348894,-187500.04470348894,-187500.04470348894,-187500.04470348894,-187500.04470348894,-187500.04470348894,-187500.04470348894,-187500.04470348894,-187500.04470348894,-187500.04470348894,-187500.04470348894,-187500.04470348894,-187500.04470348894,-187500.04470348894,-187500.04470348894,-187500.04470348894,-187500.04470348894,-187500.04470348894,-187500.04470348894,-187500.04470348894,-187500.04470348894,-187500.04470348894,-187500.04470348894,-187500.04470348894,-187500.04470348894,-187500.04470348894,-187500.04470348894,-187500.04470348894,-187500.04470348894,-187500.04470348894,-187500.04470348894,-187500.04470348894,-187500.04470348894,-187500.04470348894,-187500.04470348894,-187500.04470348894,-187500.04470348894,-187500.04470348894,-187500.04470348894,-187500.04470348894,-187500.04470348894,-187500.04470348894,-187500.04470348894,-187500.04470348894,-187500.04470348894,-187500.04470348894,-187500.04470348894,-187500.04470348894,-187500.04470348894,-187500.04470348894,-187500.04470348894,-187500.04470348894,-187500.04470348894,-187500.04470348894,-187500.04470348894,-187500.04470348894,-187500.04470348894,-187500.04470348894,-187500.04470348894,-187500.04470348894,-187500.04470348894,-187500.04470348894,-187500.04470348894,-187500.04470348894,-187500.04470348894,-187500.04470348894,-187500.04470348894,-187500.04470348894,-187500.04470348894,-187500.04470348894,-187500.04470348894,-187500.04470348894,-187500.04470348894,-187500.04470348894,-187500.04470348894,-187500.04470348894,-187500.04470348894,-187500.04470348894,-187500.04470348894,-187500.04470348894,-187500.04470348894,-187500.04470348894,-187500.04470348894,-187500.04470348894,-187500.04470348894,-187500.04470348894,-187500.04470348894,-187500.04470348894,-187500.04470348894,-187500.04470348894,-187500.04470348894,-187500.04470348894,-187500.04470348894,-187500.04470348894,-187500.04470348894,-187500.04470348894,-187500.04470348894,-187500.04470348894,-187500.04470348894,-187500.04470348894,-187500.04470348894,-187500.04470348894,-187500.04470348894,-187500.04470348894,-187500.04470348894,-187500.04470348894,-187500.04470348894,-187500.04470348894,-187500.04470348894,-187500.04470348894,-187500.04470348894,-187500.04470348894,-187500.04470348894,-187500.04470348894,-187500.04470348894,-187500.04470348894,-187500.04470348894,-187500.04470348894,-187500.04470348894,-187500.04470348894,-187500.04470348894,-187500.04470348894,-187500.04470348894,-187500.04470348894,-187500.04470348894,-187500.04470348894,-187500.04470348894,-187500.04470348894,-187500.04470348894,-187500.04470348894,-187500.04470348894,-187500.04470348894,-187500.04470348894,-187500.04470348894,-187500.04470348894,-187500.04470348894,-187500.04470348894,-187500.04470348894,-187500.04470348894,-187500.04470348894,-187500.04470348894,-187500.04470348894,-187500.04470348894,-187500.04470348894,-187500.04470348894,-187500.04470348894,-187500.04470348894,-187500.04470348894,-187500.04470348894,-187500.04470348894,-187500.04470348894,-187500.04470348894,-187500.04470348894,-187500.04470348894,-187500.04470348894,-187500.04470348894,-187500.04470348894,-187500.04470348894,-187500.04470348894,-187500.04470348894,-187500.04470348894,-187500.04470348894,-187500.04470348894,-187500.04470348894,-187500.04470348894,-187500.04470348894,-187500.04470348894,-187500.04470348894,-187500.04470348894,-187500.04470348894,-187500.04470348894,-187500.04470348894,-187500.04470348894,-187500.04470348894,-187500.04470348894,-187500.04470348894,-187500.04470348894,-187500.04470348894,-187500.04470348894,-187500.04470348894,-187500.04470348894,-187500.04470348894,-187500.04470348894,-187500.04470348894,-187500.04470348894,-187500.04470348894,-187500.04470348894,-187500.04470348894,-187500.04470348894,-187500.04470348894,-187500.04470348894,-187500.04470348894,-187500.04470348894,-187500.04470348894,-187500.04470348894,-187500.04470348894,-187500.04470348894,-187500.04470348894,-187500.04470348894,-187500.04470348894,-187500.04470348894,-187500.04470348894,-187500.04470348894,-187500.04470348894,-187500.04470348894,-187500.04470348894,-187500.04470348894,-187500.04470348894,-187500.04470348894,-187500.04470348894,-187500.04470348894,-187500.04470348894,-187500.04470348894,-187500.04470348894,-187500.04470348894,-187500.04470348894,-187500.04470348894,-187500.04470348894,-187500.04470348894,-187500.04470348894,-187500.04470348894,-187500.04470348894,-187500.04470348894,-187500.04470348894,-187500.04470348894,-187500.04470348894,-187500.04470348894,-187500.04470348894,-187500.04470348894,-187500.04470348894,-187500.04470348894,-187500.04470348894,-187500.04470348894,-187500.04470348894,-187500.04470348894,-187500.04470348894,-187500.04470348894,-187500.04470348894,-187500.04470348894,-187500.04470348894,-187500.04470348894,-187500.04470348894,-187500.04470348894,-187500.04470348894,-187500.04470348894,-187500.04470348894,-187500.04470348894,-187500.04470348894,-187500.04470348894,-187500.04470348894,-187500.04470348894,-187500.04470348894,-187500.04470348894,-187500.04470348894,-187500.04470348894,-187500.04470348894,-187500.04470348894,-187500.04470348894,-187500.04470348894,-187500.04470348894,-187500.04470348894,-187500.04470348894,-187500.04470348894,-187500.04470348894,-187500.04470348894,-187500.04470348894,-187500.04470348894,-187500.04470348894,-187500.04470348894,-187500.04470348894,-187500.04470348894,-187500.04470348894,-187500.04470348894,-187500.04470348894,-187500.04470348894,-187500.04470348894,-187500.04470348894,-187500.04470348894,-187500.04470348894,-187500.04470348894,-187500.04470348894,-187500.04470348894,-187500.04470348894,-187500.04470348894,-187500.04470348894,-187500.04470348894,-187500.04470348894,-187500.04470348894,-187500.04470348894,-187500.04470348894,-187500.04470348894,-187500.04470348894,-187500.04470348894,-187500.04470348894,-187500.04470348894,-187500.04470348894,-187500.04470348894,-187500.04470348894,-187500.04470348894,-187500.04470348894,-187500.04470348894,-187500.04470348894,-187500.04470348894,-187500.04470348894,-187500.04470348894,-187500.04470348894,-187500.04470348894,-187500.04470348894,-187500.04470348894,-187500.04470348894,-187500.04470348894,-187500.04470348894,-187500.04470348894,-187500.04470348894,-187500.04470348894,-187500.04470348894,-187500.04470348894,-187500.04470348894,-187500.04470348894,-187500.04470348894,-187500.04470348894,-187500.04470348894,-187500.04470348894,-187500.04470348894,-187500.04470348894,-187500.04470348894,-187500.04470348894,-187500.04470348894,-187500.04470348894,-187500.04470348894,-187500.04470348894,-187500.04470348894,-187500.04470348894,-187500.04470348894,-187500.04470348894,-187500.04470348894,-187500.04470348894,-187500.04470348894,-187500.04470348894,-187500.04470348894,-187500.04470348894,-187500.04470348894,-187500.04470348894,-187500.04470348894,-187500.04470348894,-187500.04470348894,-187500.04470348894,-187500.04470348894,-187500.04470348894,-187500.04470348894,-187500.04470348894,-187500.04470348894,-187500.04470348894,-187500.04470348894,-187500.04470348894,-187500.04470348894,-187500.04470348894,-187500.04470348894,-187500.04470348894,-187500.04470348894,-187500.04470348894,-187500.04470348894,-187500.04470348894,-187500.04470348894,-187500.04470348894,-187500.04470348894,-187500.04470348894,-187500.04470348894,-187500.04470348894,-187500.04470348894,-187500.04470348894,-187500.04470348894,-187500.04470348894,-187500.04470348894,-187500.04470348894,-187500.04470348894,-187500.04470348894,-187500.04470348894,-187500.04470348894,-187500.04470348894,-187500.04470348894,-187500.04470348894,-187500.04470348894,-187500.04470348894,-187500.04470348894,-187500.04470348894,-187500.04470348894,-187500.04470348894,-187500.04470348894,-187500.04470348894,-187500.04470348894,-187500.04470348894,-187500.04470348894,-187500.04470348894,-187500.04470348894,-187500.04470348894,-187500.04470348894,-187500.04470348894,-187500.04470348894,-187500.04470348894,-187500.04470348894,-187500.04470348894,-187500.04470348894,-187500.04470348894,-187500.04470348894,-187500.04470348894,-187500.04470348894,-187500.04470348894,-187500.04470348894,-187500.04470348894,-187500.04470348894,-187500.04470348894,-187500.04470348894,-187500.04470348894,-187500.04470348894,-187500.04470348894,-187500.04470348894,-187500.04470348894,-187500.04470348894,-187500.04470348894,-187500.04470348894,-187500.04470348894,-187500.04470348894,-187500.04470348894,-187500.04470348894,-187500.04470348894,-187500.04470348894,-187500.04470348894,-187500.04470348894,-187500.04470348894,-187500.04470348894,-187500.04470348894,-187500.04470348894,-187500.04470348894,-187500.04470348894,-187500.04470348894,-187500.04470348894,-187500.04470348894,-187500.04470348894,-187500.04470348894,-187500.04470348894,-187500.04470348894,-187500.04470348894,-187500.04470348894,-187500.04470348894,-187500.04470348894,-187500.04470348894,-187500.04470348894,-187500.04470348894,-187500.04470348894,-187500.04470348894,-187500.04470348894,-187500.04470348894,-187500.04470348894,-187500.04470348894,-187500.04470348894,-187500.04470348894,-187500.04470348894,-187500.04470348894,-187500.04470348894,-187500.04470348894,-187500.04470348894,-187500.04470348894,-187500.04470348894,-187500.04470348894,-187500.04470348894,-187500.04470348894,-187500.04470348894,-187500.04470348894,-187500.04470348894,-187500.04470348894,-187500.04470348894,-187500.04470348894,-187500.04470348894,-187500.04470348894,-187500.04470348894,-187500.04470348894,-187500.04470348894,-187500.04470348894,-187500.04470348894,-187500.04470348894,-187500.04470348894,-187500.04470348894,-187500.04470348894,-187500.04470348894,-187500.04470348894,-187500.04470348894,-187500.04470348894,-187500.04470348894,-187500.04470348894,-187500.04470348894,-187500.04470348894,-187500.04470348894,-187500.04470348894,-187500.04470348894,-187500.04470348894,-187500.04470348894,-187500.04470348894,-187500.04470348894,-187500.04470348894,-187500.04470348894,-187500.04470348894,-187500.04470348894,-187500.04470348894,-187500.04470348894,-187500.04470348894,-187500.04470348894,-187500.04470348894,-187500.04470348894,-187500.04470348894,-187500.04470348894,-187500.04470348894,-187500.04470348894,-187500.04470348894,-187500.04470348894,-187500.04470348894,-187500.04470348894,-187500.04470348894,-187500.04470348894,-187500.04470348894,-187500.04470348894,-187500.04470348894,-187500.04470348894,-187500.04470348894,-187500.04470348894,-187500.04470348894,-187500.04470348894,-187500.04470348894,-187500.04470348894,-187500.04470348894,-187500.04470348894,-187500.04470348894,-187500.04470348894,-187500.04470348894,-187500.04470348894,-187500.04470348894,-187500.04470348894,-187500.04470348894,-187500.04470348894,-187500.04470348894,-187500.04470348894,-187500.04470348894,-187500.04470348894,-187500.04470348894,-187500.04470348894,-187500.04470348894,-187500.04470348894,-187500.04470348894,-187500.04470348894,-187500.04470348894,-187500.04470348894,-187500.04470348894,-187500.04470348894,-187500.04470348894,-187500.04470348894,-187500.04470348894,-187500.04470348894,-187500.04470348894,-187500.04470348894,-187500.04470348894,-187500.04470348894,-187500.04470348894,-187500.04470348894,-187500.04470348894,-187500.04470348894,-187500.04470348894,-187500.04470348894,-187500.04470348894,-187500.04470348894,-187500.04470348894,-187500.04470348894,-187500.04470348894,-187500.04470348894,-187500.04470348894,-187500.04470348894,-187500.04470348894,-187500.04470348894,-187500.04470348894,-187500.04470348894,-187500.04470348894,-187500.04470348894,-187500.04470348894,-187500.04470348894,-187500.04470348894,-187500.04470348894,-187500.04470348894,-187500.04470348894,-187500.04470348894,-187500.04470348894,-187500.04470348894,-187500.04470348894,-187500.04470348894,-187500.04470348894,-187500.04470348894,-187500.04470348894,-187500.04470348894,-187500.04470348894,-187500.04470348894,-187500.04470348894,-187500.04470348894,-187500.04470348894,-187500.04470348894,-187500.04470348894,-187500.04470348894,-187500.04470348894,-187500.04470348894,-187500.04470348894,-187500.04470348894,-187500.04470348894,-187500.04470348894,-187500.04470348894,-187500.04470348894,-187500.04470348894,-187500.04470348894,-187500.04470348894,-187500.04470348894,-187500.04470348894,-187500.04470348894,-187500.04470348894,-187500.04470348894,-187500.04470348894,-187500.04470348894,-187500.04470348894,-187500.04470348894,-187500.04470348894,-187500.04470348894,-187500.04470348894,-187500.04470348894,-187500.04470348894,-187500.04470348894,-187500.04470348894,-187500.04470348894,-187500.04470348894,-187500.04470348894,-187500.04470348894,-187500.04470348894,-187500.04470348894,-187500.04470348894,-187500.04470348894,-187500.04470348894,-187500.04470348894,-187500.04470348894,-187500.04470348894,-187500.04470348894,-187500.04470348894,-187500.04470348894,-187500.04470348894,-187500.04470348894,-187500.04470348894,-187500.04470348894,-187500.04470348894,-187500.04470348894,-187500.04470348894,-187500.04470348894,-187500.04470348894,-187500.04470348894,-187500.04470348894,-187500.04470348894,-187500.04470348894,-187500.04470348894,-187500.04470348894,-187500.04470348894,-187500.04470348894,-187500.04470348894,-187500.04470348894,-187500.04470348894,-187500.04470348894,-187500.04470348894,-187500.04470348894,-187500.04470348894,-187500.04470348894,-187500.04470348894,-187500.04470348894,-187500.04470348894,-187500.04470348894,-187500.04470348894,-187500.04470348894,-187500.04470348894,-187500.04470348894,-187500.04470348894,-187500.04470348894,-187500.04470348894,-187500.04470348894,-187500.04470348894,-187500.04470348894,-187500.04470348894,-187500.04470348894,-187500.04470348894,-187500.04470348894,-187500.04470348894,-187500.04470348894,-187500.04470348894,-187500.04470348894,-187500.04470348894,-187500.04470348894,-187500.04470348894,-187500.04470348894,-187500.04470348894,-187500.04470348894,-187500.04470348894,-187500.04470348894,-187500.04470348894,-187500.04470348894,-187500.04470348894,-187500.04470348894,-187500.04470348894,-187500.04470348894,-187500.04470348894,-187500.04470348894,-187500.04470348894,-187500.04470348894,-187500.04470348894,-187500.04470348894,-187500.04470348894,-187500.04470348894,-187500.04470348894,-187500.04470348894,-187500.04470348894,-187500.04470348894,-187500.04470348894,-187500.04470348894,-187500.04470348894,-187500.04470348894,-187500.04470348894,-187500.04470348894,-187500.04470348894,-187500.04470348894,-187500.04470348894,-187500.04470348894,-187500.04470348894,-187500.04470348894,-187500.04470348894,-187500.04470348894,-187500.04470348894,-187500.04470348894,-187500.04470348894,-187500.04470348894,-187500.04470348894,-187500.04470348894,-187500.04470348894,-187500.04470348894,-187500.04470348894,-187500.04470348894,-187500.04470348894,-187500.04470348894,-187500.04470348894,-187500.04470348894,-187500.04470348894,-187500.04470348894,-187500.04470348894,-187500.04470348894,-187500.04470348894,-187500.04470348894,-187500.04470348894,-187500.04470348894,-187500.04470348894,-187500.04470348894,-187500.04470348894,-187500.04470348894,-187500.04470348894,-187500.04470348894,-187500.04470348894,-187500.04470348894,-187500.04470348894,-187500.04470348894,-187500.04470348894,-187500.04470348894,-187500.04470348894,-187500.04470348894,-187500.04470348894,-187500.04470348894,-187500.04470348894,-187500.04470348894,-187500.04470348894,-187500.04470348894,-187500.04470348894,-187500.04470348894,-187500.04470348894,-187500.04470348894,-187500.04470348894,-187500.04470348894,-187500.04470348894,-187500.04470348894,-187500.04470348894,-187500.04470348894,-187500.04470348894,-187500.04470348894,-187500.04470348894,-187500.04470348894,-187500.04470348894,-187500.04470348894,-187500.04470348894,-187500.04470348894,-187500.04470348894,-187500.04470348894,-187500.04470348894,-187500.04470348894,-187500.04470348894,-187500.04470348894,-187500.04470348894,-187500.04470348894,-187500.04470348894,-187500.04470348894,-187500.04470348894,-187500.04470348894,-187500.04470348894,-187500.04470348894,-187500.04470348894,-187500.04470348894,-187500.04470348894,-187500.04470348894,-187500.04470348894,-187500.04470348894,-187500.04470348894,-187500.04470348894,-187500.04470348894,-187500.04470348894,-187500.04470348894,-187500.04470348894,-187500.04470348894,-187500.04470348894,-187500.04470348894,-187500.04470348894,-187500.04470348894,-187500.04470348894,-187500.04470348894,-187500.04470348894,-187500.04470348894,-187500.04470348894,-187500.04470348894,-187500.04470348894,-187500.04470348894,-187500.04470348894,-187500.04470348894,-187500.04470348894,-187500.04470348894,-187500.04470348894,-187500.04470348894,-187500.04470348894,-187500.04470348894,-187500.04470348894,-187500.04470348894,-187500.04470348894,-187500.04470348894,-187500.04470348894,-187500.04470348894,-187500.04470348894,-187500.04470348894,-187500.04470348894,-187500.04470348894,-187500.04470348894,-187500.04470348894,-187500.04470348894,-187500.04470348894,-187500.04470348894,-187500.04470348894,-187500.04470348894,-187500.04470348894,-187500.04470348894,-187500.04470348894,-187500.04470348894,-187500.04470348894,-187500.04470348894,-187500.04470348894,-187500.04470348894,-187500.04470348894,-187500.04470348894,-187500.04470348894,-187500.04470348894,-187500.04470348894,-187500.04470348894,-187500.04470348894,-187500.04470348894,-187500.04470348894,-187500.04470348894,-187500.04470348894,-187500.04470348894,-187500.04470348894,-187500.04470348894,-187500.04470348894,-187500.04470348894,-187500.04470348894,-187500.04470348894,-187500.04470348894,-187500.04470348894,-187500.04470348894,-187500.04470348894,-187500.04470348894,-187500.04470348894,-187500.04470348894,-187500.04470348894,-187500.04470348894,-187500.04470348894,-187500.04470348894,-187500.04470348894,-187500.04470348894,-187500.04470348894,-187500.04470348894,-187500.04470348894,-187500.04470348894,-187500.04470348894,-187500.04470348894,-187500.04470348894,-187500.04470348894,-187500.04470348894,-187500.04470348894,-187500.04470348894,-187500.04470348894,-187500.04470348894,-187500.04470348894,-187500.04470348894,-187500.04470348894,-187500.04470348894,-187500.04470348894,-187500.04470348894,-187500.04470348894,-187500.04470348894,-187500.04470348894,-187500.04470348894,-187500.04470348894,-187500.04470348894,-187500.04470348894,-187500.04470348894,-187500.04470348894,-187500.04470348894,-187500.04470348894,-187500.04470348894,-187500.04470348894,-187500.04470348894,-187500.04470348894,-187500.04470348894,-187500.04470348894,-187500.04470348894,-187500.04470348894,-187500.04470348894,-187500.04470348894,-187500.04470348894,-187500.04470348894,-187500.04470348894,-187500.04470348894,-187500.04470348894,-187500.04470348894,-187500.04470348894,-187500.04470348894,-187500.04470348894,-187500.04470348894,-187500.04470348894,-187500.04470348894,-187500.04470348894,-187500.04470348894,-187500.04470348894,-187500.04470348894,-187500.04470348894,-187500.04470348894,-187500.04470348894,-187500.04470348894,-187500.04470348894,-187500.04470348894,-187500.04470348894,-187500.04470348894,-187500.04470348894,-187500.04470348894,-187500.04470348894,-187500.04470348894,-187500.04470348894,-187500.04470348894,-187500.04470348894,-187500.04470348894,-187500.04470348894,-187500.04470348894,-187500.04470348894,-187500.04470348894,-187500.04470348894,-187500.04470348894,-187500.04470348894,-187500.04470348894,-187500.04470348894,-187500.04470348894,-187500.04470348894,-187500.04470348894,-187500.04470348894,-187500.04470348894,-187500.04470348894,-187500.04470348894,-187500.04470348894,-187500.04470348894,-187500.04470348894,-187500.04470348894,-187500.04470348894,-187500.04470348894,-187500.04470348894,-187500.04470348894,-187500.04470348894,-187500.04470348894,-187500.04470348894,-187500.04470348894,-187500.04470348894,-187500.04470348894,-187500.04470348894,-187500.04470348894,-187500.04470348894,-187500.04470348894,-187500.04470348894,-187500.04470348894,-187500.04470348894,-187500.04470348894,-187500.04470348894,-187500.04470348894,-187500.04470348894,-187500.04470348894,-187500.04470348894,-187500.04470348894,-187500.04470348894,-187500.04470348894,-187500.04470348894,-187500.04470348894,-187500.04470348894,-187500.04470348894,-187500.04470348894,-187500.04470348894,-187500.04470348894,-187500.04470348894,-187500.04470348894,-187500.04470348894,-187500.04470348894,-187500.04470348894,-187500.04470348894,-187500.04470348894,-187500.04470348894,-187500.04470348894,-187500.04470348894,-187500.04470348894,-187500.04470348894,-187500.04470348894,-187500.04470348894,-187500.04470348894,-187500.04470348894,-187500.04470348894,-187500.04470348894,-187500.04470348894,-187500.04470348894,-187500.04470348894,-187500.04470348894,-187500.04470348894,-187500.04470348894,-187500.04470348894,-187500.04470348894,-187500.04470348894,-187500.04470348894,-187500.04470348894,-187500.04470348894,-187500.04470348894,-187500.04470348894,-187500.04470348894,-187500.04470348894,-187500.04470348894,-187500.04470348894,-187500.04470348894,-187500.04470348894,-187500.04470348894,-187500.04470348894,-187500.04470348894,-187500.04470348894,-187500.04470348894,-187500.04470348894,-187500.04470348894,-187500.04470348894,-187500.04470348894,-187500.04470348894,-187500.04470348894,-187500.04470348894,-187500.04470348894,-187500.04470348894,-187500.04470348894,-187500.04470348894,-187500.04470348894,-187500.04470348894,-187500.04470348894,-187500.04470348894,-187500.04470348894,-187500.04470348894,-187500.04470348894,-187500.04470348894,-187500.04470348894,-187500.04470348894,-187500.04470348894,-187500.04470348894,-187500.04470348894,-187500.04470348894,-187500.04470348894,-187500.04470348894,-187500.04470348894,-187500.04470348894,-187500.04470348894,-187500.04470348894,-187500.04470348894,-187500.04470348894,-187500.04470348894,-187500.04470348894,-187500.04470348894,-187500.04470348894,-187500.04470348894,-187500.04470348894,-187500.04470348894,-187500.04470348894,-187500.04470348894,-187500.04470348894,-187500.04470348894,-187500.04470348894,-187500.04470348894,-187500.04470348894,-187500.04470348894,-187500.04470348894,-187500.04470348894,-187500.04470348894,-187500.04470348894,-187500.04470348894,-187500.04470348894,-187500.04470348894,-187500.04470348894,-187500.04470348894,-187500.04470348894,-187500.04470348894,-187500.04470348894,-187500.04470348894,-187500.04470348894,-187500.04470348894,-187500.04470348894,-187500.04470348894,-187500.04470348894,-187500.04470348894,-187500.04470348894,-187500.04470348894,-187500.04470348894,-187500.04470348894,-187500.04470348894,-187500.04470348894,-187500.04470348894,-187500.04470348894,-187500.04470348894,-187500.04470348894,-187500.04470348894,-187500.04470348894,-187500.04470348894,-187500.04470348894,-187500.04470348894,-187500.04470348894,-187500.04470348894,-187500.04470348894,-187500.04470348894,-187500.04470348894,-187500.04470348894,-187500.04470348894,-187500.04470348894,-187500.04470348894,-187500.04470348894,-187500.04470348894,-187500.04470348894,-187500.04470348894,-187500.04470348894,-187500.04470348894,-187500.04470348894,-187500.04470348894,-187500.04470348894,-187500.04470348894,-187500.04470348894,-187500.04470348894,-187500.04470348894,-187500.04470348894,-187500.04470348894,-187500.04470348894,-187500.04470348894,-187500.04470348894,-187500.04470348894,-187500.04470348894,-187500.04470348894,-187500.04470348894,-187500.04470348894,-187500.04470348894,-187500.04470348894,-187500.04470348894,-187500.04470348894,-187500.04470348894,-187500.04470348894,-187500.04470348894,-187500.04470348894,-187500.04470348894,-187500.04470348894,-187500.04470348894,-187500.04470348894,-187500.04470348894,-187500.04470348894,-187500.04470348894,-187500.04470348894,-187500.04470348894,-187500.04470348894,-187500.04470348894,-187500.04470348894,-187500.04470348894,-187500.04470348894,-187500.04470348894,-187500.04470348894,-187500.04470348894,-187500.04470348894,-187500.04470348894,-187500.04470348894,-187500.04470348894,-187500.04470348894,-187500.04470348894,-187500.04470348894,-187500.04470348894,-187500.04470348894,-187500.04470348894,-187500.04470348894,-187500.04470348894,-187500.04470348894,-187500.04470348894,-187500.04470348894,-187500.04470348894,-187500.04470348894,-187500.04470348894,-187500.04470348894,-187500.04470348894,-187500.04470348894,-187500.04470348894,-187500.04470348894,-187500.04470348894,-187500.04470348894,-187500.04470348894,-187500.04470348894,-187500.04470348894,-187500.04470348894,-187500.04470348894,-187500.04470348894,-187500.04470348894,-187500.04470348894,-187500.04470348894,-187500.04470348894,-187500.04470348894,-187500.04470348894,-187500.04470348894,-187500.04470348894,-187500.04470348894,-187500.04470348894,-187500.04470348894,-187500.04470348894,-187500.04470348894,-187500.04470348894,-187500.04470348894,-187500.04470348894,-187500.04470348894,-187500.04470348894,-187500.04470348894,-187500.04470348894,-187500.04470348894,-187500.04470348894,-187500.04470348894,-187500.04470348894,-187500.04470348894,-187500.04470348894,-187500.04470348894,-187500.04470348894,-187500.04470348894,-187500.04470348894,-187500.04470348894,-187500.04470348894,-187500.04470348894,-187500.04470348894,-187500.04470348894,-187500.04470348894,-187500.04470348894,-187500.04470348894,-187500.04470348894,-187500.04470348894,-187500.04470348894,-187500.04470348894,-187500.04470348894,-187500.04470348894,-187500.04470348894,-187500.04470348894,-187500.04470348894,-187500.04470348894,-187500.04470348894,-187500.04470348894,-187500.04470348894,-187500.04470348894,-187500.04470348894,-187500.04470348894,-187500.04470348894,-187500.04470348894,-187500.04470348894,-187500.04470348894,-187500.04470348894,-187500.04470348894,-187500.04470348894,-187500.04470348894,-187500.04470348894,-187500.04470348894,-187500.04470348894,-187500.04470348894,-187500.04470348894,-187500.04470348894,-187500.04470348894,-187500.04470348894,-187500.04470348894,-187500.04470348894,-187500.04470348894,-187500.04470348894,-187500.04470348894,-187500.04470348894,-187500.04470348894,-187500.04470348894,-187500.04470348894,-187500.04470348894,-187500.04470348894,-187500.04470348894,-187500.04470348894,-187500.04470348894,-187500.04470348894,-187500.04470348894,-187500.04470348894,-187500.04470348894,-187500.04470348894,-187500.04470348894,-187500.04470348894,-187500.04470348894,-187500.04470348894,-187500.04470348894,-187500.04470348894,-187500.04470348894,-187500.04470348894,-187500.04470348894,-187500.04470348894,-187500.04470348894,-187500.04470348894,-187500.04470348894,-187500.04470348894,-187500.04470348894,-187500.04470348894,-187500.04470348894,-187500.04470348894,-187500.04470348894,-187500.04470348894,-187500.04470348894,-187500.04470348894,-187500.04470348894,-187500.04470348894,-187500.04470348894,-187500.04470348894,-187500.04470348894,-187500.04470348894,-187500.04470348894,-187500.04470348894,-187500.04470348894,-187500.04470348894,-187500.04470348894,-187500.04470348894,-187500.04470348894,-187500.04470348894,-187500.04470348894,-187500.04470348894,-187500.04470348894,-187500.04470348894,-187500.04470348894,-187500.04470348894,-187500.04470348894,-187500.04470348894,-187500.04470348894,-187500.04470348894,-187500.04470348894,-187500.04470348894,-187500.04470348894,-187500.04470348894,-187500.04470348894,-187500.04470348894,-187500.04470348894,-187500.04470348894,-187500.04470348894,-187500.04470348894,-187500.04470348894,-187500.04470348894,-187500.04470348894,-187500.04470348894,-187500.04470348894,-187500.04470348894,-187500.04470348894,-187500.04470348894,-187500.04470348894,-187500.04470348894,-187500.04470348894,-187500.04470348894,-187500.04470348894,-187500.04470348894,-187500.04470348894,-187500.04470348894,-187500.04470348894,-187500.04470348894,-187500.04470348894,-187500.04470348894,-187500.04470348894,-187500.04470348894,-187500.04470348894,-187500.04470348894,-187500.04470348894,-187500.04470348894,-187500.04470348894,-187500.04470348894,-187500.04470348894,-187500.04470348894,-187500.04470348894,-187500.04470348894,-187500.04470348894,-187500.04470348894,-187500.04470348894,-187500.04470348894,-187500.04470348894,-187500.04470348894,-187500.04470348894,-187500.04470348894,-187500.04470348894,-187500.04470348894,-187500.04470348894,-187500.04470348894,-187500.04470348894,-187500.04470348894,-187500.04470348894,-187500.04470348894,-187500.04470348894,-187500.04470348894,-187500.04470348894,-187500.04470348894,-187500.04470348894,-187500.04470348894,-187500.04470348894,-187500.04470348894,-187500.04470348894,-187500.04470348894,-187500.04470348894,-187500.04470348894,-187500.04470348894,-187500.04470348894,-187500.04470348894,-187500.04470348894,-187500.04470348894,-187500.04470348894,-187500.04470348894,-187500.04470348894,-187500.04470348894,-187500.04470348894,-187500.04470348894,-187500.04470348894,-187500.04470348894,-187500.04470348894,-187500.04470348894,-187500.04470348894,-187500.04470348894,-187500.04470348894,-187500.04470348894,-187500.04470348894,-187500.04470348894,-187500.04470348894,-187500.04470348894,-187500.04470348894,-187500.04470348894,-187500.04470348894,-187500.04470348894,-187500.04470348894,-187500.04470348894,-187500.04470348894,-187500.04470348894,-187500.04470348894,-187500.04470348894,-187500.04470348894,-187500.04470348894,-187500.04470348894,-187500.04470348894,-187500.04470348894,-187500.04470348894,-187500.04470348894,-187500.04470348894,-187500.04470348894,-187500.04470348894,-187500.04470348894,-187500.04470348894,-187500.04470348894,-187500.04470348894,-187500.04470348894,-187500.04470348894,-187500.04470348894,-187500.04470348894,-187500.04470348894,-187500.04470348894,-187500.04470348894,-187500.04470348894,-187500.04470348894,-187500.04470348894,-187500.04470348894,-187500.04470348894,-187500.04470348894,-187500.04470348894,-187500.04470348894,-187500.04470348894,-187500.04470348894,-187500.04470348894,-187500.04470348894,-187500.04470348894,-187500.04470348894,-187500.04470348894,-187500.04470348894,-187500.04470348894,-187500.04470348894,-187500.04470348894,-187500.04470348894,-187500.04470348894,-187500.04470348894,-187500.04470348894,-187500.04470348894,-187500.04470348894,-187500.04470348894,-187500.04470348894,-187500.04470348894,-187500.04470348894,-187500.04470348894,-187500.04470348894,-187500.04470348894,-187500.04470348894,-187500.04470348894,-187500.04470348894,-187500.04470348894,-187500.04470348894,-187500.04470348894,-187500.04470348894,-187500.04470348894,-187500.04470348894,-187500.04470348894,-187500.04470348894,-187500.04470348894,-187500.04470348894,-187500.04470348894,-187500.04470348894,-187500.04470348894,-187500.04470348894,-187500.04470348894,-187500.04470348894,-187500.04470348894,-187500.04470348894,-187500.04470348894,-187500.04470348894,-187500.04470348894,-187500.04470348894,-187500.04470348894,-187500.04470348894,-187500.04470348894,-187500.04470348894,-187500.04470348894,-187500.04470348894,-187500.04470348894,-187500.04470348894,-187500.04470348894,-187500.04470348894,-187500.04470348894,-187500.04470348894,-187500.04470348894,-187500.04470348894,-187500.04470348894,-187500.04470348894,-187500.04470348894,-187500.04470348894,-187500.04470348894,-187500.04470348894,-187500.04470348894,-187500.04470348894,-187500.04470348894,-187500.04470348894,-187500.04470348894,-187500.04470348894,-187500.04470348894,-187500.04470348894,-187500.04470348894,-187500.04470348894,-187500.04470348894,-187500.04470348894,-187500.04470348894,-187500.04470348894,-187500.04470348894,-187500.04470348894,-187500.04470348894,-187500.04470348894,-187500.04470348894,-187500.04470348894,-187500.04470348894,-187500.04470348894,-187500.04470348894,-187500.04470348894,-187500.04470348894,-187500.04470348894,-187500.04470348894,-187500.04470348894,-187500.04470348894,-187500.04470348894,-187500.04470348894,-187500.04470348894,-187500.04470348894,-187500.04470348894,-187500.04470348894,-187500.04470348894,-187500.04470348894,-187500.04470348894,-187500.04470348894,-187500.04470348894,-187500.04470348894,-187500.04470348894,-187500.04470348894,-187500.04470348894,-187500.04470348894,-187500.04470348894,-187500.04470348894,-187500.04470348894,-187500.04470348894,-187500.04470348894,-187500.04470348894,-187500.04470348894,-187500.04470348894,-187500.04470348894,-187500.04470348894,-187500.04470348894,-187500.04470348894,-187500.04470348894,-187500.04470348894,-187500.04470348894,-187500.04470348894,-187500.04470348894,-187500.04470348894,-187500.04470348894,-187500.04470348894,-187500.04470348894,-187500.04470348894,-187500.04470348894,-187500.04470348894,-187500.04470348894,-187500.04470348894,-187500.04470348894,-187500.04470348894,-187500.04470348894,-187500.04470348894,-187500.04470348894,-187500.04470348894,-187500.04470348894,-187500.04470348894,-187500.04470348894,-187500.04470348894,-187500.04470348894,-187500.04470348894,-187500.04470348894,-187500.04470348894,-187500.04470348894,-187500.04470348894,-187500.04470348894,-187500.04470348894,-187500.04470348894,-187500.04470348894,-187500.04470348894,-187500.04470348894,-187500.04470348894,-187500.04470348894,-187500.04470348894,-187500.04470348894,-187500.04470348894,-187500.04470348894,-187500.04470348894,-187500.04470348894,-187500.04470348894,-187500.04470348894,-187500.04470348894,-187500.04470348894,-187500.04470348894,-187500.04470348894,-187500.04470348894,-187500.04470348894,-187500.04470348894,-187500.04470348894,-187500.04470348894,-187500.04470348894,-187500.04470348894,-187500.04470348894,-187500.04470348894,-187500.04470348894,-187500.04470348894,-187500.04470348894,-187500.04470348894,-187500.04470348894,-187500.04470348894,-187500.04470348894,-187500.04470348894,-187500.04470348894,-187500.04470348894,-187500.04470348894,-187500.04470348894,-187500.04470348894,-187500.04470348894,-187500.04470348894,-187500.04470348894,-187500.04470348894,-187500.04470348894,-187500.04470348894,-187500.04470348894,-187500.04470348894,-187500.04470348894,-187500.04470348894,-187500.04470348894,-187500.04470348894,-187500.04470348894,-187500.04470348894,-187500.04470348894,-187500.04470348894,-187500.04470348894,-187500.04470348894,-187500.04470348894,-187500.04470348894,-187500.04470348894,-187500.04470348894,-187500.04470348894,-187500.04470348894,-187500.04470348894,-187500.04470348894,-187500.04470348894,-187500.04470348894,-187500.04470348894,-187500.04470348894,-187500.04470348894,-187500.04470348894,-187500.04470348894,-187500.04470348894,-187500.04470348894,-187500.04470348894,-187500.04470348894,-187500.04470348894,-187500.04470348894,-187500.04470348894,-187500.04470348894,-187500.04470348894,-187500.04470348894,-187500.04470348894,-187500.04470348894,-187500.04470348894,-187500.04470348894,-187500.04470348894,-187500.04470348894,-187500.04470348894,-187500.04470348894,-187500.04470348894,-187500.04470348894,-187500.04470348894,-187500.04470348894,-187500.04470348894,-187500.04470348894,-187500.04470348894,-187500.04470348894,-187500.04470348894,-187500.04470348894,-187500.04470348894,-187500.04470348894,-187500.04470348894,-187500.04470348894,-187500.04470348894,-187500.04470348894,-187500.04470348894,-187500.04470348894,-187500.04470348894,-187500.04470348894,-187500.04470348894,-187500.04470348894,-187500.04470348894,-187500.04470348894,-187500.04470348894,-187500.04470348894,-187500.04470348894,-187500.04470348894,-187500.04470348894,-187500.04470348894,-187500.04470348894,-187500.04470348894,-187500.04470348894,-187500.04470348894,-187500.04470348894,-187500.04470348894,-187500.04470348894,-187500.04470348894,-187500.04470348894,-187500.04470348894,-187500.04470348894,-187500.04470348894,-187500.04470348894,-187500.04470348894,-187500.04470348894,-187500.04470348894,-187500.04470348894,-187500.04470348894,-187500.04470348894,-187500.04470348894,-187500.04470348894,-187500.04470348894,-187500.04470348894,-187500.04470348894,-187500.04470348894,-187500.04470348894,-187500.04470348894,-187500.04470348894,-187500.04470348894,-187500.04470348894,-187500.04470348894,-187500.04470348894,-187500.04470348894,-187500.04470348894,-187500.04470348894,-187500.04470348894,-187500.04470348894,-187500.04470348894,-187500.04470348894,-187500.04470348894,-187500.04470348894,-187500.04470348894,-187500.04470348894,-187500.04470348894,-187500.04470348894,-187500.04470348894,-187500.04470348894,-187500.04470348894,-187500.04470348894,-187500.04470348894,-187500.04470348894,-187500.04470348894,-187500.04470348894,-187500.04470348894,-187500.04470348894,-187500.04470348894,-187500.04470348894,-187500.04470348894,-187500.04470348894,-187500.04470348894,-187500.04470348894,-187500.04470348894,-187500.04470348894,-187500.04470348894,-187500.04470348894,-187500.04470348894,-187500.04470348894,-187500.04470348894,-187500.04470348894,-187500.04470348894,-187500.04470348894,-187500.04470348894,-187500.04470348894,-187500.04470348894,-187500.04470348894,-187500.04470348894,-187500.04470348894,-187500.04470348894,-187500.04470348894,-187500.04470348894,-187500.04470348894,-187500.04470348894,-187500.04470348894,-187500.04470348894,-187500.04470348894,-187500.04470348894,-187500.04470348894,-187500.04470348894,-187500.04470348894,-187500.04470348894,-187500.04470348894,-187500.04470348894,-187500.04470348894,-187500.04470348894,-187500.04470348894,-187500.04470348894,-187500.04470348894,-187500.04470348894,-187500.04470348894,-187500.04470348894,-187500.04470348894,-187500.04470348894,-187500.04470348894,-187500.04470348894,-187500.04470348894,-187500.04470348894,-187500.04470348894,-187500.04470348894,-187500.04470348894,-187500.04470348894,-187500.04470348894,-187500.04470348894,-187500.04470348894,-187500.04470348894,-187500.04470348894,-187500.04470348894,-187500.04470348894,-187500.04470348894,-187500.04470348894,-187500.04470348894,-187500.04470348894,-187500.04470348894,-187500.04470348894,-187500.04470348894,-187500.04470348894,-187500.04470348894,-187500.04470348894,-187500.04470348894,-187500.04470348894,-187500.04470348894,-187500.04470348894,-187500.04470348894,-187500.04470348894,-187500.04470348894,-187500.04470348894,-187500.04470348894,-187500.04470348894,-187500.04470348894,-187500.04470348894,-187500.04470348894,-187500.04470348894,-187500.04470348894,-187500.04470348894,-187500.04470348894,-187500.04470348894,-187500.04470348894,-187500.04470348894,-187500.04470348894,-187500.04470348894,-187500.04470348894,-187500.04470348894,-187500.04470348894,-187500.04470348894,-187500.04470348894,-187500.04470348894,-187500.04470348894,-187500.04470348894,-187500.04470348894,-187500.04470348894,-187500.04470348894,-187500.04470348894,-187500.04470348894,-187500.04470348894,-187500.04470348894,-187500.04470348894,-187500.04470348894,-187500.04470348894,-187500.04470348894,-187500.04470348894,-187500.04470348894,-187500.04470348894,-187500.04470348894,-187500.04470348894,-187500.04470348894,-187500.04470348894,-187500.04470348894,-187500.04470348894,-187500.04470348894,-187500.04470348894,-187500.04470348894,-187500.04470348894,-187500.04470348894,-187500.04470348894,-187500.04470348894,-187500.04470348894,-187500.04470348894,-187500.04470348894,-187500.04470348894,-187500.04470348894,-187500.04470348894,-187500.04470348894,-187500.04470348894,-187500.04470348894,-187500.04470348894,-187500.04470348894,-187500.04470348894,-187500.04470348894,-187500.04470348894,-187500.04470348894,-187500.04470348894,-187500.04470348894,-187500.04470348894,-187500.04470348894,-187500.04470348894,-187500.04470348894,-187500.04470348894,-187500.04470348894,-187500.04470348894,-187500.04470348894,-187500.04470348894,-187500.04470348894,-187500.04470348894,-187500.04470348894,-187500.04470348894,-187500.04470348894,-187500.04470348894,-187500.04470348894,-187500.04470348894,-187500.04470348894,-187500.04470348894,-187500.04470348894,-187500.04470348894,-187500.04470348894,-187500.04470348894,-187500.04470348894,-187500.04470348894,-187500.04470348894,-187500.04470348894,-187500.04470348894,-187500.04470348894,-187500.04470348894,-187500.04470348894,-187500.04470348894,-187500.04470348894,-187500.04470348894,-187500.04470348894,-187500.04470348894,-187500.04470348894,-187500.04470348894,-187500.04470348894,-187500.04470348894,-187500.04470348894,-187500.04470348894,-187500.04470348894,-187500.04470348894,-187500.04470348894,-187500.04470348894,-187500.04470348894,-187500.04470348894,-187500.04470348894,-187500.04470348894,-187500.04470348894,-187500.04470348894,-187500.04470348894,-187500.04470348894,-187500.04470348894,-187500.04470348894,-187500.04470348894,-187500.04470348894,-187500.04470348894,-187500.04470348894,-187500.04470348894,-187500.04470348894,-187500.04470348894,-187500.04470348894,-187500.04470348894,-187500.04470348894,-187500.04470348894,-187500.04470348894,-187500.04470348894,-187500.04470348894,-187500.04470348894,-187500.04470348894,-187500.04470348894,-187500.04470348894,-187500.04470348894,-187500.04470348894,-187500.04470348894,-187500.04470348894,-187500.04470348894,-187500.04470348894,-187500.04470348894,-187500.04470348894,-187500.04470348894,-187500.04470348894,-187500.04470348894,-187500.04470348894,-187500.04470348894,-187500.04470348894,-187500.04470348894,-187500.04470348894,-187500.04470348894,-187500.04470348894,-187500.04470348894,-187500.04470348894,-187500.04470348894,-187500.04470348894,-187500.04470348894,-187500.04470348894,-187500.04470348894,-187500.04470348894,-187500.04470348894,-187500.04470348894,-187500.04470348894,-187500.04470348894,-187500.04470348894,-187500.04470348894,-187500.04470348894,-187500.04470348894,-187500.04470348894,-187500.04470348894,-187500.04470348894,-187500.04470348894,-187500.04470348894,-187500.04470348894,-187500.04470348894,-187500.04470348894,-187500.04470348894,-187500.04470348894,-187500.04470348894,-187500.04470348894,-187500.04470348894,-187500.04470348894,-187500.04470348894,-187500.04470348894,-187500.04470348894,-187500.04470348894,-187500.04470348894,-187500.04470348894,-187500.04470348894,-187500.04470348894,-187500.04470348894,-187500.04470348894,-187500.04470348894,-187500.04470348894,-187500.04470348894,-187500.04470348894,-187500.04470348894,-187500.04470348894,-187500.04470348894,-187500.04470348894,-187500.04470348894,-187500.04470348894,-187500.04470348894,-187500.04470348894,-187500.04470348894,-187500.04470348894,-187500.04470348894,-187500.04470348894,-187500.04470348894,-187500.04470348894,-187500.04470348894,-187500.04470348894,-187500.04470348894,-187500.04470348894,-187500.04470348894,-187500.04470348894,-187500.04470348894,-187500.04470348894,-187500.04470348894,-187500.04470348894,-187500.04470348894,-187500.04470348894,-187500.04470348894,-187500.04470348894,-187500.04470348894,-187500.04470348894,-187500.04470348894,-187500.04470348894,-187500.04470348894,-187500.04470348894,-187500.04470348894,-187500.04470348894,-187500.04470348894,-187500.04470348894,-187500.04470348894,-187500.04470348894,-187500.04470348894,-187500.04470348894,-187500.04470348894,-187500.04470348894,-187500.04470348894,-187500.04470348894,-187500.04470348894,-187500.04470348894,-187500.04470348894,-187500.04470348894,-187500.04470348894,-187500.04470348894,-187500.04470348894,-187500.04470348894,-187500.04470348894,-187500.04470348894,-187500.04470348894,-187500.04470348894,-187500.04470348894,-187500.04470348894,-187500.04470348894,-187500.04470348894,-187500.04470348894,-187500.04470348894,-187500.04470348894,-187500.04470348894,-187500.04470348894,-187500.04470348894,-187500.04470348894,-187500.04470348894,-187500.04470348894,-187500.04470348894,-187500.04470348894,-187500.04470348894,-187500.04470348894,-187500.04470348894,-187500.04470348894,-187500.04470348894,-187500.04470348894,-187500.04470348894,-187500.04470348894,-187500.04470348894,-187500.04470348894,-187500.04470348894,-187500.04470348894,-187500.04470348894,-187500.04470348894,-187500.04470348894,-187500.04470348894,-187500.04470348894,-187500.04470348894,-187500.04470348894,-187500.04470348894,-187500.04470348894,-187500.04470348894,-187500.04470348894,-187500.04470348894,-187500.04470348894,-187500.04470348894,-187500.04470348894,-187500.04470348894,-187500.04470348894,-187500.04470348894,-187500.04470348894,-187500.04470348894,-187500.04470348894,-187500.04470348894,-187500.04470348894,-187500.04470348894,-187500.04470348894,-187500.04470348894,-187500.04470348894,-187500.04470348894,-187500.04470348894,-187500.04470348894,-187500.04470348894,-187500.04470348894,-187500.04470348894,-187500.04470348894,-187500.04470348894,-187500.04470348894,-187500.04470348894,-187500.04470348894,-187500.04470348894,-187500.04470348894,-187500.04470348894,-187500.04470348894,-187500.04470348894,-187500.04470348894,-187500.04470348894,-187500.04470348894,-187500.04470348894,-187500.04470348894,-187500.04470348894,-187500.04470348894,-187500.04470348894,-187500.04470348894,-187500.04470348894,-187500.04470348894,-187500.04470348894,-187500.04470348894,-187500.04470348894,-187500.04470348894,-187500.04470348894,-187500.04470348894,-187500.04470348894,-187500.04470348894,-187500.04470348894,-187500.04470348894,-187500.04470348894,-187500.04470348894,-187500.04470348894,-187500.04470348894,-187500.04470348894,-187500.04470348894,-187500.04470348894,-187500.04470348894,-187500.04470348894,-187500.04470348894,-187500.04470348894,-187500.04470348894,-187500.04470348894,-187500.04470348894,-187500.04470348894,-187500.04470348894,-187500.04470348894,-187500.04470348894,-187500.04470348894,-187500.04470348894,-187500.04470348894,-187500.04470348894,-187500.04470348894,-187500.04470348894,-187500.04470348894,-187500.04470348894,-187500.04470348894,-187500.04470348894,-187500.04470348894,-187500.04470348894,-187500.04470348894,-187500.04470348894,-187500.04470348894,-187500.04470348894,-187500.04470348894,-187500.04470348894,-187500.04470348894,-187500.04470348894,-187500.04470348894,-187500.04470348894,-187500.04470348894,-187500.04470348894,-187500.04470348894,-187500.04470348894,-187500.04470348894,-187500.04470348894,-187500.04470348894,-187500.04470348894,-187500.04470348894,-187500.04470348894,-187500.04470348894,-187500.04470348894,-187500.04470348894,-187500.04470348894,-187500.04470348894,-187500.04470348894,-187500.04470348894,-187500.04470348894,-187500.04470348894,-187500.04470348894,-187500.04470348894,-187500.04470348894,-187500.04470348894,-187500.04470348894,-187500.04470348894,-187500.04470348894,-187500.04470348894,-187500.04470348894,-187500.04470348894,-187500.04470348894,-187500.04470348894,-187500.04470348894,-187500.04470348894,-187500.04470348894,-187500.04470348894,-187500.04470348894,-187500.04470348894,-187500.04470348894,-187500.04470348894,-187500.04470348894,-187500.04470348894,-187500.04470348894,-187500.04470348894,-187500.04470348894,-187500.04470348894,-187500.04470348894,-187500.04470348894,-187500.04470348894,-187500.04470348894,-187500.04470348894,-187500.04470348894,-187500.04470348894,-187500.04470348894,-187500.04470348894,-187500.04470348894,-187500.04470348894,-187500.04470348894,-187500.04470348894,-187500.04470348894,-187500.04470348894,-187500.04470348894,-187500.04470348894,-187500.04470348894,-187500.04470348894,-187500.04470348894,-187500.04470348894,-187500.04470348894,-187500.04470348894,-187500.04470348894,-187500.04470348894,-187500.04470348894,-187500.04470348894,-187500.04470348894,-187500.04470348894,-187500.04470348894,-187500.04470348894,-187500.04470348894,-187500.04470348894,-187500.04470348894,-187500.04470348894,-187500.04470348894,-187500.04470348894,-187500.04470348894,-187500.04470348894,-187500.04470348894,-187500.04470348894,-187500.04470348894,-187500.04470348894,-187500.04470348894,-187500.04470348894,-187500.04470348894,-187500.04470348894,-187500.04470348894,-187500.04470348894,-187500.04470348894,-187500.04470348894,-187500.04470348894,-187500.04470348894,-187500.04470348894,-187500.04470348894,-187500.04470348894,-187500.04470348894,-187500.04470348894,-187500.04470348894,-187500.04470348894,-187500.04470348894,-187500.04470348894,-187500.04470348894,-187500.04470348894,-187500.04470348894,-187500.04470348894,-187500.04470348894,-187500.04470348894,-187500.04470348894,-187500.04470348894,-187500.04470348894,-187500.04470348894,-187500.04470348894,-187500.04470348894,-187500.04470348894,-187500.04470348894,-187500.04470348894,-187500.04470348894,-187500.04470348894,-187500.04470348894,-187500.04470348894,-187500.04470348894,-187500.04470348894,-187500.04470348894,-187500.04470348894,-187500.04470348894,-187500.04470348894,-187500.04470348894,-187500.04470348894,-187500.04470348894,-187500.04470348894,-187500.04470348894,-187500.04470348894,-187500.04470348894,-187500.04470348894,-187500.04470348894,-187500.04470348894,-187500.04470348894,-187500.04470348894,-187500.04470348894,-187500.04470348894,-187500.04470348894,-187500.04470348894,-187500.04470348894,-187500.04470348894,-187500.04470348894,-187500.04470348894,-187500.04470348894,-187500.04470348894,-187500.04470348894,-187500.04470348894,-187500.04470348894,-187500.04470348894,-187500.04470348894,-187500.04470348894,-187500.04470348894,-187500.04470348894,-187500.04470348894,-187500.04470348894,-187500.04470348894,-187500.04470348894,-187500.04470348894,-187500.04470348894,-187500.04470348894,-187500.04470348894,-187500.04470348894,-187500.04470348894,-187500.04470348894,-187500.04470348894,-187500.04470348894,-187500.04470348894,-187500.04470348894,-187500.04470348894,-187500.04470348894,-187500.04470348894,-187500.04470348894,-187500.04470348894,-187500.04470348894,-187500.04470348894,-187500.04470348894,-187500.04470348894,-187500.04470348894,-187500.04470348894,-187500.04470348894,-187500.04470348894,-187500.04470348894,-187500.04470348894,-187500.04470348894,-187500.04470348894,-187500.04470348894,-187500.04470348894,-187500.04470348894,-187500.04470348894,-187500.04470348894,-187500.04470348894,-187500.04470348894,-187500.04470348894,-187500.04470348894,-187500.04470348894,-187500.04470348894,-187500.04470348894,-187500.04470348894,-187500.04470348894,-187500.04470348894,-187500.04470348894,-187500.04470348894,-187500.04470348894,-187500.04470348894,-187500.04470348894,-187500.04470348894,-187500.04470348894,-187500.04470348894,-187500.04470348894,-187500.04470348894,-187500.04470348894,-187500.04470348894,-187500.04470348894,-187500.04470348894,-187500.04470348894,-187500.04470348894,-187500.04470348894,-187500.04470348894,-187500.04470348894,-187500.04470348894,-187500.04470348894,-187500.04470348894,-187500.04470348894,-187500.04470348894,-187500.04470348894,-187500.04470348894,-187500.04470348894,-187500.04470348894,-187500.04470348894,-187500.04470348894,-187500.04470348894,-187500.04470348894,-187500.04470348894,-187500.04470348894,-187500.04470348894,-187500.04470348894,-187500.04470348894,-187500.04470348894,-187500.04470348894,-187500.04470348894,-187500.04470348894,-187500.04470348894,-187500.04470348894,-187500.04470348894,-187500.04470348894,-187500.04470348894,-187500.04470348894,-187500.04470348894,-187500.04470348894,-187500.04470348894,-187500.04470348894,-187500.04470348894,-187500.04470348894,-187500.04470348894,-187500.04470348894,-187500.04470348894,-187500.04470348894,-187500.04470348894,-187500.04470348894,-187500.04470348894,-187500.04470348894,-187500.04470348894,-187500.04470348894,-187500.04470348894,-187500.04470348894,-187500.04470348894,-187500.04470348894,-187500.04470348894,-187500.04470348894,-187500.04470348894,-187500.04470348894,-187500.04470348894,-187500.04470348894,-187500.04470348894,-187500.04470348894,-187500.04470348894,-187500.04470348894,-187500.04470348894,-187500.04470348894,-187500.04470348894,-187500.04470348894,-187500.04470348894,-187500.04470348894,-187500.04470348894,-187500.04470348894,-187500.04470348894,-187500.04470348894,-187500.04470348894,-187500.04470348894,-187500.04470348894,-187500.04470348894,-187500.04470348894,-187500.04470348894,-187500.04470348894,-187500.04470348894,-187500.04470348894,-187500.04470348894,-187500.04470348894,-187500.04470348894,-187500.04470348894,-187500.04470348894,-187500.04470348894,-187500.04470348894,-187500.04470348894,-187500.04470348894,-187500.04470348894,-187500.04470348894,-187500.04470348894,-187500.04470348894,-187500.04470348894,-187500.04470348894,-187500.04470348894,-187500.04470348894,-187500.04470348894,-187500.04470348894,-187500.04470348894,-187500.04470348894,-187500.04470348894,-187500.04470348894,-187500.04470348894,-187500.04470348894,-187500.04470348894,-187500.04470348894,-187500.04470348894,-187500.04470348894,-187500.04470348894,-187500.04470348894,-187500.04470348894,-187500.04470348894,-187500.04470348894,-187500.04470348894,-187500.04470348894,-187500.04470348894,-187500.04470348894,-187500.04470348894,-187500.04470348894,-187500.04470348894,-187500.04470348894,-187500.04470348894,-187500.04470348894,-187500.04470348894,-187500.04470348894,-187500.04470348894,-187500.04470348894,-187500.04470348894,-187500.04470348894,-187500.04470348894,-187500.04470348894,-187500.04470348894,-187500.04470348894,-187500.04470348894,-187500.04470348894,-187500.04470348894,-187500.04470348894,-187500.04470348894,-187500.04470348894,-187500.04470348894,-187500.04470348894,-187500.04470348894,-187500.04470348894,-187500.04470348894,-187500.04470348894,-187500.04470348894,-187500.04470348894,-187500.04470348894,-187500.04470348894,-187500.04470348894,-187500.04470348894,-187500.04470348894,-187500.04470348894,-187500.04470348894,-187500.04470348894,-187500.04470348894,-187500.04470348894,-187500.04470348894,-187500.04470348894,-187500.04470348894,-187500.04470348894,-187500.04470348894,-187500.04470348894,-187500.04470348894,-187500.04470348894,-187500.04470348894,-187500.04470348894,-187500.04470348894,-187500.04470348894,-187500.04470348894,-187500.04470348894,-187500.04470348894,-187500.04470348894,-187500.04470348894,-187500.04470348894,-187500.04470348894,-187500.04470348894,-187500.04470348894,-187500.04470348894,-187500.04470348894,-187500.04470348894,-187500.04470348894,-187500.04470348894,-187500.04470348894,-187500.04470348894,-187500.04470348894,-187500.04470348894,-187500.04470348894,-187500.04470348894,-187500.04470348894,-187500.04470348894,-187500.04470348894,-187500.04470348894,-187500.04470348894,-187500.04470348894,-187500.04470348894,-187500.04470348894,-187500.04470348894,-187500.04470348894,-187500.04470348894,-187500.04470348894,-187500.04470348894,-187500.04470348894,-187500.04470348894,-187500.04470348894,-187500.04470348894,-187500.04470348894,-187500.04470348894,-187500.04470348894,-187500.04470348894,-187500.04470348894,-187500.04470348894,-187500.04470348894,-187500.04470348894,-187500.04470348894,-187500.04470348894,-187500.04470348894,-187500.04470348894,-187500.04470348894,-187500.04470348894,-187500.04470348894,-187500.04470348894,-187500.04470348894,-187500.04470348894,-187500.04470348894,-187500.04470348894,-187500.04470348894,-187500.04470348894,-187500.04470348894,-187500.04470348894,-187500.04470348894,-187500.04470348894,-187500.04470348894,-187500.04470348894,-187500.04470348894,-187500.04470348894,-187500.04470348894,-187500.04470348894,-187500.04470348894,-187500.04470348894,-187500.04470348894,-187500.04470348894,-187500.04470348894,-187500.04470348894,-187500.04470348894,-187500.04470348894,-187500.04470348894,-187500.04470348894,-187500.04470348894,-187500.04470348894,-187500.04470348894,-187500.04470348894,-187500.04470348894,-187500.04470348894,-187500.04470348894,-187500.04470348894,-187500.04470348894,-187500.04470348894,-187500.04470348894,-187500.04470348894,-187500.04470348894,-187500.04470348894,-187500.04470348894,-187500.04470348894,-187500.04470348894,-187500.04470348894,-187500.04470348894,-187500.04470348894,-187500.04470348894,-187500.04470348894,-187500.04470348894,-187500.04470348894,-187500.04470348894,-187500.04470348894,-187500.04470348894,-187500.04470348894,-187500.04470348894,-187500.04470348894,-187500.04470348894,-187500.04470348894,-187500.04470348894,-187500.04470348894,-187500.04470348894,-187500.04470348894,-187500.04470348894,-187500.04470348894,-187500.04470348894,-187500.04470348894,-187500.04470348894,-187500.04470348894,-187500.04470348894,-187500.04470348894,-187500.04470348894,-187500.04470348894,-187500.04470348894,-187500.04470348894,-187500.04470348894,-187500.04470348894,-187500.04470348894,-187500.04470348894,-187500.04470348894,-187500.04470348894,-187500.04470348894,-187500.04470348894,-187500.04470348894,-187500.04470348894,-187500.04470348894,-187500.04470348894,-187500.04470348894,-187500.04470348894,-187500.04470348894,-187500.04470348894,-187500.04470348894,-187500.04470348894,-187500.04470348894,-187500.04470348894,-187500.04470348894,-187500.04470348894,-187500.04470348894,-187500.04470348894,-187500.04470348894,-187500.04470348894,-187500.04470348894,-187500.04470348894,-187500.04470348894,-187500.04470348894,-187500.04470348894,-187500.04470348894,-187500.04470348894,-187500.04470348894,-187500.04470348894,-187500.04470348894,-187500.04470348894,-187500.04470348894,-187500.04470348894,-187500.04470348894,-187500.04470348894,-187500.04470348894,-187500.04470348894,-187500.04470348894,-187500.04470348894,-187500.04470348894,-187500.04470348894,-187500.04470348894,-187500.04470348894,-187500.04470348894,-187500.04470348894,-187500.04470348894,-187500.04470348894,-187500.04470348894,-187500.04470348894,-187500.04470348894,-187500.04470348894,-187500.04470348894,-187500.04470348894,-187500.04470348894,-187500.04470348894,-187500.04470348894,-187500.04470348894,-187500.04470348894,-187500.04470348894,-187500.04470348894,-187500.04470348894,-187500.04470348894,-187500.04470348894,-187500.04470348894,-187500.04470348894,-187500.04470348894,-187500.04470348894,-187500.04470348894,-187500.04470348894,-187500.04470348894,-187500.04470348894,-187500.04470348894,-187500.04470348894,-187500.04470348894,-187500.04470348894,-187500.04470348894,-187500.04470348894,-187500.04470348894,-187500.04470348894,-187500.04470348894,-187500.04470348894,-187500.04470348894,-187500.04470348894,-187500.04470348894,-187500.04470348894,-187500.04470348894,-187500.04470348894,-187500.04470348894,-187500.04470348894,-187500.04470348894,-187500.04470348894,-187500.04470348894,-187500.04470348894,-187500.04470348894,-187500.04470348894,-187500.04470348894,-187500.04470348894,-187500.04470348894,-187500.04470348894,-187500.04470348894,-187500.04470348894,-187500.04470348894,-187500.04470348894,-187500.04470348894,-187500.04470348894,-187500.04470348894,-187500.04470348894,-187500.04470348894,-187500.04470348894,-187500.04470348894,-187500.04470348894,-187500.04470348894,-187500.04470348894,-187500.04470348894,-187500.04470348894,-187500.04470348894,-187500.04470348894,-187500.04470348894,-187500.04470348894,-187500.04470348894,-187500.04470348894,-187500.04470348894,-187500.04470348894,-187500.04470348894,-187500.04470348894,-187500.04470348894,-187500.04470348894,-187500.04470348894,-187500.04470348894,-187500.04470348894,-187500.04470348894,-187500.04470348894,-187500.04470348894,-187500.04470348894,-187500.04470348894,-187500.04470348894,-187500.04470348894,-187500.04470348894,-187500.04470348894,-187500.04470348894,-187500.04470348894,-187500.04470348894,-187500.04470348894,-187500.04470348894,-187500.04470348894,-187500.04470348894,-187500.04470348894,-187500.04470348894,-187500.04470348894,-187500.04470348894,-187500.04470348894,-187500.04470348894,-187500.04470348894,-187500.04470348894,-187500.04470348894,-187500.04470348894,-187500.04470348894,-187500.04470348894,-187500.04470348894,-187500.04470348894,-187500.04470348894,-187500.04470348894,-187500.04470348894,-187500.04470348894,-187500.04470348894,-187500.04470348894,-187500.04470348894,-187500.04470348894,-187500.04470348894,-187500.04470348894,-187500.04470348894,-187500.04470348894,-187500.04470348894,-187500.04470348894,-187500.04470348894,-187500.04470348894,-187500.04470348894,-187500.04470348894,-187500.04470348894,-187500.04470348894,-187500.04470348894,-187500.04470348894,-187500.04470348894,-187500.04470348894,-187500.04470348894,-187500.04470348894,-187500.04470348894,-187500.04470348894,-187500.04470348894,-187500.04470348894,-187500.04470348894,-187500.04470348894,-187500.04470348894,-187500.04470348894,-187500.04470348894,-187500.04470348894,-187500.04470348894,-187500.04470348894,-187500.04470348894,-187500.04470348894,-187500.04470348894,-187500.04470348894,-187500.04470348894,-187500.04470348894,-187500.04470348894,-187500.04470348894,-187500.04470348894,-187500.04470348894,-187500.04470348894,-187500.04470348894,-187500.04470348894,-187500.04470348894,-187500.04470348894,-187500.04470348894,-187500.04470348894,-187500.04470348894,-187500.04470348894,-187500.04470348894,-187500.04470348894,-187500.04470348894,-187500.04470348894,-187500.04470348894,-187500.04470348894,-187500.04470348894,-187500.04470348894,-187500.04470348894,-187500.04470348894,-187500.04470348894,-187500.04470348894,-187500.04470348894,-187500.04470348894,-187500.04470348894,-187500.04470348894,-187500.04470348894,-187500.04470348894,-187500.04470348894,-187500.04470348894,-187500.04470348894,-187500.04470348894,-187500.04470348894,-187500.04470348894,-187500.04470348894,-187500.04470348894,-187500.04470348894,-187500.04470348894,-187500.04470348894,-187500.04470348894,-187500.04470348894,-187500.04470348894,-187500.04470348894,-187500.04470348894,-187500.04470348894,-187500.04470348894,-187500.04470348894,-187500.04470348894,-187500.04470348894,-187500.04470348894,-187500.04470348894,-187500.04470348894,-187500.04470348894,-187500.04470348894,-187500.04470348894,-187500.04470348894,-187500.04470348894,-187500.04470348894,-187500.04470348894,-187500.04470348894,-187500.04470348894,-187500.04470348894,-187500.04470348894,-187500.04470348894,-187500.04470348894,-187500.04470348894,-187500.04470348894,-187500.04470348894,-187500.04470348894,-187500.04470348894,-187500.04470348894,-187500.04470348894,-187500.04470348894,-187500.04470348894,-187500.04470348894,-187500.04470348894,-187500.04470348894,-187500.04470348894,-187500.04470348894,-187500.04470348894,-187500.04470348894,-187500.04470348894,-187500.04470348894,-187500.04470348894,-187500.04470348894,-187500.04470348894,-187500.04470348894,-187500.04470348894,-187500.04470348894,-187500.04470348894,-187500.04470348894,-187500.04470348894,-187500.04470348894,-187500.04470348894,-187500.04470348894,-187500.04470348894,-187500.04470348894,-187500.04470348894,-187500.04470348894,-187500.04470348894,-187500.04470348894,-187500.04470348894,-187500.04470348894,-187500.04470348894,-187500.04470348894,-187500.04470348894,-187500.04470348894,-187500.04470348894,-187500.04470348894,-187500.04470348894,-187500.04470348894,-187500.04470348894,-187500.04470348894,-187500.04470348894,-187500.04470348894,-187500.04470348894,-187500.04470348894,-187500.04470348894,-187500.04470348894,-187500.04470348894,-187500.04470348894,-187500.04470348894,-187500.04470348894,-187500.04470348894,-187500.04470348894,-187500.04470348894,-187500.04470348894,-187500.04470348894,-187500.04470348894,-187500.04470348894,-187500.04470348894,-187500.04470348894,-187500.04470348894,-187500.04470348894,-187500.04470348894,-187500.04470348894,-187500.04470348894,-187500.04470348894,-187500.04470348894,-187500.04470348894,-187500.04470348894,-187500.04470348894,-187500.04470348894,-187500.04470348894,-187500.04470348894,-187500.04470348894,-187500.04470348894,-187500.04470348894,-187500.04470348894,-187500.04470348894,-187500.04470348894,-187500.04470348894,-187500.04470348894,-187500.04470348894,-187500.04470348894,-187500.04470348894,-187500.04470348894,-187500.04470348894,-187500.04470348894,-187500.04470348894,-187500.04470348894,-187500.04470348894,-187500.04470348894,-187500.04470348894,-187500.04470348894,-187500.04470348894,-187500.04470348894,-187500.04470348894,-187500.04470348894,-187500.04470348894,-187500.04470348894,-187500.04470348894,-187500.04470348894,-187500.04470348894,-187500.04470348894,-187500.04470348894,-187500.04470348894,-187500.04470348894,-187500.04470348894,-187500.04470348894,-187500.04470348894,-187500.04470348894,-187500.04470348894,-187500.04470348894,-187500.04470348894,-187500.04470348894,-187500.04470348894,-187500.04470348894,-187500.04470348894,-187500.04470348894,-187500.04470348894,-187500.04470348894,-187500.04470348894,-187500.04470348894,-187500.04470348894,-187500.04470348894,-187500.04470348894,-187500.04470348894,-187500.04470348894,-187500.04470348894,-187500.04470348894,-187500.04470348894,-187500.04470348894,-187500.04470348894,-187500.04470348894,-187500.04470348894,-187500.04470348894,-187500.04470348894,-187500.04470348894,-187500.04470348894,-187500.04470348894,-187500.04470348894,-187500.04470348894,-187500.04470348894,-187500.04470348894,-187500.04470348894,-187500.04470348894,-187500.04470348894,-187500.04470348894,-187500.04470348894,-187500.04470348894,-187500.04470348894,-187500.04470348894,-187500.04470348894,-187500.04470348894,-187500.04470348894,-187500.04470348894,-187500.04470348894,-187500.04470348894,-187500.04470348894,-187500.04470348894,-187500.04470348894,-187500.04470348894,-187500.04470348894,-187500.04470348894,-187500.04470348894,-187500.04470348894,-187500.04470348894,-187500.04470348894,-187500.04470348894,-187500.04470348894,-187500.04470348894,-187500.04470348894,-187500.04470348894,-187500.04470348894,-187500.04470348894,-187500.04470348894,-187500.04470348894,-187500.04470348894,-187500.04470348894,-187500.04470348894,-187500.04470348894,-187500.04470348894,-187500.04470348894,-187500.04470348894,-187500.04470348894,-187500.04470348894,-187500.04470348894,-187500.04470348894,-187500.04470348894,-187500.04470348894,-187500.04470348894,-187500.04470348894,-187500.04470348894,-187500.04470348894,-187500.04470348894,-187500.04470348894,-187500.04470348894,-187500.04470348894,-187500.04470348894,-187500.04470348894,-187500.04470348894,-187500.04470348894,-187500.04470348894,-187500.04470348894,-187500.04470348894,-187500.04470348894,-187500.04470348894,-187500.04470348894,-187500.04470348894,-187500.04470348894,-187500.04470348894,-187500.04470348894,-187500.04470348894,-187500.04470348894,-187500.04470348894,-187500.04470348894,-187500.04470348894,-187500.04470348894,-187500.04470348894,-187500.04470348894,-187500.04470348894,-187500.04470348894,-187500.04470348894,-187500.04470348894,-187500.04470348894,-187500.04470348894,-187500.04470348894,-187500.04470348894,-187500.04470348894,-187500.04470348894,-187500.04470348894,-187500.04470348894,-187500.04470348894,-187500.04470348894,-187500.04470348894,-187500.04470348894,-187500.04470348894,-187500.04470348894,-187500.04470348894,-187500.04470348894,-187500.04470348894,-187500.04470348894,-187500.04470348894,-187500.04470348894,-187500.04470348894,-187500.04470348894,-187500.04470348894,-187500.04470348894,-187500.04470348894,-187500.04470348894,-187500.04470348894,-187500.04470348894,-187500.04470348894,-187500.04470348894,-187500.04470348894,-187500.04470348894,-187500.04470348894,-187500.04470348894,-187500.04470348894,-187500.04470348894,-187500.04470348894,-187500.04470348894,-187500.04470348894,-187500.04470348894,-187500.04470348894,-187500.04470348894,-187500.04470348894,-187500.04470348894,-187500.04470348894,-187500.04470348894,-187500.04470348894,-187500.04470348894,-187500.04470348894,-187500.04470348894,-187500.04470348894,-187500.04470348894,-187500.04470348894,-187500.04470348894,-187500.04470348894,-187500.04470348894,-187500.04470348894,-187500.04470348894,-187500.04470348894,-187500.04470348894,-187500.04470348894,-187500.04470348894,-187500.04470348894,-187500.04470348894,-187500.04470348894,-187500.04470348894,-187500.04470348894,-187500.04470348894,-187500.04470348894,-187500.04470348894,-187500.04470348894,-187500.04470348894,-187500.04470348894,-187500.04470348894,-187500.04470348894,-187500.04470348894,-187500.04470348894,-187500.04470348894,-187500.04470348894,-187500.04470348894,-187500.04470348894,-187500.04470348894,-187500.04470348894,-187500.04470348894,-187500.04470348894,-187500.04470348894,-187500.04470348894,-187500.04470348894,-187500.04470348894,-187500.04470348894,-187500.04470348894,-187500.04470348894,-187500.04470348894,-187500.04470348894,-187500.04470348894,-187500.04470348894,-187500.04470348894,-187500.04470348894,-187500.04470348894,-187500.04470348894,-187500.04470348894,-187500.04470348894,-187500.04470348894,-187500.04470348894,-187500.04470348894,-187500.04470348894,-187500.04470348894,-187500.04470348894,-187500.04470348894,-187500.04470348894,-187500.04470348894,-187500.04470348894,-187500.04470348894,-187500.04470348894,-187500.04470348894,-187500.04470348894,-187500.04470348894,-187500.04470348894,-187500.04470348894,-187500.04470348894,-187500.04470348894,-187500.04470348894,-187500.04470348894,-187500.04470348894,-187500.04470348894,-187500.04470348894,-187500.04470348894,-187500.04470348894,-187500.04470348894,-187500.04470348894,-187500.04470348894,-187500.04470348894,-187500.04470348894,-187500.04470348894,-187500.04470348894,-187500.04470348894,-187500.04470348894,-187500.04470348894,-187500.04470348894,-187500.04470348894,-187500.04470348894,-187500.04470348894,-187500.04470348894,-187500.04470348894,-187500.04470348894,-187500.04470348894,-187500.04470348894,-187500.04470348894,-187500.04470348894,-187500.04470348894,-187500.04470348894,-187500.04470348894,-187500.04470348894,-187500.04470348894,-187500.04470348894,-187500.04470348894,-187500.04470348894,-187500.04470348894,-187500.04470348894,-187500.04470348894,-187500.04470348894,-187500.04470348894,-187500.04470348894,-187500.04470348894,-187500.04470348894,-187500.04470348894,-187500.04470348894,-187500.04470348894,-187500.04470348894,-187500.04470348894,-187500.04470348894,-187500.04470348894,-187500.04470348894,-187500.04470348894,-187500.04470348894,-187500.04470348894,-187500.04470348894,-187500.04470348894,-187500.04470348894,-187500.04470348894,-187500.04470348894,-187500.04470348894,-187500.04470348894,-187500.04470348894,-187500.04470348894,-187500.04470348894,-187500.04470348894,-187500.04470348894,-187500.04470348894,-187500.04470348894,-187500.04470348894,-187500.04470348894,-187500.04470348894,-187500.04470348894,-187500.04470348894,-187500.04470348894,-187500.04470348894,-187500.04470348894,-187500.04470348894,-187500.04470348894,-187500.04470348894,-187500.04470348894,-187500.04470348894,-187500.04470348894,-187500.04470348894,-187500.04470348894,-187500.04470348894,-187500.04470348894,-187500.04470348894,-187500.04470348894,-187500.04470348894,-187500.04470348894,-187500.04470348894,-187500.04470348894,-187500.04470348894,-187500.04470348894,-187500.04470348894,-187500.04470348894,-187500.04470348894,-187500.04470348894,-187500.04470348894,-187500.04470348894,-187500.04470348894,-187500.04470348894,-187500.04470348894,-187500.04470348894,-187500.04470348894,-187500.04470348894,-187500.04470348894,-187500.04470348894,-187500.04470348894,-187500.04470348894,-187500.04470348894,-187500.04470348894,-187500.04470348894,-187500.04470348894,-187500.04470348894,-187500.04470348894,-187500.04470348894,-187500.04470348894,-187500.04470348894,-187500.04470348894,-187500.04470348894,-187500.04470348894,-187500.04470348894,-187500.04470348894,-187500.04470348894,-187500.04470348894,-187500.04470348894,-187500.04470348894,-187500.04470348894,-187500.04470348894,-187500.04470348894,-187500.04470348894,-187500.04470348894,-187500.04470348894,-187500.04470348894,-187500.04470348894,-187500.04470348894,-187500.04470348894,-187500.04470348894,-187500.04470348894,-187500.04470348894,-187500.04470348894,-187500.04470348894,-187500.04470348894,-187500.04470348894,-187500.04470348894,-187500.04470348894,-187500.04470348894,-187500.04470348894,-187500.04470348894,-187500.04470348894,-187500.04470348894,-187500.04470348894,-187500.04470348894,-187500.04470348894,-187500.04470348894,-187500.04470348894,-187500.04470348894,-187500.04470348894,-187500.04470348894,-187500.04470348894,-187500.04470348894,-187500.04470348894,-187500.04470348894,-187500.04470348894,-187500.04470348894,-187500.04470348894,-187500.04470348894,-187500.04470348894,-187500.04470348894,-187500.04470348894,-187500.04470348894,-187500.04470348894,-187500.04470348894,-187500.04470348894,-187500.04470348894,-187500.04470348894,-187500.04470348894,-187500.04470348894,-187500.04470348894,-187500.04470348894,-187500.04470348894,-187500.04470348894,-187500.04470348894,-187500.04470348894,-187500.04470348894,-187500.04470348894,-187500.04470348894,-187500.04470348894,-187500.04470348894,-187500.04470348894,-187500.04470348894,-187500.04470348894,-187500.04470348894,-187500.04470348894,-187500.04470348894,-187500.04470348894,-187500.04470348894,-187500.04470348894,-187500.04470348894,-187500.04470348894,-187500.04470348894,-187500.04470348894,-187500.04470348894,-187500.04470348894,-187500.04470348894,-187500.04470348894,-187500.04470348894,-187500.04470348894,-187500.04470348894,-187500.04470348894,-187500.04470348894,-187500.04470348894,-187500.04470348894,-187500.04470348894,-187500.04470348894,-187500.04470348894,-187500.04470348894,-187500.04470348894,-187500.04470348894,-187500.04470348894,-187500.04470348894,-187500.04470348894,-187500.04470348894,-187500.04470348894,-187500.04470348894,-187500.04470348894,-187500.04470348894,-187500.04470348894,-187500.04470348894,-187500.04470348894,-187500.04470348894,-187500.04470348894,-187500.04470348894,-187500.04470348894,-187500.04470348894,-187500.04470348894,-187500.04470348894,-187500.04470348894,-187500.04470348894,-187500.04470348894,-187500.04470348894,-187500.04470348894,-187500.04470348894,-187500.04470348894,-187500.04470348894,-187500.04470348894,-187500.04470348894,-187500.04470348894,-187500.04470348894,-187500.04470348894,-187500.04470348894,-187500.04470348894,-187500.04470348894,-187500.04470348894,-187500.04470348894,-187500.04470348894,-187500.04470348894,-187500.04470348894,-187500.04470348894,-187500.04470348894,-187500.04470348894,-187500.04470348894,-187500.04470348894,-187500.04470348894,-187500.04470348894,-187500.04470348894,-187500.04470348894,-187500.04470348894,-187500.04470348894,-187500.04470348894,-187500.04470348894,-187500.04470348894,-187500.04470348894,-187500.04470348894,-187500.04470348894,-187500.04470348894,-187500.04470348894,-187500.04470348894,-187500.04470348894,-187500.04470348894,-187500.04470348894,-187500.04470348894,-187500.04470348894,-187500.04470348894,-187500.04470348894,-187500.04470348894,-187500.04470348894,-187500.04470348894,-187500.04470348894,-187500.04470348894,-187500.04470348894,-187500.04470348894,-187500.04470348894,-187500.04470348894,-187500.04470348894,-187500.04470348894,-187500.04470348894,-187500.04470348894,-187500.04470348894,-187500.04470348894,-187500.04470348894,-187500.04470348894,-187500.04470348894,-187500.04470348894,-187500.04470348894,-187500.04470348894,-187500.04470348894,-187500.04470348894,-187500.04470348894,-187500.04470348894,-187500.04470348894,-187500.04470348894,-187500.04470348894,-187500.04470348894,-187500.04470348894,-187500.04470348894,-187500.04470348894,-187500.04470348894,-187500.04470348894,-187500.04470348894,-187500.04470348894,-187500.04470348894,-187500.04470348894,-187500.04470348894,-187500.04470348894,-187500.04470348894,-187500.04470348894,-187500.04470348894,-187500.04470348894,-187500.04470348894,-187500.04470348894,-187500.04470348894,-187500.04470348894,-187500.04470348894,-187500.04470348894,-187500.04470348894,-187500.04470348894,-187500.04470348894,-187500.04470348894,-187500.04470348894,-187500.04470348894,-187500.04470348894,-187500.04470348894,-187500.04470348894,-187500.04470348894,-187500.04470348894,-187500.04470348894,-187500.04470348894,-187500.04470348894,-187500.04470348894,-187500.04470348894,-187500.04470348894,-187500.04470348894,-187500.04470348894,-187500.04470348894,-187500.04470348894,-187500.04470348894,-187500.04470348894,-187500.04470348894,-187500.04470348894,-187500.04470348894,-187500.04470348894,-187500.04470348894,-187500.04470348894,-187500.04470348894,-187500.04470348894,-187500.04470348894,-187500.04470348894,-187500.04470348894,-187500.04470348894,-187500.04470348894,-187500.04470348894,-187500.04470348894,-187500.04470348894,-187500.04470348894,-187500.04470348894,-187500.04470348894,-187500.04470348894,-187500.04470348894,-187500.04470348894,-187500.04470348894,-187500.04470348894,-187500.04470348894,-187500.04470348894,-187500.04470348894,-187500.04470348894,-187500.04470348894,-187500.04470348894,-187500.04470348894,-187500.04470348894,-187500.04470348894,-187500.04470348894,-187500.04470348894,-187500.04470348894,-187500.04470348894,-187500.04470348894,-187500.04470348894,-187500.04470348894,-187500.04470348894,-187500.04470348894,-187500.04470348894,-187500.04470348894,-187500.04470348894,-187500.04470348894,-187500.04470348894,-187500.04470348894,-187500.04470348894,-187500.04470348894,-187500.04470348894,-187500.04470348894,-187500.04470348894,-187500.04470348894,-187500.04470348894,-187500.04470348894,-187500.04470348894,-187500.04470348894,-187500.04470348894,-187500.04470348894,-187500.04470348894,-187500.04470348894,-187500.04470348894,-187500.04470348894,-187500.04470348894,-187500.04470348894,-187500.04470348894,-187500.04470348894,-187500.04470348894,-187500.04470348894,-187500.04470348894,-187500.04470348894,-187500.04470348894,-187500.04470348894,-187500.04470348894,-187500.04470348894,-187500.04470348894,-187500.04470348894,-187500.04470348894,-187500.04470348894,-187500.04470348894,-187500.04470348894,-187500.04470348894,-187500.04470348894,-187500.04470348894,-187500.04470348894,-187500.04470348894,-187500.04470348894,-187500.04470348894,-187500.04470348894,-187500.04470348894,-187500.04470348894,-187500.04470348894,-187500.04470348894,-187500.04470348894,-187500.04470348894,-187500.04470348894,-187500.04470348894,-187500.04470348894,-187500.04470348894,-187500.04470348894,-187500.04470348894,-187500.04470348894,-187500.04470348894,-187500.04470348894,-187500.04470348894,-187500.04470348894,-187500.04470348894,-187500.04470348894,-187500.04470348894,-187500.04470348894,-187500.04470348894,-187500.04470348894,-187500.04470348894,-187500.04470348894,-187500.04470348894,-187500.04470348894,-187500.04470348894,-187500.04470348894,-187500.04470348894,-187500.04470348894,-187500.04470348894,-187500.04470348894,-187500.04470348894,-187500.04470348894,-187500.04470348894,-187500.04470348894,-187500.04470348894,-187500.04470348894,-187500.04470348894,-187500.04470348894,-187500.04470348894,-187500.04470348894,-187500.04470348894,-187500.04470348894,-187500.04470348894,-187500.04470348894,-187500.04470348894,-187500.04470348894,-187500.04470348894,-187500.04470348894,-187500.04470348894,-187500.04470348894,-187500.04470348894,-187500.04470348894,-187500.04470348894,-187500.04470348894,-187500.04470348894,-187500.04470348894,-187500.04470348894,-187500.04470348894,-187500.04470348894,-187500.04470348894,-187500.04470348894,-187500.04470348894,-187500.04470348894,-187500.04470348894,-187500.04470348894,-187500.04470348894,-187500.04470348894,-187500.04470348894,-187500.04470348894,-187500.04470348894,-187500.04470348894,-187500.04470348894,-187500.04470348894,-187500.04470348894,-187500.04470348894,-187500.04470348894,-187500.04470348894,-187500.04470348894,-187500.04470348894,-187500.04470348894,-187500.04470348894,-187500.04470348894,-187500.04470348894,-187500.04470348894,-187500.04470348894,-187500.04470348894,-187500.04470348894,-187500.04470348894,-187500.04470348894,-187500.04470348894,-187500.04470348894,-187500.04470348894,-187500.04470348894,-187500.04470348894,-187500.04470348894,-187500.04470348894,-187500.04470348894,-187500.04470348894,-187500.04470348894,-187500.04470348894,-187500.04470348894,-187500.04470348894,-187500.04470348894,-187500.04470348894,-187500.04470348894,-187500.04470348894,-187500.04470348894,-187500.04470348894,-187500.04470348894,-187500.04470348894,-187500.04470348894,-187500.04470348894,-187500.04470348894,-187500.04470348894,-187500.04470348894,-187500.04470348894,-187500.04470348894,-187500.04470348894,-187500.04470348894,-187500.04470348894,-187500.04470348894,-187500.04470348894,-187500.04470348894,-187500.04470348894,-187500.04470348894,-187500.04470348894,-187500.04470348894,-187500.04470348894,-187500.04470348894,-187500.04470348894,-187500.04470348894,-187500.04470348894,-187500.04470348894,-187500.04470348894,-187500.04470348894,-187500.04470348894,-187500.04470348894,-187500.04470348894,-187500.04470348894,-187500.04470348894,-187500.04470348894,-187500.04470348894,-187500.04470348894,-187500.04470348894,-187500.04470348894,-187500.04470348894,-187500.04470348894,-187500.04470348894,-187500.04470348894,-187500.04470348894,-187500.04470348894,-187500.04470348894,-187500.04470348894,-187500.04470348894,-187500.04470348894,-187500.04470348894,-187500.04470348894,-187500.04470348894,-187500.04470348894,-187500.04470348894,-187500.04470348894,-187500.04470348894,-187500.04470348894,-187500.04470348894,-187500.04470348894,-187500.04470348894,-187500.04470348894,-187500.04470348894,-187500.04470348894,-187500.04470348894,-187500.04470348894,-187500.04470348894,-187500.04470348894,-187500.04470348894,-187500.04470348894,-187500.04470348894,-187500.04470348894,-187500.04470348894,-187500.04470348894,-187500.04470348894,-187500.04470348894,-187500.04470348894,-187500.04470348894,-187500.04470348894,-187500.04470348894,-187500.04470348894,-187500.04470348894,-187500.04470348894,-187500.04470348894,-187500.04470348894,-187500.04470348894,-187500.04470348894,-187500.04470348894,-187500.04470348894,-187500.04470348894,-187500.04470348894,-187500.04470348894,-187500.04470348894,-187500.04470348894,-187500.04470348894,-187500.04470348894,-187500.04470348894,-187500.04470348894,-187500.04470348894,-187500.04470348894,-187500.04470348894,-187500.04470348894,-187500.04470348894,-187500.04470348894,-187500.04470348894,-187500.04470348894,-187500.04470348894,-187500.04470348894,-187500.04470348894,-187500.04470348894,-187500.04470348894,-187500.04470348894,-187500.04470348894,-187500.04470348894,-187500.04470348894,-187500.04470348894,-187500.04470348894,-187500.04470348894,-187500.04470348894,-187500.04470348894,-187500.04470348894,-187500.04470348894,-187500.04470348894,-187500.04470348894,-187500.04470348894,-187500.04470348894,-187500.04470348894,-187500.04470348894,-187500.04470348894,-187500.04470348894,-187500.04470348894,-187500.04470348894,-187500.04470348894,-187500.04470348894,-187500.04470348894,-187500.04470348894,-187500.04470348894,-187500.04470348894,-187500.04470348894,-187500.04470348894,-187500.04470348894,-187500.04470348894,-187500.04470348894,-187500.04470348894,-187500.04470348894,-187500.04470348894,-187500.04470348894,-187500.04470348894,-187500.04470348894,-187500.04470348894,-187500.04470348894,-187500.04470348894,-187500.04470348894,-187500.04470348894,-187500.04470348894,-187500.04470348894,-187500.04470348894,-187500.04470348894,-187500.04470348894,-187500.04470348894,-187500.04470348894,-187500.04470348894,-187500.04470348894,-187500.04470348894,-187500.04470348894,-187500.04470348894,-187500.04470348894,-187500.04470348894,-187500.04470348894,-187500.04470348894,-187500.04470348894,-187500.04470348894,-187500.04470348894,-187500.04470348894,-187500.04470348894,-187500.04470348894,-187500.04470348894,-187500.04470348894,-187500.04470348894,-187500.04470348894,-187500.04470348894,-187500.04470348894,-187500.04470348894,-187500.04470348894,-187500.04470348894,-187500.04470348894,-187500.04470348894,-187500.04470348894,-187500.04470348894,-187500.04470348894,-187500.04470348894,-187500.04470348894,-187500.04470348894,-187500.04470348894,-187500.04470348894,-187500.04470348894,-187500.04470348894,-187500.04470348894,-187500.04470348894,-187500.04470348894,-187500.04470348894,-187500.04470348894,-187500.04470348894,-187500.04470348894,-187500.04470348894,-187500.04470348894,-187500.04470348894,-187500.04470348894,-187500.04470348894,-187500.04470348894,-187500.04470348894,-187500.04470348894,-187500.04470348894,-187500.04470348894,-187500.04470348894,-187500.04470348894,-187500.04470348894,-187500.04470348894,-187500.04470348894,-187500.04470348894,-187500.04470348894,-187500.04470348894,-187500.04470348894,-187500.04470348894,-187500.04470348894,-187500.04470348894,-187500.04470348894,-187500.04470348894,-187500.04470348894,-187500.04470348894,-187500.04470348894,-187500.04470348894,-187500.04470348894,-187500.04470348894,-187500.04470348894,-187500.04470348894,-187500.04470348894,-187500.04470348894,-187500.04470348894,-187500.04470348894,-187500.04470348894,-187500.04470348894,-187500.04470348894,-187500.04470348894,-187500.04470348894,-187500.04470348894,-187500.04470348894,-187500.04470348894,-187500.04470348894,-187500.04470348894,-187500.04470348894,-187500.04470348894,-187500.04470348894,-187500.04470348894,-187500.04470348894,-187500.04470348894,-187500.04470348894,-187500.04470348894,-187500.04470348894,-187500.04470348894,-187500.04470348894,-187500.04470348894,-187500.04470348894,-187500.04470348894,-187500.04470348894,-187500.04470348894,-187500.04470348894,-187500.04470348894,-187500.04470348894,-187500.04470348894,-187500.04470348894,-187500.04470348894,-187500.04470348894,-187500.04470348894,-187500.04470348894,-187500.04470348894,-187500.04470348894,-187500.04470348894,-187500.04470348894,-187500.04470348894,-187500.04470348894,-187500.04470348894,-187500.04470348894,-187500.04470348894,-187500.04470348894,-187500.04470348894,-187500.04470348894,-187500.04470348894,-187500.04470348894,-187500.04470348894,-187500.04470348894,-187500.04470348894,-187500.04470348894,-187500.04470348894,-187500.04470348894,-187500.04470348894,-187500.04470348894,-187500.04470348894,-187500.04470348894,-187500.04470348894,-187500.04470348894,-187500.04470348894,-187500.04470348894,-187500.04470348894,-187500.04470348894,-187500.04470348894,-187500.04470348894,-187500.04470348894,-187500.04470348894,-187500.04470348894,-187500.04470348894,-187500.04470348894,-187500.04470348894,-187500.04470348894,-187500.04470348894,-187500.04470348894,-187500.04470348894,-187500.04470348894,-187500.04470348894,-187500.04470348894,-187500.04470348894,-187500.04470348894,-187500.04470348894,-187500.04470348894,-187500.04470348894,-187500.04470348894,-187500.04470348894,-187500.04470348894,-187500.04470348894,-187500.04470348894,-187500.04470348894,-187500.04470348894,-187500.04470348894,-187500.04470348894,-187500.04470348894,-187500.04470348894,-187500.04470348894,-187500.04470348894,-187500.04470348894,-187500.04470348894,-187500.04470348894,-187500.04470348894,-187500.04470348894,-187500.04470348894,-187500.04470348894,-187500.04470348894,-187500.04470348894,-187500.04470348894,-187500.04470348894,-187500.04470348894,-187500.04470348894,-187500.04470348894,-187500.04470348894,-187500.04470348894,-187500.04470348894,-187500.04470348894,-187500.04470348894,-187500.04470348894,-187500.04470348894,-187500.04470348894,-187500.04470348894,-187500.04470348894,-187500.04470348894,-187500.04470348894,-187500.04470348894,-187500.04470348894,-187500.04470348894,-187500.04470348894,-187500.04470348894,-187500.04470348894,-187500.04470348894,-187500.04470348894,-187500.04470348894,-187500.04470348894,-187500.04470348894,-187500.04470348894,-187500.04470348894,-187500.04470348894,-187500.04470348894,-187500.04470348894,-187500.04470348894,-187500.04470348894,-187500.04470348894,-187500.04470348894,-187500.04470348894,-187500.04470348894,-187500.04470348894,-187500.04470348894,-187500.04470348894,-187500.04470348894,-187500.04470348894,-187500.04470348894,-187500.04470348894,-187500.04470348894,-187500.04470348894,-187500.04470348894,-187500.04470348894,-187500.04470348894,-187500.04470348894,-187500.04470348894,-187500.04470348894,-187500.04470348894,-187500.04470348894,-187500.04470348894,-187500.04470348894,-187500.04470348894,-187500.04470348894,-187500.04470348894,-187500.04470348894,-187500.04470348894,-187500.04470348894,-187500.04470348894,-187500.04470348894,-187500.04470348894,-187500.04470348894,-187500.04470348894,-187500.04470348894,-187500.04470348894,-187500.04470348894,-187500.04470348894,-187500.04470348894,-187500.04470348894,-187500.04470348894,-187500.04470348894,-187500.04470348894,-187500.04470348894,-187500.04470348894,-187500.04470348894,-187500.04470348894,-187500.04470348894,-187500.04470348894,-187500.04470348894,-187500.04470348894,-187500.04470348894,-187500.04470348894,-187500.04470348894,-187500.04470348894,-187500.04470348894,-187500.04470348894,-187500.04470348894,-187500.04470348894,-187500.04470348894,-187500.04470348894,-187500.04470348894,-187500.04470348894,-187500.04470348894,-187500.04470348894,-187500.04470348894,-187500.04470348894,-187500.04470348894,-187500.04470348894,-187500.04470348894,-187500.04470348894,-187500.04470348894,-187500.04470348894,-187500.04470348894,-187500.04470348894,-187500.04470348894,-187500.04470348894,-187500.04470348894,-187500.04470348894,-187500.04470348894,-187500.04470348894,-187500.04470348894,-187500.04470348894,-187500.04470348894,-187500.04470348894,-187500.04470348894,-187500.04470348894,-187500.04470348894,-187500.04470348894,-187500.04470348894,-187500.04470348894,-187500.04470348894,-187500.04470348894,-187500.04470348894,-187500.04470348894,-187500.04470348894,-187500.04470348894,-187500.04470348894,-187500.04470348894,-187500.04470348894,-187500.04470348894,-187500.04470348894,-187500.04470348894,-187500.04470348894,-187500.04470348894,-187500.04470348894,-187500.04470348894,-187500.04470348894,-187500.04470348894,-187500.04470348894,-187500.04470348894,-187500.04470348894,-187500.04470348894,-187500.04470348894,-187500.04470348894,-187500.04470348894,-187500.04470348894,-187500.04470348894,-187500.04470348894,-187500.04470348894,-187500.04470348894,-187500.04470348894,-187500.04470348894,-187500.04470348894,-187500.04470348894,-187500.04470348894,-187500.04470348894,-187500.04470348894,-187500.04470348894,-187500.04470348894,-187500.04470348894,-187500.04470348894,-187500.04470348894,-187500.04470348894,-187500.04470348894,-187500.04470348894,-187500.04470348894,-187500.04470348894,-187500.04470348894,-187500.04470348894,-187500.04470348894,-187500.04470348894,-187500.04470348894,-187500.04470348894,-187500.04470348894,-187500.04470348894,-187500.04470348894,-187500.04470348894,-187500.04470348894,-187500.04470348894,-187500.04470348894,-187500.04470348894,-187500.04470348894,-187500.04470348894,-187500.04470348894,-187500.04470348894,-187500.04470348894,-187500.04470348894,-187500.04470348894,-187500.04470348894,-187500.04470348894,-187500.04470348894,-187500.04470348894,-187500.04470348894,-187500.04470348894,-187500.04470348894,-187500.04470348894,-187500.04470348894,-187500.04470348894,-187500.04470348894,-187500.04470348894,-187500.04470348894,-187500.04470348894,-187500.04470348894,-187500.04470348894,-187500.04470348894,-187500.04470348894,-187500.04470348894,-187500.04470348894,-187500.04470348894,-187500.04470348894,-187500.04470348894,-187500.04470348894,-187500.04470348894,-187500.04470348894,-187500.04470348894,-187500.04470348894,-187500.04470348894,-187500.04470348894,-187500.04470348894,-187500.04470348894,-187500.04470348894,-187500.04470348894,-187500.04470348894,-187500.04470348894,-187500.04470348894,-187500.04470348894,-187500.04470348894,-187500.04470348894,-187500.04470348894,-187500.04470348894,-187500.04470348894,-187500.04470348894,-187500.04470348894,-187500.04470348894,-187500.04470348894,-187500.04470348894,-187500.04470348894,-187500.04470348894,-187500.04470348894,-187500.04470348894,-187500.04470348894,-187500.04470348894,-187500.04470348894,-187500.04470348894,-187500.04470348894,-187500.04470348894,-187500.04470348894,-187500.04470348894,-187500.04470348894,-187500.04470348894,-187500.04470348894,-187500.04470348894,-187500.04470348894,-187500.04470348894,-187500.04470348894,-187500.04470348894,-187500.04470348894,-187500.04470348894,-187500.04470348894,-187500.04470348894,-187500.04470348894,-187500.04470348894,-187500.04470348894,-187500.04470348894,-187500.04470348894,-187500.04470348894,-187500.04470348894,-187500.04470348894,-187500.04470348894,-187500.04470348894,-187500.04470348894,-187500.04470348894,-187500.04470348894,-187500.04470348894,-187500.04470348894,-187500.04470348894,-187500.04470348894,-187500.04470348894,-187500.04470348894,-187500.04470348894,-187500.04470348894,-187500.04470348894,-187500.04470348894,-187500.04470348894,-187500.04470348894,-187500.04470348894,-187500.04470348894,-187500.04470348894,-187500.04470348894,-187500.04470348894,-187500.04470348894,-187500.04470348894,-187500.04470348894,-187500.04470348894,-187500.04470348894,-187500.04470348894,-187500.04470348894,-187500.04470348894,-187500.04470348894,-187500.04470348894,-187500.04470348894,-187500.04470348894,-187500.04470348894,-187500.04470348894,-187500.04470348894,-187500.04470348894,-187500.04470348894,-187500.04470348894,-187500.04470348894,-187500.04470348894,-187500.04470348894,-187500.04470348894,-187500.04470348894,-187500.04470348894,-187500.04470348894,-187500.04470348894,-187500.04470348894,-187500.04470348894,-187500.04470348894,-187500.04470348894,-187500.04470348894,-187500.04470348894,-187500.04470348894,-187500.04470348894,-187500.04470348894,-187500.04470348894,-187500.04470348894,-187500.04470348894,-187500.04470348894,-187500.04470348894,-187500.04470348894,-187500.04470348894,-187500.04470348894,-187500.04470348894,-187500.04470348894,-187500.04470348894,-187500.04470348894,-187500.04470348894,-187500.04470348894,-187500.04470348894,-187500.04470348894,-187500.04470348894,-187500.04470348894,-187500.04470348894,-187500.04470348894,-187500.04470348894,-187500.04470348894,-187500.04470348894,-187500.04470348894,-187500.04470348894,-187500.04470348894,-187500.04470348894,-187500.04470348894,-187500.04470348894,-187500.04470348894,-187500.04470348894,-187500.04470348894,-187500.04470348894,-187500.04470348894,-187500.04470348894,-187500.04470348894,-187500.04470348894,-187500.04470348894,-187500.04470348894,-187500.04470348894,-187500.04470348894,-187500.04470348894,-187500.04470348894,-187500.04470348894,-187500.04470348894,-187500.04470348894,-187500.04470348894,-187500.04470348894,-187500.04470348894,-187500.04470348894,-187500.04470348894,-187500.04470348894,-187500.04470348894,-187500.04470348894,-187500.04470348894,-187500.04470348894,-187500.04470348894,-187500.04470348894,-187500.04470348894,-187500.04470348894,-187500.04470348894,-187500.04470348894,-187500.04470348894,-187500.04470348894,-187500.04470348894,-187500.04470348894,-187500.04470348894,-187500.04470348894,-187500.04470348894,-187500.04470348894,-187500.04470348894,-187500.04470348894,-187500.04470348894,-187500.04470348894,-187500.04470348894,-187500.04470348894,-187500.04470348894,-187500.04470348894,-187500.04470348894,-187500.04470348894,-187500.04470348894,-187500.04470348894,-187500.04470348894,-187500.04470348894,-187500.04470348894,-187500.04470348894,-187500.04470348894,-187500.04470348894,-187500.04470348894,-187500.04470348894,-187500.04470348894,-187500.04470348894,-187500.04470348894,-187500.04470348894,-187500.04470348894,-187500.04470348894,-187500.04470348894,-187500.04470348894,-187500.04470348894,-187500.04470348894,-187500.04470348894,-187500.04470348894,-187500.04470348894,-187500.04470348894,-187500.04470348894,-187500.04470348894,-187500.04470348894,-187500.04470348894,-187500.04470348894,-187500.04470348894,-187500.04470348894,-187500.04470348894,-187500.04470348894,-187500.04470348894,-187500.04470348894,-187500.04470348894,-187500.04470348894,-187500.04470348894,-187500.04470348894,-187500.04470348894,-187500.04470348894,-187500.04470348894,-187500.04470348894,-187500.04470348894,-187500.04470348894,-187500.04470348894,-187500.04470348894,-187500.04470348894,-187500.04470348894,-187500.04470348894,-187500.04470348894,-187500.04470348894,-187500.04470348894,-187500.04470348894,-187500.04470348894,-187500.04470348894,-187500.04470348894,-187500.04470348894,-187500.04470348894,-187500.04470348894,-187500.04470348894,-187500.04470348894,-187500.04470348894,-187500.04470348894,-187500.04470348894,-187500.04470348894,-187500.04470348894,-187500.04470348894,-187500.04470348894,-187500.04470348894,-187500.04470348894,-187500.04470348894,-187500.04470348894,-187500.04470348894,-187500.04470348894,-187500.04470348894,-187500.04470348894,-187500.04470348894,-187500.04470348894,-187500.04470348894,-187500.04470348894,-187500.04470348894,-187500.04470348894,-187500.04470348894,-187500.04470348894,-187500.04470348894,-187500.04470348894,-187500.04470348894,-187500.04470348894,-187500.04470348894,-187500.04470348894,-187500.04470348894,-187500.04470348894,-187500.04470348894,-187500.04470348894,-187500.04470348894,-187500.04470348894,-187500.04470348894,-187500.04470348894,-187500.04470348894,-187500.04470348894,-187500.04470348894,-187500.04470348894,-187500.04470348894,-187500.04470348894,-187500.04470348894,-187500.04470348894,-187500.04470348894,-187500.04470348894,-187500.04470348894,-187500.04470348894,-187500.04470348894,-187500.04470348894,-187500.04470348894,-187500.04470348894,-187500.04470348894,-187500.04470348894,-187500.04470348894,-187500.04470348894,-187500.04470348894,-187500.04470348894,-187500.04470348894,-187500.04470348894,-187500.04470348894,-187500.04470348894,-187500.04470348894,-187500.04470348894,-187500.04470348894,-187500.04470348894,-187500.04470348894,-187500.04470348894,-187500.04470348894,-187500.04470348894,-187500.04470348894,-187500.04470348894,-187500.04470348894,-187500.04470348894,-187500.04470348894,-187500.04470348894,-187500.04470348894,-187500.04470348894,-187500.04470348894,-187500.04470348894,-187500.04470348894,-187500.04470348894,-187500.04470348894,-187500.04470348894,-187500.04470348894,-187500.04470348894,-187500.04470348894,-187500.04470348894,-187500.04470348894,-187500.04470348894,-187500.04470348894,-187500.04470348894,-187500.04470348894,-187500.04470348894,-187500.04470348894,-187500.04470348894,-187500.04470348894,-187500.04470348894,-187500.04470348894,-187500.04470348894,-187500.04470348894,-187500.04470348894,-187500.04470348894,-187500.04470348894,-187500.04470348894,-187500.04470348894,-187500.04470348894,-187500.04470348894,-187500.04470348894,-187500.04470348894,-187500.04470348894,-187500.04470348894,-187500.04470348894,-187500.04470348894,-187500.04470348894,-187500.04470348894,-187500.04470348894,-187500.04470348894,-187500.04470348894,-187500.04470348894,-187500.04470348894,-187500.04470348894,-187500.04470348894,-187500.04470348894,-187500.04470348894,-187500.04470348894,-187500.04470348894,-187500.04470348894,-187500.04470348894,-187500.04470348894,-187500.04470348894,-187500.04470348894,-187500.04470348894,-187500.04470348894,-187500.04470348894,-187500.04470348894,-187500.04470348894,-187500.04470348894,-187500.04470348894,-187500.04470348894,-187500.04470348894,-187500.04470348894,-187500.04470348894,-187500.04470348894,-187500.04470348894,-187500.04470348894,-187500.04470348894,-187500.04470348894,-187500.04470348894,-187500.04470348894,-187500.04470348894,-187500.04470348894,-187500.04470348894,-187500.04470348894,-187500.04470348894,-187500.04470348894,-187500.04470348894,-187500.04470348894,-187500.04470348894,-187500.04470348894,-187500.04470348894,-187500.04470348894,-187500.04470348894,-187500.04470348894,-187500.04470348894,-187500.04470348894,-187500.04470348894,-187500.04470348894,-187500.04470348894,-187500.04470348894,-187500.04470348894,-187500.04470348894,-187500.04470348894,-187500.04470348894,-187500.04470348894,-187500.04470348894,-187500.04470348894,-187500.04470348894,-187500.04470348894,-187500.04470348894,-187500.04470348894,-187500.04470348894,-187500.04470348894,-187500.04470348894,-187500.04470348894,-187500.04470348894,-187500.04470348894,-187500.04470348894,-187500.04470348894,-187500.04470348894,-187500.04470348894,-187500.04470348894,-187500.04470348894,-187500.04470348894,-187500.04470348894,-187500.04470348894,-187500.04470348894,-187500.04470348894,-187500.04470348894,-187500.04470348894,-187500.04470348894,-187500.04470348894,-187500.04470348894,-187500.04470348894,-187500.04470348894,-187500.04470348894,-187500.04470348894,-187500.04470348894,-187500.04470348894,-187500.04470348894,-187500.04470348894,-187500.04470348894,-187500.04470348894,-187500.04470348894,-187500.04470348894,-187500.04470348894,-187500.04470348894,-187500.04470348894,-187500.04470348894,-187500.04470348894,-187500.04470348894,-187500.04470348894,-187500.04470348894,-187500.04470348894,-187500.04470348894,-187500.04470348894,-187500.04470348894,-187500.04470348894,-187500.04470348894,-187500.04470348894,-187500.04470348894,-187500.04470348894,-187500.04470348894,-187500.04470348894,-187500.04470348894,-187500.04470348894,-187500.04470348894,-187500.04470348894,-187500.04470348894,-187500.04470348894,-187500.04470348894,-187500.04470348894,-187500.04470348894,-187500.04470348894,-187500.04470348894,-187500.04470348894,-187500.04470348894,-187500.04470348894,-187500.04470348894,-187500.04470348894,-187500.04470348894,-187500.04470348894,-187500.04470348894,-187500.04470348894,-187500.04470348894,-187500.04470348894,-187500.04470348894,-187500.04470348894,-187500.04470348894,-187500.04470348894,-187500.04470348894,-187500.04470348894,-187500.04470348894,-187500.04470348894,-187500.04470348894,-187500.04470348894,-187500.04470348894,-187500.04470348894,-187500.04470348894,-187500.04470348894,-187500.04470348894,-187500.04470348894,-187500.04470348894,-187500.04470348894,-187500.04470348894,-187500.04470348894,-187500.04470348894,-187500.04470348894,-187500.04470348894,-187500.04470348894,-187500.04470348894,-187500.04470348894,-187500.04470348894,-187500.04470348894,-187500.04470348894,-187500.04470348894,-187500.04470348894,-187500.04470348894,-187500.04470348894,-187500.04470348894,-187500.04470348894,-187500.04470348894,-187500.04470348894,-187500.04470348894,-187500.04470348894,-187500.04470348894,-187500.04470348894,-187500.04470348894,-187500.04470348894,-187500.04470348894,-187500.04470348894,-187500.04470348894,-187500.04470348894,-187500.04470348894,-187500.04470348894,-187500.04470348894,-187500.04470348894,-187500.04470348894,-187500.04470348894,-187500.04470348894,-187500.04470348894,-187500.04470348894,-187500.04470348894,-187500.04470348894,-187500.04470348894,-187500.04470348894,-187500.04470348894,-187500.04470348894,-187500.04470348894,-187500.04470348894,-187500.04470348894,-187500.04470348894,-187500.04470348894,-187500.04470348894,-187500.04470348894,-187500.04470348894,-187500.04470348894,-187500.04470348894,-187500.04470348894,-187500.04470348894,-187500.04470348894,-187500.04470348894,-187500.04470348894,-187500.04470348894,-187500.04470348894,-187500.04470348894,-187500.04470348894,-187500.04470348894,-187500.04470348894,-187500.04470348894,-187500.04470348894,-187500.04470348894,-187500.04470348894,-187500.04470348894,-187500.04470348894,-187500.04470348894,-187500.04470348894,-187500.04470348894,-187500.04470348894,-187500.04470348894,-187500.04470348894,-187500.04470348894,-187500.04470348894,-187500.04470348894,-187500.04470348894,-187500.04470348894,-187500.04470348894,-187500.04470348894,-187500.04470348894,-187500.04470348894,-187500.04470348894,-187500.04470348894,-187500.04470348894,-187500.04470348894,-187500.04470348894,-187500.04470348894,-187500.04470348894,-187500.04470348894,-187500.04470348894,-187500.04470348894,-187500.04470348894,-187500.04470348894,-187500.04470348894,-187500.04470348894,-187500.04470348894,-187500.04470348894,-187500.04470348894,-187500.04470348894,-187500.04470348894,-187500.04470348894,-187500.04470348894,-187500.04470348894,-187500.04470348894,-187500.04470348894,-187500.04470348894,-187500.04470348894,-187500.04470348894,-187500.04470348894,-187500.04470348894,-187500.04470348894,-187500.04470348894,-187500.04470348894,-187500.04470348894,-187500.04470348894,-187500.04470348894,-187500.04470348894,-187500.04470348894,-187500.04470348894,-187500.04470348894,-187500.04470348894,-187500.04470348894,-187500.04470348894,-187500.04470348894,-187500.04470348894,-187500.04470348894,-187500.04470348894,-187500.04470348894,-187500.04470348894,-187500.04470348894,-187500.04470348894,-187500.04470348894,-187500.04470348894,-187500.04470348894,-187500.04470348894,-187500.04470348894,-187500.04470348894,-187500.04470348894,-187500.04470348894,-187500.04470348894,-187500.04470348894,-187500.04470348894,-187500.04470348894,-187500.04470348894,-187500.04470348894,-187500.04470348894,-187500.04470348894,-187500.04470348894,-187500.04470348894,-187500.04470348894,-187500.04470348894,-187500.04470348894,-187500.04470348894,-187500.04470348894,-187500.04470348894,-187500.04470348894,-187500.04470348894,-187500.04470348894,-187500.04470348894,-187500.04470348894,-187500.04470348894,-187500.04470348894,-187500.04470348894,-187500.04470348894,-187500.04470348894,-187500.04470348894,-187500.04470348894,-187500.04470348894,-187500.04470348894,-187500.04470348894,-187500.04470348894,-187500.04470348894,-187500.04470348894,-187500.04470348894,-187500.04470348894,-187500.04470348894,-187500.04470348894,-187500.04470348894,-187500.04470348894,-187500.04470348894,-187500.04470348894,-187500.04470348894,-187500.04470348894,-187500.04470348894,-187500.04470348894,-187500.04470348894,-187500.04470348894,-187500.04470348894,-187500.04470348894,-187500.04470348894,-187500.04470348894,-187500.04470348894,-187500.04470348894,-187500.04470348894,-187500.04470348894,-187500.04470348894,-187500.04470348894,-187500.04470348894,-187500.04470348894,-187500.04470348894,-187500.04470348894,-187500.04470348894,-187500.04470348894,-187500.04470348894,-187500.04470348894,-187500.04470348894,-187500.04470348894,-187500.04470348894,-187500.04470348894,-187500.04470348894,-187500.04470348894,-187500.04470348894,-187500.04470348894,-187500.04470348894,-187500.04470348894,-187500.04470348894,-187500.04470348894,-187500.04470348894,-187500.04470348894,-187500.04470348894,-187500.04470348894,-187500.04470348894,-187500.04470348894,-187500.04470348894,-187500.04470348894,-187500.04470348894,-187500.04470348894,-187500.04470348894,-187500.04470348894,-187500.04470348894,-187500.04470348894,-187500.04470348894,-187500.04470348894,-187500.04470348894,-187500.04470348894,-187500.04470348894,-187500.04470348894,-187500.04470348894,-187500.04470348894,-187500.04470348894,-187500.04470348894,-187500.04470348894,-187500.04470348894,-187500.04470348894,-187500.04470348894,-187500.04470348894,-187500.04470348894,-187500.04470348894,-187500.04470348894,-187500.04470348894,-187500.04470348894,-187500.04470348894,-187500.04470348894,-187500.04470348894,-187500.04470348894,-187500.04470348894,-187500.04470348894,-187500.04470348894,-187500.04470348894,-187500.04470348894,-187500.04470348894,-187500.04470348894,-187500.04470348894,-187500.04470348894,-187500.04470348894,-187500.04470348894,-187500.04470348894,-187500.04470348894,-187500.04470348894,-187500.04470348894,-187500.04470348894,-187500.04470348894,-187500.04470348894,-187500.04470348894,-187500.04470348894,-187500.04470348894,-187500.04470348894,-187500.04470348894,-187500.04470348894,-187500.04470348894,-187500.04470348894,-187500.04470348894,-187500.04470348894,-187500.04470348894,-187500.04470348894,-187500.04470348894,-187500.04470348894,-187500.04470348894,-187500.04470348894,-187500.04470348894,-187500.04470348894,-187500.04470348894,-187500.04470348894,-187500.04470348894,-187500.04470348894,-187500.04470348894,-187500.04470348894,-187500.04470348894,-187500.04470348894,-187500.04470348894,-187500.04470348894,-187500.04470348894,-187500.04470348894,-187500.04470348894,-187500.04470348894,-187500.04470348894,-187500.04470348894,-187500.04470348894,-187500.04470348894,-187500.04470348894,-187500.04470348894,-187500.04470348894,-187500.04470348894,-187500.04470348894,-187500.04470348894,-187500.04470348894,-187500.04470348894,-187500.04470348894,-187500.04470348894,-187500.04470348894,-187500.04470348894,-187500.04470348894,-187500.04470348894,-187500.04470348894,-187500.04470348894,-187500.04470348894,-187500.04470348894,-187500.04470348894,-187500.04470348894,-187500.04470348894,-187500.04470348894,-187500.04470348894,-187500.04470348894,-187500.04470348894,-187500.04470348894,-187500.04470348894,-187500.04470348894,-187500.04470348894,-187500.04470348894,-187500.04470348894,-187500.04470348894,-187500.04470348894,-187500.04470348894,-187500.04470348894,-187500.04470348894,-187500.04470348894,-187500.04470348894,-187500.04470348894,-187500.04470348894,-187500.04470348894,-187500.04470348894,-187500.04470348894,-187500.04470348894,-187500.04470348894,-187500.04470348894,-187500.04470348894,-187500.04470348894,-187500.04470348894,-187500.04470348894,-187500.04470348894,-187500.04470348894,-187500.04470348894,-187500.04470348894,-187500.04470348894,-187500.04470348894,-187500.04470348894,-187500.04470348894,-187500.04470348894,-187500.04470348894,-187500.04470348894,-187500.04470348894,-187500.04470348894,-187500.04470348894,-187500.04470348894,-187500.04470348894,-187500.04470348894,-187500.04470348894,-187500.04470348894,-187500.04470348894,-187500.04470348894,-187500.04470348894,-187500.04470348894,-187500.04470348894,-187500.04470348894,-187500.04470348894,-187500.04470348894,-187500.04470348894,-187500.04470348894,-187500.04470348894,-187500.04470348894,-187500.04470348894,-187500.04470348894,-187500.04470348894,-187500.04470348894,-187500.04470348894,-187500.04470348894,-187500.04470348894,-187500.04470348894,-187500.04470348894,-187500.04470348894,-187500.04470348894,-187500.04470348894,-187500.04470348894,-187500.04470348894,-187500.04470348894,-187500.04470348894,-187500.04470348894,-187500.04470348894,-187500.04470348894,-187500.04470348894,-187500.04470348894,-187500.04470348894,-187500.04470348894,-187500.04470348894,-187500.04470348894,-187500.04470348894,-187500.04470348894,-187500.04470348894,-187500.04470348894,-187500.04470348894,-187500.04470348894,-187500.04470348894,-187500.04470348894,-187500.04470348894,-187500.04470348894,-187500.04470348894,-187500.04470348894,-187500.04470348894,-187500.04470348894,-187500.04470348894,-187500.04470348894,-187500.04470348894,-187500.04470348894,-187500.04470348894,-187500.04470348894,-187500.04470348894,-187500.04470348894,-187500.04470348894,-187500.04470348894,-187500.04470348894,-187500.04470348894,-187500.04470348894,-187500.04470348894,-187500.04470348894,-187500.04470348894,-187500.04470348894,-187500.04470348894,-187500.04470348894,-187500.04470348894,-187500.04470348894,-187500.04470348894,-187500.04470348894,-187500.04470348894,-187500.04470348894,-187500.04470348894,-187500.04470348894,-187500.04470348894,-187500.04470348894,-187500.04470348894,-187500.04470348894,-187500.04470348894,-187500.04470348894,-187500.04470348894,-187500.04470348894,-187500.04470348894,-187500.04470348894,-187500.04470348894,-187500.04470348894,-187500.04470348894,-187500.04470348894,-187500.04470348894,-187500.04470348894,-187500.04470348894,-187500.04470348894,-187500.04470348894,-187500.04470348894,-187500.04470348894,-187500.04470348894,-187500.04470348894,-187500.04470348894,-187500.04470348894,-187500.04470348894,-187500.04470348894,-187500.04470348894,-187500.04470348894,-187500.04470348894,-187500.04470348894,-187500.04470348894,-187500.04470348894,-187500.04470348894,-187500.04470348894,-187500.04470348894,-187500.04470348894,-187500.04470348894,-187500.04470348894,-187500.04470348894,-187500.04470348894,-187500.04470348894,-187500.04470348894,-187500.04470348894,-187500.04470348894,-187500.04470348894,-187500.04470348894,-187500.04470348894,-187500.04470348894,-187500.04470348894,-187500.04470348894,-187500.04470348894,-187500.04470348894,-187500.04470348894,-187500.04470348894,-187500.04470348894,-187500.04470348894,-187500.04470348894,-187500.04470348894,-187500.04470348894,-187500.04470348894,-187500.04470348894,-187500.04470348894,-187500.04470348894,-187500.04470348894,-187500.04470348894,-187500.04470348894,-187500.04470348894,-187500.04470348894,-187500.04470348894,-187500.04470348894,-187500.04470348894,-187500.04470348894,-187500.04470348894,-187500.04470348894,-187500.04470348894,-187500.04470348894,-187500.04470348894,-187500.04470348894,-187500.04470348894,-187500.04470348894,-187500.04470348894,-187500.04470348894,-187500.04470348894,-187500.04470348894,-187500.04470348894,-187500.04470348894,-187500.04470348894,-187500.04470348894,-187500.04470348894,-187500.04470348894,-187500.04470348894,-187500.04470348894,-187500.04470348894,-187500.04470348894,-187500.04470348894,-187500.04470348894,-187500.04470348894,-187500.04470348894,-187500.04470348894,-187500.04470348894,-187500.04470348894,-187500.04470348894,-187500.04470348894,-187500.04470348894,-187500.04470348894,-187500.04470348894,-187500.04470348894,-187500.04470348894,-187500.04470348894,-187500.04470348894,-187500.04470348894,-187500.04470348894,-187500.04470348894,-187500.04470348894,-187500.04470348894,-187500.04470348894,-187500.04470348894,-187500.04470348894,-187500.04470348894,-187500.04470348894,-187500.04470348894,-187500.04470348894,-187500.04470348894,-187500.04470348894,-187500.04470348894,-187500.04470348894,-187500.04470348894,-187500.04470348894,