0.0,40480.43972020623,40356.164021034725,40029.180351398034,39730.15871407494,39260.28034213548,38837.98883414135,38340.662520010774,38089.29480186639,37943.29320708432,37903.06006706478,37744.630902365556,37417.20019783976,36890.50369149491,36290.918146481294,35657.33559815116,34968.946572416615,34277.38359896941,33532.39995627403,32849.77768060895,32131.07968939301,31535.942141526004,30944.783204172043,30584.09310389675,30248.816937067146,30028.674605926826,29714.431430629666,29531.102422607237,29272.69390495943,29113.460077459822,28884.354696792925,28761.040122632996,28577.062914021364,28471.316811003308,28324.890533076592,28255.48836654286,28169.9482405124,28116.035832886202,28054.859108312026,28009.529770556663,28017.397584604932,28068.963059063324,28211.16485728799,28347.21992578744,28540.875439748223,28653.505880058514,28831.939856045232,28951.49933713667,29123.496010720257,29132.5261154802,29143.05378711865,29007.110477341474,28924.520781579115,28748.612552715847,28653.505880058514,28467.092331301254,28341.520230951337,28167.91423176697,28045.87370704099,27848.485451756176,27662.94362103267,27453.95481037555,27245.86006949664,27019.414546419925,26768.695028864746,26522.28939798944,26229.392138647097,25957.37140862601,25636.355654758892,25394.50977975247,25121.17029680852,24916.383614108996,24630.191878103244,24441.16317524471,24181.41355292959,24017.79878351674,23779.484484134256,23664.194186233784,23497.383117363825,23436.653427678757,23332.807222939402,23318.926789632653,23247.468262609036,23211.9289889251,23124.690130316038,23059.31127778426,22959.39898006904,22853.608173562072,22742.855279786025,22614.109231723458,22514.01812005259,22373.62681312881,22284.443352752132,22151.60693545424,22094.98996674895,21986.44989567398,21987.925110808028,21935.733787504887,21993.513046921857,21967.428561142515,22028.94056188352,22001.671433648044,22068.726667013965,22060.255355865404,22126.349464219747,22121.61089439522,22188.666127761142,22190.074287661828,22208.78269777092,22197.316252865345,22206.5922268143,22200.601959300275,22192.98001444102,22209.5426570824,22228.25106719149,22338.28870514497,22407.869685634338,22530.156079549324,22573.764332981627,22665.607650948485,22669.541557972618,22769.52091092121,22759.730846849783,22779.31097499263,22668.491025983218,22596.965443726236,22381.42757194371,22191.951834196072,21869.41616170599,21566.393562125395,21102.483105955496,20576.41244845539,19917.259504468384,19287.029717806545,18637.622134402052,17959.201986694574,17063.478179392598,15940.77240714698,14761.472017940525,13475.218531515424,12191.021405580212,10903.270352276606,10017.001332879227,9454.631442383701,9297.610437585168,9046.443885140883,8899.481165347239,8788.102422726444,8937.546186154626,9018.370094105017,9282.254789144372,9453.15622724965,9765.767725201575,9963.714774097774,10285.55754250974,10565.066106923356,10957.562739558547,11279.249045759327,11439.30988780378,11064.09115363254,9976.49997192621,6932.684115491405,2078.55577213237,-2299.8603939843647,-3242.4111059202082,-1500.7408262182269,535.2795762156935,2081.0368157669086,2352.1858277542387,1635.8347697061026,1122.169330378691,1626.1564643569548,2924.904575932572,5942.188911698927,9931.3941516154,14752.330154458305,19357.236547140667,23280.41473393616,26155.966658111414,28341.60963792916,29832.158068675766,30931.416860987767,31693.007849813446,32244.224219825774,32588.910471071064,32782.3871710762,32907.93691968166,32930.266312392516,32981.87649033982,32976.82499609292,33106.08513427796,33152.71087321173,33309.15073265442,33318.35965137001,33467.55754560918,33434.499315559784,33542.34648255664,33519.14537181203,33654.12755657763,33649.478393730926,33768.59083993326,33700.97681295595,33687.0516761603,33562.440700821964,33512.88688336455,33367.75700661624,33244.95652257878,33080.64884908782,32948.30417016795,32840.25583747099,32746.065586336328,32754.738063184985,32779.39203731919,32934.40138511675,32966.2302692211,32889.98846888405,31684.84946308726,27843.61277146492,22793.102001321557,17563.889034258013,6710.038388972091,-2511.3749517649358,-3440.402858305318,-3445.275538596575,-3449.7458874876365,-3454.6185677788935,-3458.954806203223,-3463.246341138642,-3468.2754836410863,-3473.25992265462,-3477.3949953788515,-3481.373605891896,-3484.8828297713794,-3489.0849577289773,-3494.181155464787,-3499.2997049450523,-3503.12185324691,-3507.055760271044,-3512.666048129326,-3516.4658446867284,-3519.9974203106667,-3524.6018796684602,-3529.027525070611,-3532.961432094745,-3537.409429241351,-3542.9079583773564,-3546.193664812287,-3549.8817026474126,-3553.927368393823,-3558.0400893735996,-3562.6669004758483,-3566.42199354434,-3569.730051723725,-3574.7368424817137,-3577.9778454277334,-3582.5152495521606,-3586.47150832075,-3590.561877556071,-3595.367502613962,-3599.368464871462,-3602.9670957287667,-3605.8728225079567,-3610.052598721099,-3615.662886579381,-3618.9932965032217,-3621.787264560135,-3625.654116350903,-3629.4539129083055,-3633.2984129546185,-3637.1876164898417,-3640.0709915245766,-3643.9378433153447,-3649.883407340456,-3654.107887042509,-3656.7900963771463,-3660.0310993231656,-3663.8085441361127,-3665.6413871814475,-3669.1282593164756,-3674.4479744968385,-3679.432413510372,-3683.4557275123275,-3686.607323480526,-3690.0718438710983,-3694.497489273249,-3698.5208032752043,-3701.918268432411,-3707.2826871016846,-3711.529518548193,-3713.4741203158046,-3718.6373732849806,-3721.856024486545,-3726.4157803554276,-3729.589728068081,-3732.6742688029135,-3736.5187688492265,-3740.8103037846454,-3743.8724927750222,-3747.269957932229,-3751.650899845469,-3755.4506964028715,-3758.98227202681,-3761.9997575282764,-3767.1183070085417,-3769.7111093653575,-3413.357247514397,-378.72795805072286,2542.8909114469184,3613.8076917895905,5868.338748018593,10338.151197213077,16373.52453154618,20602.83221040156,24713.630940154904,28337.36280648265,32358.955724114865,35106.23098686111,38341.04249966652,40567.58917183747,43404.606688571774,45121.62299413956,47128.11674214801,48196.30660966714,49933.90887187825,51017.92377447174,52514.14954830999,53534.28316525021,54845.637660698616,55823.794701551764,56864.044888501754,57988.9858351929,59145.44274156603,60458.76419052651,61629.92854475124,63817.27025714759,65907.06895674097,69059.02255285055,72306.46280127321,76223.60601706577,78929.48584908078,81309.47724693743,82162.06218744066,83511.79462811883,84023.69427963428,85333.48415297082,85643.25697937692,86554.64935954206,86719.62758536669,87791.43843548757,88319.25252905519,88875.18511714759,88694.60537369316,89000.86897621978,89250.9179414413,89438.73965009925,89501.70451422984,89568.44682317339,89988.70432242207,90217.87675832234,90947.03536594336,90924.77302846588,91497.78234932212,91515.41787569737,92182.12570931026,91950.18165709755,92462.34952954645,92155.750650853,92766.1991436719,92652.40641264993,93424.0556864805,93435.18685521923,94061.92976974604,93871.15763082,94215.50860589846,93877.59493322312,94028.11158038517,93704.70418986132,93180.17580272864,92541.45235317378,92060.04048109538,91602.00853371722,90893.72645541746,90867.30669347128,90832.08034420972,91484.68422707132,91329.58547229595,91409.33649651248,90610.79807410217,90652.32761530014,90029.11627639727,90487.77407262017,90349.52853316409,91238.54681712948,91239.23972120759,91676.4398427534,90880.02483606635,90516.60782296752,89350.78553566762,88666.08454776819,87358.66395934392,86248.2069430598,84830.18992307066,83591.56800407982,82351.85084961068,81158.9605997754,80449.96326565304,79822.3933365814,79819.93464469131,79459.51276534949,79690.87567220637,79124.99655783136,79063.19398441243,78080.90187083505,77749.6043145185,76436.37227253584,75789.24456706579,74154.28151539345,73201.33724228588,71439.50568908521,70659.72038027292,69393.8740365355,68749.4285404001,67524.91057216056,67011.73687121116,66424.82476530371,66156.98381149577,66035.30091468107,66478.24543455189,66966.67575438926,67320.34740690558,67979.20977821467,68297.27510181369,69061.5035964851,69213.29429308108,69842.1829750756,69685.87722609965,70257.54544228858,70036.28552392549,70615.46392625141,70346.05835033159,70798.12238194018,70353.52383297967,70771.61321301619,70267.20139589327,70435.28651419717,70012.81619224742,70374.08743787855,71165.22743287413,72566.63710673299,73055.08977831481,73528.6114846005,73731.34180681012,73844.79926166526,74010.33628110126,73858.679694972,73898.19757916899,73474.14028336291,73562.07204605009,73056.45323472658,73196.48691373908,72593.66036577945,72797.01653683383,72193.00534641807,72410.95720660177,71767.27166977784,71964.50346285147,71388.16373207138,71621.29242674023,71156.35379032539,71316.41463236984,70702.434563927,70416.71221455482,69506.5044768458,68702.31106308832,67384.47456174786,66017.64303656138,64524.16652729113,63058.8308642901,61618.73032077913,59755.46655124028,58534.1672342023,56874.93018805149,55631.50264400276,53776.79959259029,52536.25542357629,50468.473192271376,49553.43747776002,48834.78419003299,50139.14258946689,51381.36313931503,54317.84591887545,58162.41302042163,67111.76092764866,80752.561182089,94528.23186257266,99218.27604988529,99384.43891816604,99423.55447096283,99463.0723551598,99502.50083237897,99541.66108866467,99580.79899320591,99620.24982216953,99659.56654066642,99698.61503822984,99737.41766660425,99776.5555711455,99815.62642045337,99854.36199359442,99886.77202305461,99889.07425273351,99883.41926138631,99879.01596772861,99874.47856360419,99870.1199734354,99871.01404321362,99894.61748535842,99897.29969469307,99891.51059287913,99887.26376143262,99882.86046777492,99878.41247062832,99873.96447348171,99871.21520891371,99888.69427307777,99900.07131100552,99893.20932545773,99888.67192133331,99884.15686895335,99879.41829912881,99874.61267407093,99876.2219996717,99900.13836623888,99901.01008427264,99895.01981675862,99890.46006088973,99885.8779532764,99881.0276247296,99876.19964792725,99884.581552098,99901.52417439512,99895.51155513663,99890.16948821182,99885.40856664283,99880.84881077395,99876.11024094943,99873.76330778161,99892.85169754646,99898.64079936038,99892.18114521279,99887.19670619926,99882.1228602079,99877.54075259456,99882.25697067464,99902.61940987343,99898.55139238255,99893.32108418002,99888.56016261103,99883.75453755315,99878.79245028406,99874.50091534865,99884.827421287,99900.13836623888,99893.61165685793,99888.76132831113,99884.06746197552,99879.23948517317,99874.90324674884,99887.91196202183,99904.4299011743,99898.17141272682,99893.09756673547,99888.22488644421,99883.5757235975,99879.01596772861,99874.59032232646,99885.38621489838,99901.34536043947,99895.13157548089,99889.74480506717,99780.66829212526,98953.92196821237,96969.86937163703,93931.23911991586,90440.79070577511,86502.30157402773,82522.59582550476,78355.6942171686,74301.44540088718,70171.93826102476,66207.2752365202,62249.92123245254,58485.08280337844,54757.057697422235,51204.65024765137,47722.33786849235,44393.11258710773,41164.96189415001,38060.86338291924,35094.33985881089,32219.726707902755,29499.65351815862,26838.588933776493,24345.743578165006,21876.076981553673,19579.792866682157,17290.70601352525,15204.81886921154,13102.011454345162,11200.369739576548,9273.425850084526,7529.363933725826,5744.443028502826,4120.901718247142,2462.8940180413747,977.3970815416673,-513.7995497941434,-1690.5071366437837,-2033.8299314773003,-2048.582082817803,-2054.2817776539064,-2060.9202457571323,-2066.3293679153167,-2071.9396557735986,-2077.7287575875234,-2083.674321612635,-2088.636408881713,-2093.196164750596,-2099.4323014536267,-2105.020237567453,-2110.6975806591013,-2115.033819083431,-2118.4536359850927,-2124.0192203544643,-2129.607156468291,-2133.8539879147993,-2138.7490199505114,-2144.4710665310704,-2149.857836944799,-2153.747040480023,-2158.329148093361,-2163.4924010625364,-2167.091031919841,-2171.8519534888214,-2175.629398301768,-2180.412671615204,-2185.017130972997,-2190.247439175539,-2194.091939221852,-2197.355293912327,-2201.892698036754,-2205.6924945941564,-2209.2687737070055,-2212.800349330944,-2217.337753455371,-2222.9480413136534,-2227.1054657823406,-2231.44170420667,-2236.2696810090165,-2240.2035880331505,-2244.048088079463,-2248.54078871498,-2252.429992250203,-2256.989748119086,-2259.82841966491,-2263.918788900231,-2267.11508835734,-2271.965416904142,-2275.6758064837227,-2279.207382107661,-2283.856544954365,-2287.5892862784012,-2291.210268880161,-2295.144175904295,-2299.6815800287222,-2303.950763219686,-2308.7787400220323,-2312.2656121570603,-2316.177167436739,-2320.7369233056215,-2324.0002779960964,-2328.247109442605,-2333.1644932227723,-2337.6348421138337,-2341.1217142488617,-2345.435600928736,-2349.794191097521,-2352.454048687702,-2355.8515138449093,-2360.366566224881,-2363.3840517263475,-2366.9156273502863,-2371.005996585607,-2376.146897810328,-2380.6395984458445,-2383.2100490582047,-2386.696921193233,-2390.6978834507327,-2395.369398041892,-2398.945677154741,-2402.1866801007604,-2406.589973758456,-2410.456825549224,-2414.52484304009,-2418.7269709976877,-2422.303250110537,-2426.661840279322,-2431.1545409148384,-2435.8931107393637,-2438.7094305407322,-2442.2857096535813,-2446.19726493326,-2451.0028899911513,-2454.1321342148944,-2457.619006349922,-2461.508209885146,-2466.336186687492,-2470.583018134,-2475.0310152806064,-2479.3449019604805,-2481.8706490839304,-2484.686968885299,-2489.3584834764583,-2493.1806317783157,-2496.8463178689863,-2499.953210348274,-2504.132986561416,-2508.2904110301033,-2511.9337453763183,-2516.1582250783713,-2519.131007090927,-2523.5119490041675,-2527.624669983944,-2530.843321185508,-2535.447780543301,-2539.2475771007034,-2542.242710857715,-2547.070687660061,-2551.2057603842927,-2554.558522052589,-2557.0172139426727,-2561.0181762001725,-2565.980263469251,-2569.8024117711084,-2573.93748449534,-2577.3796531414573,-2580.643007831932,-2585.6721503343765,-2589.5390021251446,-2593.2046882158147,-2597.585630129055,-2602.100682509027,-2605.9451825553397,-2609.2532407347253,-2613.455368692323,-2617.4339792053675,-2621.837272863063,-2624.295964753147,-2626.844063621052,-2632.789627646164,-2638.0869910820716,-2640.880959138985,-2643.965499873817,-2647.5417789866665,-2651.7662586887195,-2655.968386646317,-2659.2764448257026,-2663.366814061024,-2667.8818664409955,-2672.3075118431466,-2675.6379217669873,-2679.8176979801297,-2683.192811392881,-2687.2384771392917,-2691.8652882415404,-2695.2404016542914,-2699.1519569339703,-2701.901221501973,-2705.2763349147244,-2709.4784628723223,-2714.3287914191237,-2717.413332153956,-2721.414294411456,-2724.7223525908416,-2728.3656869370566,-2732.165483494459,-2735.451189929389,-2739.675669631442,-2743.2966522332017,-2747.387021468523,-2751.633852915031,-2754.3384139941236,-2758.674652418453,-2762.8767803760506,-2766.631873444542,-2771.5269054802548,-2775.4608125043887,-2778.5900567281315,-2780.9146381514834,-2784.0438823752265,-2788.2460103328244,-2792.358731312601,-2795.666789491986,-2800.2936005942347,-2803.6016587736203,-2806.082702408159,-2809.5248710542764,-2814.151682156525,-2817.929126969472,-2822.7571037718185,-2827.3392113851564,-2831.0719527091924,-2834.2235486773907,-2838.4256766349886,-2841.890197025561,-2846.539359872265,-2850.4956186408544,-2854.0942494981587,-2858.162266989025,-2861.8503048241505,-2864.733679858885,-2869.0028630498487,-2873.1379357740802,-2876.468345697921,-2880.5140114443316,-2883.576200434709,-2888.158308048047,-2890.8405173826836,-2894.95323836246,-2898.730683175407,-2902.5304797328095,-2906.4196832680327,-2909.213651324946,-2912.477006015421,-2916.5226717618316,-2920.031895641315,-2924.4128375545547,-2928.3914480675994,-2931.0066021688704,-2935.655765015574,-2940.4166865845546,-2942.9647854524596,-2947.032802943326,-2951.4808000899316,-2955.1017826916914,-2959.5721315827527,-2962.857838017683,-2967.0599659752806,-2971.887942777627,-2974.726614323451,-2978.1017277362025,-2968.468125875965,-2116.732551662034,377.1633359388514,1020.3571343847674,1889.2812000848294,3092.207383180545,6736.011116029158,12674.869617804245,22861.677153310437,34504.29850867969,46695.09639681535,58348.04425812296,70104.03366136953,81578.70400890161,92543.17343749684,98471.1913432111,98923.0989126085,98963.35440437251,99004.21339323682,99044.96062337884,99085.81961224314,99126.36567668506,99167.00114810481,99207.97189569139,99248.51796013332,99288.54993445278,99328.91718493906,99369.01621449187,99408.48939519995,99448.07433463029,99487.8827915052,99527.64654489119,99567.00796687699,99606.16822316269,99645.10496200382,99684.17581131171,99723.40312283077,99762.56337911647,99801.72363540216,99840.90624343231,99876.28905490506,99882.83811603047,99876.1772961828,99872.13163043639,99868.0189094566,99863.99559545465,99874.1209356929,99889.63304634488,99883.82159278651,99879.28418866209,99874.65737755984,99863.12387742089,96502.85202298785,70547.53697485173,24988.98208009983,-91.1057103998316,-1885.3919965496061,-1890.8905256856117,-1897.3501798331954,-1903.51926130286,-1910.1130259171757,-1915.52214807536,-1923.0099824678878,-1929.8272645267564,-1936.8680640301782,-1943.5065321334043,-1949.7203170919797,-1956.29172996184,-1962.7960875983345,-1968.5628376678037,-1974.0837185482644,-1980.901000607133,-1986.2654192764069,-1991.7639484124124,-1997.2177740595073,-2003.6103729737251,-1939.036183242343,-1473.1364218159226,-1001.8945934646838,1810.2230799464085,6083.340177934191,13584.518561901876,23495.058535940476,37112.568272658384,55005.720854487525,78561.86670802435,96988.0413398792,99717.01052391656,99760.05998373748,99801.23189702415,99837.84405444194,99844.75074347864,99840.48156028766,99838.2687375866,99836.12297011889,99833.59722299544,99838.0675718865,99859.21232214122,99858.51941806311,99855.47958081718,99852.48444706017,99849.82458947,99847.43295281327,99774.7003763557,97750.59345371646,90435.18041791682,80585.01250565202,66356.40607552601,49004.433930448766,29352.95901929844,9905.220258858235,-738.8816164590855,-1908.1684241495639,-1912.9516974629996,-1918.2714126433627,-1923.0546859567985,-1928.106180203698,-1932.4647703724827,-1936.555139607804,-1899.585354278726,-405.3265339525383,4113.346828621248,9205.230677751384,15999.043404941965,22416.072775849436,30037.41413800885,36945.578389832786,44618.462874706136,51355.85979889152,58292.29900745142,63971.586700867025,69823.07223356632,75141.55806798436,80776.14227248935,86067.068405994,91090.51121360197,95883.19461145338,98947.5517210426,99793.00645506459,99815.13468207535,98733.06438124948,95224.80162677784,89764.22575285743,81550.78668007693,72601.86345599455,61979.42042105442,52210.97048651821,42621.915652980286,35582.14432980351,29682.423732569663,26787.649308162847,24824.026206019666,24900.513875545726,25150.004047155864,26637.110309256354,27886.773990008118,29598.224711206523,30972.946402185727,32469.350989979626,33558.75266298684,34292.716895665755,34557.2050878054,33675.764045210366,32141.897933709377,29315.34103338016,26171.679934463496,21584.543178623102,17192.82772455546,11846.312802590466,7295.967018123511,2087.8764495702326,-1094.7213881875741,-1967.7805266118678,-1993.8650123912112,-1997.7542159264347,-2002.4257305175938,-2006.3819892861832,-2011.0758556217977,-2017.0884748802753,-2022.3187830828172,-2028.1749401301076,-2032.7570477434456,-2037.3391553567835,-2042.9270914706103,-2048.73854502899,-2053.767687531434,-2057.9027602556657,-2063.31188241385,-2068.139859216197,-2072.4313941516157,-2076.298245942384,-2081.4614989115594,-2086.5353449029144,-2090.60336239378,-2095.0066560514756,-2099.409949709171,-2102.1592142771738,-1605.5928594580723,1340.322356262488,5831.883052811987,13386.392699050033,21939.5782875512,32034.028414968066,41569.506117046614,50862.98148190755,58428.66700037325,64534.53773671839,68451.52449029977,70202.29192999506,69891.55797857737,67777.26176706098,64609.93017076614,59617.66804667331,53928.478530464,46814.76763662906,39718.84873138055,30815.835990409374,21723.235752968285,11395.612227393654,2570.584722827044,-1869.6340167086146,-2206.921840539198,-2212.1297969972848,-2215.4825586655807,-2220.0646662789186,-2224.244442492061,-2229.117122783318,-2233.922747841209,-2238.2366345210835,-2242.01407933403,-2246.7302974141,-2250.887721882787,-2255.335719029393,-2260.1189923428287,-2265.2375418230945,-2269.506725014058,-2273.4629837826474,-2277.5533530179687,-2282.2025158646725,-2286.4940508000914,-2290.338550846404,-2294.563030548457,-2298.2287166391275,-2302.7661207635547,-2306.1635859207613,-2310.9021557452866,-2315.216042425161,-2318.501748860091,-2323.0615047289734,-2327.8671297868646,-2331.532815877535,-2336.047868257507,-2339.825313070454,-2344.0721445169625,-2348.0731067744623,-2351.8952550763197,-2355.024499300063,-2358.7795923685544,-2363.2499412596158,-2367.5861796839454,-2371.4530314747135,-2375.0069588431074,-2379.5443629675347,-2383.6123804584004,-2386.7416246821435,-2390.1614415838053,-2394.721197452688,-2398.9009736658304,-2403.460729534713,-2408.132244125872,-2411.5520610275344,-2414.8154157180093,-2418.86108146442,-2422.9514506997407,-2427.8688344799084,-2432.0933141819614,-2435.334317127981,-2438.396506118358,-2443.2244829207043,-2447.3372039004807,-2451.449924880257,-2455.4508871377575,-2459.0271662506066,-2463.497515141668,-2467.6102361214444,-2470.6724251118217,-2474.5839803915,-2479.076681027017,-2483.658788640355,-2487.0339020531064,-2490.520774188134,-2493.9182393453407,-2498.746216147687,-2502.4119022383575,-2505.3176290175475,-2509.452701741779,-2512.850166898986,-2516.225280311737,-2520.494463502701,-2525.1659780938603,-2528.2505188286923,-2532.229129341737,-2536.0289258991393,-2540.8121992125753,-2544.254367858692,-2548.0541644160944,-2552.6362720294323,-2512.8725186434413,-1390.770243498116,1379.1473363813564,4977.241751818866,9609.439624481158,14139.624135449427,19341.433863810762,23977.49858826382,29035.385434077434,33302.02052617318,37871.00766551586,41389.52987069248,45109.575403878145,47774.64095051777,50386.06231046466,51899.096596133306,53254.282862458575,53610.92729698745,53719.91440295153,52925.33223930982,51819.83731029479,50098.797690725056,47958.05936551802,45469.97493147552,42578.150937336795,39745.492010771275,36618.326499262635,33820.02220392492,30744.64568431922,28294.849788528656,25600.525808397033,23513.722242560656,20994.457125002995,19198.22623708561,16824.85095558774,14878.237530975048,12243.23508062781,9933.986953972215,6815.203346634311,3771.9015803219772,11.935831539133972,-2446.487837611179,-2713.6582390854646,-2717.815663554152,-2723.604765368076,-2727.0469340141935,-2731.070248016149,-2735.674707373942,-2740.0109457982717,-2743.833094100129,-2748.63871915802,-2752.572626182154,-2757.3558994955897,-2762.2509315313023,-2765.4025274995006,-2770.3646147685786,-2774.6114462150867,-2775.0808328486482,-2765.0448995882157,-2578.4078333864013,-1503.6912564863273,-404.9912577857087,1585.9009725929468,3550.6193102144375,6195.076548466272,8697.488450704628,11637.63691635572,14463.322098651184,17553.42841785293,20638.773815485696,23945.35677973709,27384.08325720826,30868.921383490728,34553.91938137047,38044.97129261152,41736.27248242766,44941.37852685196,48204.62145860451,50661.413450409585,53233.74160930415,54980.73160418649,56988.834677795734,58319.23285952007,60109.69699736798,61373.66579457114,63190.147362965035,64572.40159182568,66442.21442248994,67848.63088710677,69570.3187072657,70882.50021725896,72366.07490373551,73444.32305625953,74430.48202162767,75168.64838226419,75730.34772042606,76234.87129627125,76473.9008514763,76798.00114607826,76868.52089983475,77410.9753860206,77844.26395228672,79252.22268727097,81109.92087244045,84538.96904456247,88364.4030528549,93498.59875423893,97856.78659162362,99547.65135617869,99655.40911619773,99694.16704108323,99733.4390560912,99773.02399552155,99812.18425180725,99851.21039762622,99882.10050846345,99882.43578463027,99877.2725316611,99873.0704037035,99868.8682757459,99864.88966523287,99861.4698483312,99874.23269441519,99891.66705509032,99886.23558118768,99881.78758404107,99877.2725316611,99872.64572055885,99868.53299957908,99865.60492105543,99882.16756369681,99894.72924408069,99888.31429342202,99883.70983406423,99878.81480202852,99873.76330778161,99869.31531063502,99875.19381942676,99898.10435749344,99894.86335454743,99889.65539808934,99885.34151140947,99880.98292124069,99876.1772961828,99871.21520891371,99873.56214208153,99895.69036909228,99894.10339523594,99888.1801829553,99883.64277883086,99879.28418866209,99874.56797058201,99872.77983102559,99893.20932545773,99897.41145341533,99891.39883415686,99886.77202305461,99843.70021148924,98196.71192129994,91122.18363549515,80334.94118868605,67275.46510403932,54063.23719778505,40804.36120085254,28319.056727773754,16869.465037520535,7491.187154196162,568.5389719651904,-1830.1831877449977,-1908.7048660164912,-1914.4045608525946,-1921.1994911670079,-1928.128531948153,-1934.3423169067285,-1940.0643634872872,-1947.6863083465469,-1954.2577212164072,-1961.969073053488,-1967.2217330004853,-1972.6532069031248,-1978.9563988395214,-1985.7960326428454,-1991.741596667957,-1996.7260356814904,-2002.291620050862,-2009.0865503652753,-2015.389742301672,-2020.5976987597585,-2026.319745340317,-2031.6841640095909,-2036.8921204676774,-2042.54711181487,-2047.9115304841437,-2051.6219200637247,-2028.6219750192138,-1367.3009118200437,253.82641003446702,2331.9351472777307,5377.025053146488,8938.350848955019,13505.661607463553,18214.07892871844,23606.973720428196,28845.105033529406,34584.04953289623,39906.223405149394,45631.734506098575,50868.39060406573,56291.95198916817,61224.87023173216,66206.26940801971,70685.46958988543,75186.23920515052,79302.0223739174,83359.19926872246,86979.48896640408,90310.12240768938,93634.8996919274,96902.94824873786,99427.2648605424,99760.68583258222,99801.38835923534,99841.57679576598,99868.68946179027,99866.94602572275,99863.70502277673,99860.86635123091,99857.96062445172,99855.36782209491,99852.79737148255,99851.14334239285,99868.48829609017,99880.51353460712,99875.7749647826,99872.55631358104,99869.13649667938,99865.82843849999,99862.69919427624,99859.56995005251,99869.22590365719,99889.27541843361,99885.34151140947,99881.36290089642,99877.54075259456,99873.62919731489,99834.312478818,98951.73149725575,96707.23637428718,94041.23205438042,90340.45372491523,86516.7184492014,81870.68484672128,77414.79753432245,72620.05777598117,68517.88681958757,64651.28089800846,61870.612129045985,59678.91182648085,58797.046100741165,58705.91803859688,59870.26511076273,61946.40689449393,64948.20147135276,68449.22226062087,72319.7173857352,76344.26073363551,80083.61817403056,83655.0469583329,86621.43637197452,89226.5098364961,91062.25860861047,92769.52955359574,93780.49895530927,94925.84704468811,95562.3576715419,96620.19868137821,97385.23183885001,98767.73193689965,99687.90855263574,99886.66026433233,99884.51449686462,99880.3794241404,99876.51257234962,99873.00334847014,99869.13649667938,99866.02960420008,99882.43578463027,99897.97024702672,99891.97997951269,99887.3755201549,99882.8828195194,99878.34541539496,99757.71305056967,99157.68047066695,97321.75288459694,93880.14303209103,89948.985272525,85119.19797887778,80238.53811485031,74742.13239456802,69581.94161438246,64052.79058847316,58981.29153028626,53720.517900051826,48918.46912127366,43888.79017696264,39068.412967731114,34054.35789279436,29562.484271822486,25855.31334344308,23746.85093722951,23002.8284195457,23506.16735293476,24771.72312399425,26269.200595522,27764.197023415214,28815.734841315134,29806.85589395236,30350.942057483444,30960.474128779668,31342.510145009775,32165.523727598636,32991.44303696669,34554.74639591532,36269.4604718042,38750.23588540982,41261.409671474656,44317.51898735989,47177.46939390533,50253.918797244885,52772.5580659578,55068.082221517834,56560.10586739849,57552.14334155838,57838.71505721987,57794.03392005371,57552.12098981393,57305.64830370525,57288.01277733002,57462.959881181705,58163.93293904459,59123.113348855186,60763.50787443017,62613.38294904029,65081.060240395105,67571.31279364978,70846.96094357502,74432.38191990637,79164.55914551725,85238.64570124695,94684.11292840398,99461.68654700358,99709.54504126847,99749.50996035457,99789.83250735194,99829.79742643803,99868.10831643443,99883.35220615295,99878.21130492822,99874.7691362821,99871.30461589154,99867.99655771215,99865.02377569959,99861.76042100912,99866.9683774672,99890.41535740082,99889.43188064478,99885.09564222046,99881.20643868524,99877.29488340556,99873.65154905934,99870.09762169095,99870.65641530234,99891.59999985696,99893.14227022437,99888.11312772192,99884.00040674215,99879.70887180674,99875.64085431586,99871.818706014,99876.98195898319,99895.60096211446,99891.44353764577,99887.24140968817,99883.26279917512,99878.94891249525,99874.59032232646,99870.87993274689,99878.65833981734,99901.03243601709,99897.38910167088,99892.87404929091,99888.67192133331,99884.15686895335,99879.64181657336,99877.09371770546,99894.99746501417,99906.9332965533,99900.40658717234,99896.07034874802,99891.89057253487,99887.330816666,99882.70400556375,99878.3230636505,99874.50091534865,99887.28611317708,99906.59802038646,99900.74186333918,99896.15975572584,99891.59999985696,99886.70496782125,99881.92169450781,99877.63015957239,99874.67972930429,99891.26472369012,99903.826404074,99897.41145341533,99893.05286324656,99888.4260521443,99883.7321858087,99879.46300261772,99875.55144733805,99886.70496782125,99902.41824417333,99896.4279766593,99892.09173823497,99887.48727887718,99882.74870905266,99878.30071190605,99876.55727583854,99896.40562491484,99902.99938952916,99896.6291423594,99892.31525567952,99887.68844457727,99882.9275230083,99878.23365667269,99875.50674384914,99893.09756673547,99901.52417439512,99894.97511326971,99890.66122658983,99886.2802846766,99881.65347357435,99876.8702002609,99875.3279298935,99895.84683130347,99901.41241567284,99895.06452024753,99890.57181961201,99886.2802846766,99881.80993578552,99877.09371770546,99878.1218979504,99898.30552319354,99897.16558422633,99891.48824113468,99886.88378177688,99882.61459858592,99878.23365667269,99878.54658109506,99900.67480810582,99902.3288371955,99896.71854933722,99892.02468300161,99887.21905794372,99882.86046777492,99878.68069156179,99884.7827177981,99902.3288371955,99897.50086039316,99892.89640103537,99888.24723818866,99883.44161313077,99878.85950551744,99874.9703019822,99883.21809568621,99903.84875581846,99899.13253773839,99894.48337489169,99889.96832251172,99885.2744561761,99880.69234856276,99877.2725316611,99890.19183995627,99900.16071798334,99893.72341558021,99889.34247366697,99884.98388349818,99880.33472065149,99875.70790954924,99880.96056949622,99902.79822382907,99899.42311041632,99894.08104349149,99889.6777498338,99885.38621489838,99880.84881077395,99879.7759270401,99900.58540112799,99903.96051454074,99898.05965400454,99853.26675811611,99261.9290068065,98508.38464598473,96622.92559420176,93696.07641650157,89774.95459019596,84657.36623494224,78943.09806145407,72457.04650366861,66220.59687621557,59960.67791708445,54784.818564035726,49764.88498030722,45608.64515407624,40795.26404085923,36307.369030400405,31385.60430831961,27607.60070176133,24338.568668194854,23124.757185549402,23163.96214532401,25299.604272795234,28172.2504701913,32201.308870471585,36353.39127223388,41085.70260831149,45969.022329929154,51368.24266531976,57196.10240412979,63448.958212013036,70014.71609052613,76377.38601891829,82569.13215746071,87449.16617264345,91207.96963071462,93181.27103820695,94953.92083572398,96150.11914373864,98457.51207560445,99719.87154720683,99882.078156719,99877.2725316611,99873.9197699928,99870.81287751353,99656.41494469822,98183.7702612603,96527.37188665532,94338.04086900245,93036.43173413655,92090.21533611004,92031.83257959278,92117.4397608566,92082.1910598506,91480.12447120243,90032.51374155447,88006.26105144752,85235.7623262122,82566.22643068152,79464.07252121836,76960.58773524615,74130.20868661508,72074.04936242693,69574.4761317344,67750.8867086037,65274.64869912252,63474.99799430347,61206.58650476772,59788.97181617878,57917.728473869385,56832.61833579759,55391.84723995296,54394.26653316814,52897.32550350732,51490.886687146034,49552.096373092696,47711.318458475886,46065.04542410916,44795.86867044791,44151.64669175705,43896.79210147764,44254.5988267182,44672.82231722144,45795.08105457795,46520.79749355287,47872.36277727637,48889.81418488195,50793.691074096096,52504.06891156065,55565.207369948315,58404.84004078389,61827.56266922506,64569.5405685354,67535.50529903237,69651.90257452757,72237.86529753987,74309.1344009798,76972.54591852975,79592.19272043619,82751.79061314948,85706.93709933008,88537.00322353879,90886.46213846948,92635.8214182641,93801.91192649746,94099.79362485334,94263.40839426618,93639.03476465163,93014.86230073718,91718.46112232938,91042.76788744544,89770.01485467135,89262.16086890231,88159.43755619974,88068.71182545566,87677.35513178768,88346.07462240156,88744.02508068384,90138.21514108362,91386.73888286816,93485.59003896595,95259.51388591694,97260.88908444514,98467.61506409825,99265.75115510836,99229.38486687957,98682.50473529157,97755.53318924108,96373.5471813139,94961.3639666276,92804.73355111285,90558.76321301023,87469.1933356754,84539.84076259623,80482.55210906889,76472.0009531976,71240.82103262199,66048.10846425396,59579.15599097681,53212.64156253834,45791.08009232046,38817.738153664846,31140.025691989147,23865.53870028719,16037.756626338558,8714.185203812744,1668.088336955111,-1741.178541323965,-1945.0488025008206,-1949.8991310476222,-1954.9953287834323,-1960.6279683861696,-1966.9311603225663,-1972.3402824807506,-1977.6823494055689,-1984.5443349533482,-1991.6745414345912,-1995.8319659032782,-2002.0904543507643,-2006.449044519549,-2011.0088003884318,-2017.4013993026495,-2023.034038905387,-2027.5937947742696,-2034.5004838109594,-2038.970832702021,-2042.9270914706103,-2048.649138051169,-2054.4382398650932,-2058.975643989521,-2063.602455091769,-2068.6315975942134,-2073.928961030121,-2077.929923287621,-2080.9921122779983,-2085.2165919800514,-2090.4245484381377,-2095.6325048962244,-2100.3040194873834,-2103.8802986002324,-2107.3895224797157,-2112.485720215526,-2117.1572348066848,-2121.158197064185,-2044.5364170713924,-1190.006874800548,1348.547798222041,6392.822431662373,11530.99674355945,16869.822665431817,19957.559699721303,20466.330107013,15386.963234777837,4932.001821041325,-1647.9717669453344,-2172.5225058224805,-2175.897619235232,-2179.451546603626,-2184.033654216964,-2188.1910786856506,-2192.4602618766144,-2195.477747378081,-2199.0093230020193,-2203.859651548821,-2206.7206748391004,-2208.3970556732484,-2211.638058619268,-2215.415503432215,-2219.349410456349,-2222.925689569198,-2228.1559977717397,-2232.693401896167,-2235.2638525085276,-2239.9353670996866,-2244.2939572684713,-2248.116105570329,-2251.759439916544,-2255.5815882184015,-2258.956701631153,-2262.912960399742,-2266.2657220680385,-2269.1938005916836,-2271.987768648597,-2276.1228413728286,-2277.6874634847004,-2278.3133123294488,-2280.9061146862646,-2284.750614732577,-2289.667998512745,-2292.7748909920324,-2296.8876119718093,-2300.8215189959433,-2305.2248126536388,-2309.046960955496,-2312.310315645971,-2315.573670336446,-2318.0100104820744,-2321.832158783932,-2326.2578041860825,-2330.2587664435823,-2334.1032664898953,-2336.8972345468087,-2340.4511619152026,-2344.7203451061664,-2347.916644563275,-2351.336461464937,-2355.2927202335263,-2359.293682491026,-2363.272293004071,-2366.423888972269,-2361.215932514183,-1795.2921146502633,475.4216045643812,4557.118363036914,10675.260207088018,17683.426163604996,26221.27845540982,35120.98313820161,45120.37129645006,54829.72321864644,65078.176865360365,74657.15106214894,84545.89808534362,93378.14520336929,98744.2626052216,99455.38335506718,99496.66702707614,99537.81658861836,99578.49676352701,99618.99812448003,99659.9688720666,99700.8278609309,99741.1951114172,99781.4058996923,99822.30959204551,99860.19579889724,99870.5670083245,99865.44845884424,99862.98976695417,99860.39696459734,99857.46888607371,99854.38434533887,99851.92565344878,99864.50968557713,99879.68652006227,99874.61267407093,99871.34931938045,99868.4212408568,99865.18023791078,99861.73806926467,99860.28520587507,99879.70887180674,99888.53781086658,99883.06163347502,99879.39594738436,99875.93142699379,99872.26574090311,99868.35418562344,99867.90715073433,99889.36482541142,99893.14227022437,99887.75549981065,99883.64277883086,99879.93238925129,99876.11024094943,99872.06457520301,99869.42706935729,99887.88961027737,99898.21611621573,99892.13644172388,99887.66609283282,99883.48631661967,99879.55240959555,99875.3726333824,99875.48439210468,99898.17141272682,99901.50182265065,99895.84683130347,99891.35413066795,99886.81672654352,99882.70400556375,99878.39011888386,99880.55823809604,99902.82057557353,99902.23943021768,99897.00912201514,99892.38231091289,99887.66609283282,99883.3745578974,99879.10537470644,99875.35028163795,99889.92361902281,99903.55818314054,99897.50086039316,99892.94110452427,99888.22488644421,99883.75453755315,99879.48535436217,99874.9703019822,99877.04901421655,99900.20542147224,99900.27247670562,99894.93040978079,99890.30359867855,99885.65443583185,99881.40760438534,99877.38429038339,99887.30846492153,99907.73795935369,99902.84292731798,99841.0627056435,98167.40878431902,90194.65329583327,75958.5813830592,61638.26574543307,49072.450288826265,40692.17779543135,35040.49450641805,33183.01983869312,33465.411778141475,36952.753299802935,42095.57677454672,49866.697176301146,59347.50251144201,71665.90650867301,86467.656370122,97940.15859844192,99863.86148498792,99884.33568290898,99878.94891249525,99875.48439210468,99872.2210374142,99868.89062749036,99865.33670012197,99863.19093265427,99879.06067121752,99892.53877312408,99886.99554049916,99883.5310201086,99880.06649971801,99876.49022060516,99872.80218277004,99870.18702866878,99885.38621489838,99897.50086039316,99891.66705509032,99887.88961027737,99884.35803465343,99880.5805898405,99876.75844153864,99872.95864498123,99878.68069156179,99899.04313076058,99895.55625862554,99891.04120624557,99774.32039669996,96045.40122096553,83573.66425677112,63370.28007153035,36859.32300797976,10716.74504479707,-1191.7056073791514,-1874.841973166701,-1880.22874358043,-1885.749624460891,-1891.5163745303603,-1898.4230635670501,-1903.228688624941,-1908.749569505402,-1915.2986306308069,-1921.6688778005694,-1927.9050145036001,-1933.135322706142,-1938.2538721864073,-1944.4676571449827,-1950.5473316368261,-1956.068212517287,-1962.259645731407,-1968.7640033679013,-1973.6366836591583,-1978.2187912724962,-1982.9126576081107,-1988.4335384885717,-1994.6249717026917,-2000.0117421164207,-2003.386855529172,-2009.4441782765603,-2013.8474719342557,-2018.0495998918534,-2022.1176173827193,-2027.3702773297166,-2032.3100128543394,-2036.6238995342137,-2041.4295245921046,-2046.2798531389062,-2050.0125944629426,-2054.147667187174,-2059.087402711797,-2064.5635801033472,-2067.6257690937246,-2050.5937398187807,-1048.9673672875604,2216.4213319327037,7546.194797300673,14541.843776922677,22009.293378507304,30500.631690100636,38671.71420713833,47866.55132371799,57304.86599264932,70375.5626530126,87594.87719474759,98731.38800041533,99683.16998281122,99724.47600656463,99765.55851287348,99806.52926046005,99844.4154673118,99854.13847614986,99850.24927261464,99847.90233944682,99845.55540627902,99843.54374927805,99842.20264461073,99856.44070582876,99864.80025825504,99861.08986867547,99858.63117678538,99855.99367093966,99853.08794416046,99852.43974357126,99872.8692380034,99882.94987475275,99877.60780782794,99874.322101393,99871.14815368035,99867.66128154533,99863.99559545465,99860.88870297537,99865.11318267742,99884.98388349818,99882.65930207483,99878.5242293506,99875.03735721558,99871.39402286935,99867.70598503423,99866.38723211137,99887.53198236608,99895.98094177019,99890.14713646736,99886.03441548758,99882.21226718572,99878.30071190605,99874.09858394845,99872.75747928114,99893.05286324656,99898.43963366028,99892.71758707972,99888.22488644421,99883.9780549977,99879.84298227346,99875.55144733805,99871.25991240263,99878.9712642397,99899.95955228324,99895.64566560337,99890.68357833428,99886.50380212115,99882.59224684146,99877.96543573921,99872.95864498123,99878.3230636505,99899.75838658314,99896.60679061494,99891.51059287913,99887.01789224362,99882.94987475275,99878.68069156179,99874.63502581538,99876.26670316061,99566.91855989916,97969.84171507857,94963.42032711749,91167.33415929487,86734.04446054036,82054.14796521045,77107.72926899545,72181.11421836785,67182.34773663852,62326.18538453405,57469.62070102939,52732.414332916065,47963.468487676204,43277.9170009991,38572.89714490141,33922.7061179526,29320.683100304974,24825.255551964707,20439.66447587782,16140.038208966043,12032.100502502979,8068.666823943476,4394.665884335743,852.9649201589729,-1500.0702738845675,-1951.3072909483067,-1959.1080497632088,-1964.584227154759,-1970.8203638577897,-1975.804802871323,-1980.9680558404991,-1986.4889367209598,-1992.3674455127057,-1998.1788990710854,-2003.6550764626356,-2008.7512741984458,-2013.2663265784176,-2018.2060621030407,-2023.548129027859,-2029.5607482863365,-2035.0592774223421,-2039.5296263134035,-2043.932919971099,-2049.1408764291855,-2054.54999858737,-2059.288568411895,-2063.200123691574,-2067.536362115903,-2072.766670318445,-2078.0863854988083,-2082.154402989674,-2086.7588623474676,-2091.519783916448,-2096.3030572298835,-2099.7228741315453,-2104.1708712781515,-2108.3953509802045,-2112.4633684710707,-2117.246641784506,-2120.8229208973553,-2124.6674209436683,-2128.4672175010705,-2132.4905315030255,-2135.7538861935004,-2140.3359938068384,-2145.0075083979978,-2147.9132351771873,-2151.824790456866,-2155.401069569715,-2160.832543472355,-2164.230008629562,-2166.867514475288,-2171.1590494107068,-2175.1600116682066,-2180.055043703919,-2183.8995437502317,-2187.3640641408047,-2191.186212442662,-2196.8859072787654,-2202.0044567590307,-2205.0442940049525,-2209.24642196255,-2213.4932534090585,-2216.331924954882,-2220.4669976791142,-2224.4232564477034,-2227.4854454380807,-2231.7099251401337,-2236.15792228674,-2238.9965938325636,-2242.7293351566,-2246.6185386918237,-2251.44651549417,-2255.7827539184996,-2259.1131638423403,-2263.3152917999378,-2267.5621232464464,-2270.6243122368232,-2274.2005913496723,-2277.575704762424,-2281.822536208932,-2286.0693676554406,-2289.31037060146,-2291.590248535901,-2294.7194927596443,-2297.044074182996,-2299.413359095259,-2301.894402729798,-2305.6718475427447,-2309.6281063113342,-2313.338495890915,-2316.288926159016,-2318.8370250269204,-2320.759275050077,-2324.044981485007,-2327.978888509141,-2331.89044378882,-2336.0925717464174,-2340.629975870845,-2345.1673799952723,-2348.788362597032,-2353.3257667214593,-2357.37143246787,-2361.1041737919063,-2365.4180604717803,-2369.5307814515572,-2373.241171031138,-2376.3927669993363,-2379.790232156543,-2384.1711740697833,-2386.920438637786,-2391.7037119512215,-2394.721197452688,-2396.8893166648527,-2399.1244911103836,-2402.0749213784843,-2404.6900754797553,-2407.2605260921155,-2411.3508953274363,-2414.8154157180093,-2417.8329012194754,-2421.0962559099503,-2424.046686178051,-2427.8911862243635,-2431.601575803945,-2435.7142967837212,-2440.1622939303275,-2442.4645236092238,-2445.593767832967,-2449.9747097462073,-2454.355651659447,-2458.3789656614026,-2461.9328930297966,-2464.9950820201734,-2468.973692533218,-2473.198172235271,-2477.0650240260393,-2480.5295444166118,-2484.597561907478,-2488.6655793983437,-2492.755948633665,-2496.555745191067,-2500.243783026193,-2504.2894487726035,-2507.3516377629803,-2511.7772831651314,-2516.1135215894606,-2518.9298413908296,-2523.4672455152568,-2528.295222317603,-2532.3855915529243,-2535.2466148432036,-2538.2864520891253,-2542.3097660910807,-2546.2883766041255,-2550.0211179281614,-2553.5973970410105,-2557.17367615386,-2561.532266322645,-2564.370937868469,-2567.522533836667,-2570.607074571499,-2575.5691618405776,-2579.3466066535243,-2583.548734611122,-2588.577877113566,-2591.193031214837,-2595.8645458059964,-2600.0219702746836,-2602.6594761204096,-2605.833423833063,-2608.448577934334,-2608.8956128234404,-2610.70610412432,-2614.192976259348,-2618.3504007280353,-2622.8878048524625,-2627.0452293211497,-2631.448522978845,-2636.2541480367363,-2641.7750289171972,-2645.261901052225,-2648.547607487155,-2653.129715100493,-2657.555360502644,-2660.796363448663,-2665.132601872993,-2669.62530250851,-2673.4027473214564,-2676.844915967574,-2681.359968347546,-2685.3609306050457,-2689.227782395814,-2692.3123231306463,-2695.933305732406,-2700.3365993901016,-2705.388093637001,-2708.4949861162886,-2712.004209995772,-2715.9604687643614,-2719.357933921568,-2723.2024339678806,-2727.002230525283,-2731.137303249515,-2734.5571201511766,-2737.4851986748217,-2740.994422554305,-2745.3977162120004,-2748.482256946833,-2752.3714604820566,-2757.1770855399473,-2761.0439373307154,-2765.7825071552406,-2769.6940624349195,-2773.0468241032154,-2776.6007514716093,-2779.864106162084,-2784.6250277310646,-2787.9554376549054,-2791.3081993232013,-2793.5657255131873,-2789.4306527889553,-2788.4918795218327,-2786.9719608988717,-2788.6259899885645,-2795.5326790252543,-2799.824213960673,-2803.087568651148,-2807.9155454534944,-2811.4918245663434,-2815.3586763571116,-2819.359638614612,-2823.4947113388434,-2827.3615631296116,-2831.6083945761197,-2835.7881707892625,-2839.9455952579497,-2844.1700749600027,-2848.8862930400724,-2853.870732053606,-2856.932921043983,-2861.0456420237592,-2865.627749637097,-2869.7404706168736,-2872.892066585072,-2877.8318021096948,-2882.592723678675,-2886.19135453598,-2890.2146685379353,-2893.5897819506863,-2896.9425436189827,-2900.831747154206,-2904.117453589136,-2907.6490292130748,-2911.314715303745,-2916.0085816393594,-2919.4507502854767,-2923.8093404542615,-2927.206805611468,-2930.693677746496,-2935.320488848745,-2939.4555615729764,-2943.769448252851,-2946.094029676203,-2949.7150122779626,-2953.2018844129902,-2956.800515270295,-2961.5390850948197,-2964.981253740937,-2968.4904776204203,-2972.133811966635,-2975.821849801761,-2979.1299079811465,-2981.6556551045965,-2987.02007377387,-2991.5798296427524,-2995.3796262001547,-2999.0229605463696,-3001.9957425589255,-3006.1531670276127,-3010.243536262934,-3013.797463631328,-3017.887832866649,-3022.0899608242466,-3026.180330059568,-3030.4495132505317,-3034.003440618925,-3038.496141254442,-3043.011193634414,-3046.8556936807267,-3051.1025251272354,-3055.505818784931,-3059.4173740646097,-3063.08306015528,-3066.7487462459503,-3069.8332869807828,-3073.789545749372,-3077.209362651034,-3080.56212431933,-3083.557258076341,-3088.429938367598,-3092.430900625098,-3094.911944259637,-3098.9576100060476,-3103.3162001748324,-3108.0994734882684,-3112.3910084236873,-3115.810825325349,-3119.632973627207,-3122.4716451730305,-3125.556185907863,-3129.33363072081,-3133.692220889595,-3137.223796513533,-3140.3083372483657,-3143.6163954277513,-3148.62318618574,-3151.8641891317593,-3155.9992618559913,-3160.2237415580444,-3163.5765032263403,-3166.10225034979,-3168.6727009621504,-3171.757241696983,-3175.8252591878486,-3179.334483067332,-3181.592009257318,-3184.2742185919547,-3188.5657535273735,-3192.969047185069,-3196.0535879199015,-3199.406349588198,-3203.362608356787,-3207.944715970125,-3212.2138991610886,-3214.9631637290913,-3217.4665591080857,-3221.0204864764796,-3226.206091190111,-3229.6706115806833,-3232.7775040599713,-3236.4431901506414,-3240.6453181082393,-3245.5403501439514,-3247.8202280783926,-3251.6423763802504,-3256.135077015767,-3259.26432123951,-3262.55002767444,-3267.0203765655015,-3270.5072487005295,-3274.329397002387,-3278.4197662377082,-3281.549010461451,-3284.41003375173,-3288.36629252032,-3291.4731849996074,-3293.0825106003895,-3296.0105891240346,-3301.1067868598448,-3305.0853973728895,-3308.5946212523727,-3312.4391212986857,-3315.0766271444118,-3318.004705668057,-3322.4079993257524,-3325.8501679718697,-3329.1135226623446,-3332.8909674752913,-3336.6684122882384,-3340.065877445445,-3345.251482159076,-3349.2747961610316,-3353.1416479517998,-3339.060048944956,-3066.145249145657,-2469.957169289252,-1281.1796404337456,103.13094891678679,1746.6323669710598,3465.705033028726,5192.3325887122855,6952.532464567717,8656.875331029336,10435.984782693957,12127.989486216245,14001.691520415727,15805.276132258909,17807.9030284766,19676.46416145136,21718.005444765742,23573.893138634343,25650.057274109993,27534.82342181485,29612.887455569205,31481.292126332777,33508.260072262296,35386.27599314165,37431.862942202446,39370.49679404459,41487.81049106246,43561.493582903575,45748.56707436646,47850.48041945463,49924.87876711831,51868.9440928631,53648.94761430593,55386.14754511685,57002.67040761357,58602.11653734643,60084.17130520002,61830.401340770884,63517.175736090634,65253.54865235671,66621.18484034359,68022.03572059104,69363.90034722094,71156.73376998112,73034.97320830503,75368.51768118354,77740.23893359173,80414.84867511377,82916.34415582946,85540.50601011587,88029.59627265886,90526.8672736725,92658.57549411959,94499.73338839214,96002.95525824491,97349.24553027697,98546.98610865905,99367.54099935782,99663.54515117945,99706.70636972265,99745.55370158597,99784.87042008287,99823.94126939074,99862.34156636496,99884.827421287,99880.40177588485,99875.93142699379,99871.6175403139,99867.21424665622,99863.10152567644,99864.55438906603,99884.69331082026,99883.64277883086,99878.41247062832,99874.2773979041,99869.96351122422,99868.73416527918,99887.80020329956,99890.66122658983,99884.98388349818,99880.29001716257,99875.7749647826,99871.79635426955,99878.18895318377,99895.95859002574,99890.90709577884,99886.34733990996,99881.8769910189,99877.2725316611,99872.48925834766,99869.5164763351,99886.61556084342,99899.40075867185,99892.87404929091,99888.38134865538,99884.04511023106,99879.50770610664,99875.08206070449,99885.34151140947,99901.41241567284,99895.46685164772,99890.68357833428,99886.01206374312,99881.76523229662,99877.20547642774,99873.80801127054,99890.9294475233,99901.8818023064,99893.61165685793,99888.29194167757,99883.3298544085,99878.63598807287,99873.83036301499,99882.18991544127,99901.77004358413,99896.36092142593,99891.48824113468,99886.77202305461,99881.76523229662,99878.1218979504,99893.90222953586,99904.34049419648,99897.52321213762,99892.76229056863,99888.33664516648,99883.75453755315,99878.9712642397,99874.34445313746,99873.18216242579,99894.61748535842,99900.09366274998,99893.61165685793,99889.23071494469,99884.76036605363,99880.04414797356,99875.3279298935,99877.0266624721,99899.44546216077,99899.22194471622,99893.47754639121,99888.85073528896,99884.40273814235,99879.73122355119,99874.9255984933,99877.60780782794,99899.08783424948,99896.85265980395,99891.35413066795,99886.68261607678,99882.43578463027,99877.49604910566,99872.53396183658,99881.6311218299,99896.51738363713,99890.37065391192,99885.54267710957,99880.69234856276,99876.28905490506,99872.15398218084,99875.84202001596,99899.40075867185,99898.30552319354,99892.82934580199,99888.31429342202,99883.68748231977,99879.30654040654,99874.83619151548,99870.23173215768,99875.1267641934,99898.79726157157,99897.29969469307,99892.00233125716,99887.01789224362,99882.56989509701,99878.79245028406,99874.7244327932,99877.2725316611,99897.83613655998,99895.71272083673,99890.61652310092,99886.01206374312,99881.25114217415,99876.75844153864,99872.80218277004,99884.08981371997,99900.8759738059,99895.15392722534,99890.70593007874,99886.36969165441,99881.65347357435,99877.16077293883,99881.92169450781,99899.51251739413,99894.86335454743,99890.14713646736,99886.16852595432,99882.05580497455,99877.04901421655,99879.39594738436,99899.19959297177,99896.36092142593,99891.19766845676,99886.83907828797,99882.63695033037,99878.1218979504,99887.35316841045,99905.56984014153,99900.07131100552,99895.15392722534,99890.46006088973,99885.85560153195,99881.65347357435,99877.40664212784,99872.84688625895,99877.65251131685,99901.12184299492,99898.75255808265,99893.20932545773,99888.40370039985,99883.88864801987,99879.5300578511,99875.05970896003,99873.38332812588,99894.75159582516,99902.79822382907,99896.78560457058,99892.60582835744,99888.31429342202,99884.31333116452,99880.3794241404,99876.2219996717,99874.59032232646,99894.01398825813,99899.53486913859,99893.83517430248,99889.29777017806,99885.16269745382,99880.98292124069,99877.33958689446,99892.09173823497,99906.70977910874,99900.40658717234,99895.69036909228,99891.24237194567,99886.83907828797,99882.79341254156,99878.18895318377,99878.85950551744,99902.30648545104,99904.60871512994,99898.70785459374,99893.76811906912,99889.25306668915,99885.34151140947,99881.6311218299,99877.29488340556,99881.29584566306,99903.51347965164,99901.18889822828,99896.00329351464,99891.53294462358,99887.24140968817,99882.81576428602,99877.96543573921,99879.86533401792,99901.56887788403,99900.60775287244,99895.39979641436,99890.75063356766,99886.2802846766,99881.92169450781,99877.56310433902,99876.4231653718,99895.98094177019,99898.59609587147,99892.71758707972,99887.68844457727,99882.97222649721,99878.4795258617,99874.03152871509,99882.8828195194,99900.76421508363,99895.51155513663,99890.88474403438,99886.41439514332,99881.72052880771,99877.40664212784,99874.59032232646,99892.09173823497,99903.89345930738,99897.70202609325,99893.61165685793,99889.18601145578,99884.3803863979,99879.84298227346,99875.88672350488,99886.50380212115,99902.99938952916,99896.80795631504,99892.24820044616,99887.91196202183,99883.39690964186,99878.74774679515,99876.35611013844,99894.61748535842,99903.826404074,99898.68550284929,99894.57278186952,99890.21419170072,99885.49797362066,99880.51353460712,99876.0208339716,99884.00040674215,99904.49695640767,99899.49016564968,99894.39396791387,99889.92361902281,99885.0285869871,99880.31236890702,99875.73026129369,99872.2210374142,99886.7273195657,99903.22290697372,99897.23263945969,99892.85169754646,99888.4260521443,99883.7321858087,99879.03831947307,99874.90324674884,99871.70694729174,99888.51545912212,99902.19472672878,99895.80212781456,99891.10826147893,99886.43674688778,99881.6758253188,99877.16077293883,99873.0704037035,99874.14328743736,99897.74672958217,99899.87014530542,99894.43867140278,99890.01302600063,99885.45327013175,99880.71470030722,99876.44551711626,99880.71470030722,99900.67480810582,99897.05382550404,99892.24820044616,99823.53893799054,99619.46751111359,99449.25897708643,99195.32080832969,99214.9679917059,98655.88380764531,98385.89708636964,97626.34010628941,97239.96785163497,96432.3099174869,95878.99248349578,94958.23472240385,94353.88825582126,93454.34230021744,92756.72200402284,91897.94563030549,91244.44767766568,90549.64370127246,89953.07564176031,89520.70349701685,89198.81602511597,89164.41669039926,89071.50048869854,89356.08289910352,89503.55970901964,90103.10055054433,90438.15319992938,91181.1698891127,91546.77737316817,92256.51231485752,92483.74014899018,92984.24041083342,92867.87722919909,92943.51553243585,92556.13744928091,92387.94057225474,91837.79708597626,91573.44300430335,91141.3614322378,90965.9225900081,90834.00259423288,90919.6097754967,91190.60232527285,91644.92388307142,92365.49942082161,93012.71653326947,93712.63905914297,93869.7047674304,93965.5266959103,93225.68395443964,92098.66429551414,89933.45081012855,87723.89146374362,85012.4683991037,82813.01204121257,80444.44238477258,78720.94407331277,76959.78307244576,75864.72640809136,74706.05667901716,74101.6878606901,73484.66795500135,73264.12329246083,72929.87530587618,72706.24610260082,72331.94378995226,71873.12953151816,71338.49815589168,70643.425958565,70046.58967811939,69249.54882258759,68679.15465583261,67918.4800885296,67565.70250579149,66995.37539426988,66882.20851209265,66475.71968742844,66461.28046051032,66111.27449408466,66253.45394056487,66082.82072339306,66336.84829912763,66354.93086039196,66796.80249652892,67021.66104574932,67532.84544144219,67808.3530435983,68153.70984717725,68276.2644620257,68409.70437642389,68449.64694376552,68373.3380881951,68331.49562257476,68156.34735302298,68252.41515069189,68215.57947582954,68477.98895573485,68544.5300989783,68989.41922061674,69097.69107075824,69588.42362027451,69788.35997442722,70390.3148043531,70559.89748953552,71096.71933611862,71144.21679308615,71406.93919741383,71175.15160741229,71051.83703325236,70569.93342279595,70202.44839220625,69657.62462110813,69234.17082240235,68763.82306382932,68380.11066676506,68089.29211965705,67660.36214355972,67308.635092811,66704.60155065078,66234.25379207775,65515.332283417265,65155.648011642465,64513.70591088604,64213.56668634018,63579.1571234652,63323.36375991866,62691.12231625585,62413.513650120934,61855.010611416175,61776.84656105597,61421.654989916686,61373.46462887104,61119.90643977004,61092.50320106783,60855.6641168194,60745.02298176563,60599.33431140594,60508.78739461749,60443.542652552445,60461.15582718323,60613.482965646144,60725.86753676743,61033.0028573278,61132.89280329857,61510.41376714871,61718.70967372772,62216.05833960275,62380.790696238364,62874.80895218956,63004.38201479698,63422.62785704468,63449.53935736887,63745.297640001496,63671.84980772136,63827.39559738584,63639.41742651671,63576.877245530755,63165.73925801984,62811.95584678124,62115.497841298326,61339.42292206561,60345.37379090474,59249.19953932757,58086.73001369596,56795.31327430168,55596.81273660812,54358.503742039655,53439.57882399307,52434.376172349,51824.66528709714,51185.13717474189,51063.119001760366,50937.144570010256,51302.68499883235,51600.76786288832,52458.67251857192,53277.26045575863,54536.17775871489,55639.661030728945,57088.05407143284,58351.30761281343,59657.05182040356,60639.18747176975,61422.32554225034,61664.55139691251,61477.13201965476,60896.45605045034,59964.70123108641,58759.18224563387,57251.53473037896,55707.610333873075,53888.89359103365,52220.00059127815,50468.42848878247,49102.513385118655,47823.457160408165,47126.55212003614,46608.438683562126,46728.02051639802,46934.23771074268,47600.029122832915,48269.329758802625,49301.265096815245,50204.566145487566,51268.017443182165,52165.2611691071,53106.94016300919,53836.054067141304,54414.83013806703,54831.13137854712,55184.84773455236,55545.26961389418,55897.60016174319,56391.193734549735,56829.84671948513,57554.22205379273,58366.01506066502,59535.32422009996,60693.65867300733,62051.21422424486,63295.71465202745,64739.16795720672,66007.71886202322,67378.28312853375,68506.93446480446,69770.6126893297,70884.48952251549,72036.16315557518,73045.9926183215,74176.94618427112,75362.79563460298,76807.4782857273,78473.48791044806,80531.94946431511,82981.00775253866,85883.270011338,89316.58736665099,93235.54107374443,97461.27247348697,99506.47944289201,99680.3760147543,99719.82684371792,99759.27767268154,99798.52733594505,99837.48642653065,99871.1258019359,99874.83619151548,99869.31531063502,99865.15788616633,99861.31338612002,99857.69240351826,99853.75849649412,99859.88287447488,99883.44161313077,99881.34054915197,99876.6243310719,99872.35514788094,99868.10831643443,99864.2191128992,99860.08404017497,99865.29199663307,99888.00136899966,99885.69913932076,99880.80410728505,99876.31140664953,99871.63989205836,99867.50481933414,99863.63796754337,99866.83426700048,99888.29194167757,99886.66026433233,99881.83228753,99877.63015957239,99873.04805195905,99868.84592400145,99864.88966523287,99861.20162739774,99874.54561883755,99891.13061322339,99885.40856664283,99880.98292124069,99876.26670316061,99871.52813333609,99867.32600537849,99863.1685809098,99870.54465658005,99893.76811906912,99890.66122658983,99885.76619455412,99881.13938345187,99876.4231653718,99872.13163043639,99867.79539201205,99865.76138326662,99885.2297526872,99892.24820044616,99886.2802846766,99881.80993578552,99877.00431072764,99872.46690660321,99868.28713039008,99864.19676115474,99874.90324674884,99894.77394756961,99889.8789155339,99885.00623524265,99880.29001716257,99875.64085431586,99871.39402286935,99867.12483967839,99862.81095299852,99872.71277579223,99894.55043012506,99889.8789155339,99884.827421287,99880.1782584403,99875.93142699379,99871.75165078064,99867.28130188958,99862.78860125407,99873.0704037035,99894.99746501417,99890.25889518963,99885.14034570937,99880.66999681831,99876.46786886071,99871.9751682252,99867.43776410077,99865.00142395514,99882.34637765246,99886.50380212115,99880.4241276293,99875.7749647826,99871.572836825,99867.23659840068,99867.23659840068,99887.50963062163,99888.51545912212,99883.10633696395,99878.59128458396,99873.78565952608,99869.5164763351,99865.44845884424,99862.18510415377,99878.56893283951,99891.24237194567,99884.89447652036,99880.35707239594,99875.73026129369,99871.23756065818,99867.12483967839,99863.81678149902,99879.84298227346,99894.66218884733,99888.58251435548,99884.06746197552,99879.46300261772,99874.9255984933,99870.7681740246,99866.45428734474,99865.13553442188,99886.41439514332,99892.47171789072,99886.54850561006,99882.03345323009,99877.4736973612,99873.2268659147,99869.0247379571,99864.73320302168,99873.65154905934,99894.99746501417,99890.70593007874,99885.8779532764,99881.25114217415,99876.825496772,99872.64572055885,99868.2200751567,99866.81191525602,99886.99554049916,99891.39883415686,99885.60973234293,99880.98292124069,99876.33375839399,99872.24338915866,99868.0189094566,99863.97324371019,99876.75844153864,99897.54556388207,99892.40466265734,99887.576685855,99882.79341254156,99878.50187760615,99874.322101393,99869.85175250194,99865.18023791078,99870.27643564659,99880.26766541811,99553.7980859039,98507.91525935117,97008.98492443383,95425.20736756413,93954.9766725274,92825.63243217855,92027.71985861301,91488.32756141754,91367.20345821422,92445.3175002715,94996.5679641447,97548.26546290702,99388.953970546,99880.40177588485,99863.30269137654,99320.55763251278,96627.10537041491,91600.51096683872,86442.7565267988,81728.8853798968,77370.22815587856,73679.59751839608,70562.69145759243,67983.791885828,65879.44220059422,64025.38734977095,62710.38951997632,61713.367606802894,60808.9042674189,59786.15549637741,58406.047034984476,56824.482300815864,55118.23953607554,53237.58610935046,51496.25110581531,49849.59809179284,48021.02422964862,46198.73120769635,44491.61672492227,42773.549887365094,40950.027519467774,38936.04593706679,36817.3911353816,34757.09673846921,32927.874675735795,32120.194389843273,33807.9299101746,37414.31682280503,41448.47142082112,45326.61084253917,49097.59600133848,51979.89815233924,53201.46569031068,53085.97422671011,52979.84814403631,53811.802424407295,55562.055773980115,57307.88347815078,58023.206355953975,57373.6423103383,55907.79255721481,54630.9938586943,53927.07037056331,53210.69696077073,51908.394921826715,50088.8735161869,48162.91310345091,46384.60831458668,44814.64413579037,43351.18601932359,42118.152036446576,41335.61746306628,40848.863524063054,40290.382837102756,39410.5511201085,38046.558266467844,36309.02305949009,34442.29476956067,32611.552788204288,30887.048648243985,29253.761977405786,27639.496641099053,26075.098046672112,24672.548433846052,23420.470764693113,22248.01000928998,21186.52566510745,20352.827948668953,19787.127648249585,19520.828964809058,19438.351027768975,19474.404391575383,19634.50993710875,19783.171389480995,19917.438318424025,20088.49621874049,20306.02339577954,20479.249415308168,20585.017870070682,20440.402083444846,19761.847825270634,18482.769248815686,16916.53781134341,15197.040462141093,13394.08169914266,11650.10918976178,10072.32190040611,8558.862931592814,7109.955800766445,5791.5828575590685,4564.941473596272,3325.4701883161297,2048.4479723510713,750.1468956645604,-506.0211427236966,-1658.2312176503203,-2222.6127651468237,-2273.239466338094,-2277.7768704625214,-2283.1859926207057,-2286.8740304558314,-2290.629123524323,-2296.2170596381497,-2300.2627253845603,-2303.88370798632,-2308.5775743219347,-2314.4560831136805,-2318.3676383933594,-2322.9273942622417,-2328.470626887158,-2331.7116298331775,-2336.5172548910687,-2340.428810170747,-2343.669813116767,-2347.6484236298115,-2352.1858277542387,-2356.4773626896576,-2360.4112697137916,-2364.2781215045597,-2368.5249529510684,-2372.6823774197555,-2376.1021943214173,-2380.527839723568,-2385.400520014825,-2389.0438543610403,-2392.083691606962,-2396.5763922424785,-2400.957334155719,-2403.7513022126323,-2406.14293886935,-2410.009790660118,-2415.262450607115,-2418.6822675087774,-2421.9456221992523,-2426.080694923484,-2429.656974036333,-2433.590881060467,-2436.5860148174784,-2440.8104945195314,-2444.2526631656488,-2448.2759771676037,-2452.6345673363885,-2456.0990877269614,-2460.1000499844613,-2464.1233639864167,-2466.8279250655087,-2470.1806867338046,-2475.0980705139723,-2479.233143238204,-2482.362387461947,-2485.5363351746005,-2488.7773381206202,-2493.5382596896006,-2497.002780080173,-2500.3778934929246,-2504.1553383058713,-2506.9940098516954,-2510.816158153553,-2515.0629896000614,-2519.5780419800335,-2523.109617603972,-2526.551786250089,-2530.575100252044,-2535.2242630987485,-2539.2475771007034,-2542.600338769,-2545.88604520393,-2549.17175163886,-2552.949196451807,-2556.972510453762,-2560.101754677505,-2564.2368274017367,-2567.231961158748,-2570.6964815493207,-2573.7363187952424,-2576.12795545196,-2581.1570979544044,-2585.3145224230916,-2588.8013945581192,-2591.5059556372116,-2594.7916620721417,-2599.329066196569,-2603.79941508763,-2607.4427494338456,-2610.102607024027,-2613.3659617145017,-2618.0821797945714,-2621.367886229502,-2624.8994618534402,-2628.9227758553957,-2633.683697424376,-2637.0811625815827,-2639.9868893607727,-2642.512636484222,-2646.155970830437,-2649.9557673878394,-2653.062659867127,-2656.169552346415,-2660.5728460041105,-2664.5514565171547,-2667.1889623628813,-2671.167572875926,-2673.6262647660096,-2677.6272270235095,-2680.8458782250736,-2684.1762881489144,-2688.1101951730484,-2692.6252475530205,-2696.1121196880486,-2698.1237766890263,-2702.3706081355344,-2706.2598116707577,-2710.2160704393473,-2713.0547419851714,-2716.5639658646546,-2720.96725952235,-2723.716524090353,-2727.1810444809253,-2731.5843381386208,-2734.9818032958274,-2729.7291433488303,-2363.8087348709983,-710.4725492563903,2129.987136124031,5544.439619116738,8902.632761315437,11723.489966808555,13830.410102654709,15265.660317618886,16160.937090031755,16791.569208093788,17353.939098589315,17879.070982822297,18253.529757682056,18293.38291804587,17843.107025993708,16929.412416149666,15649.663287361062,14130.146995800376,12516.395749616117,10947.191530131286,9529.420379331157,8286.037538771336,7201.128566399642,6275.989863394483,5528.3240113644615,5002.387464331086,4727.684524975362,4662.618596865964,4771.359833641032,5032.9646507459465,5376.712128724114,5701.527679148636,5969.569798656678,6157.011527658883,6293.513631047444,6331.10926522127,6234.303859985335,5987.048862820729,5598.1732127872965,5195.573591658305,4918.009629012302,4810.4977381822755,4862.53259927423,5063.184209249522,5393.006550432033,5841.628413394501,6378.114983810781,6998.599409890105,7661.976833579163,8328.349391025233,9013.765634747224,9780.609283519898,10726.9821437576,11807.823098638428,12892.12857390983,13865.16706528271,14625.260487229883,15127.727702585185,15387.812601067139,15394.965159292837,15161.098857056959,14789.635215954211,14436.052970415709,14172.883531198924,13967.225130465644,13764.718325700562,13547.30290738379,13384.559856004698,13315.895297037996,13366.164370317982,13534.517709555354,13781.057450897391,14037.677828988772,14270.448895746338,14498.906075824032,14737.935631029086,15003.116727246848,15373.03809798218,15989.298044359452,16916.11312819876,18019.261124045985,19044.37917999973,19808.40650897104,20285.415087391746,20526.568058320056,20552.67489584385,20413.401176142834,20113.731338230533,19685.829542378135,19158.998925566546,18522.935333601872,17805.645502286614,17037.41604535771,16313.577152917047,15665.421267202053,15054.659849960788,14443.674915274969,13884.188399814178,13462.075705775704,13248.90711890544,13170.877179011963,13023.087444673472,12533.494834124427,11472.189303897538,9648.979860422596,6846.674602827383,2986.662445862585,-1197.4723574486206,-3031.0977138397357,-3135.1003807902794,-2959.505076349387,-1421.8168165465377,1976.7212243939907,6272.055956370349,10499.933123580591,14164.412220050363,16988.21985581158,18963.532920304886,20124.46017556908,20557.16759647937,20474.287328039092,19921.104004514695,18770.167979022026,16763.562472291287,13996.058880812989,10911.965180869722,8061.514265717777,6114.342047493702,5532.861415488889,6400.354969543811,8452.245110541,11352.67452629501,14673.875531420175,17958.598489594282,20810.904599536014,23110.34031037573,25251.6597809386,26788.073991307498,27662.13895823228,28098.89204488898,28233.91893314349,28169.43415038993,27969.721313681763,27679.39450495178,27282.583985636713,26480.156359691187,24798.23229291824,22239.06931150786,19300.016081335078,16738.729684201444,15319.237449078257,15322.880783424473,16347.417694022382,17638.07447410518,18666.388829516036,19353.839081983457,19788.088773261163,19970.47900801647,19849.891346680088,19409.807850099547,18618.28787544821,17565.207787180876,16505.824506977144,15794.9272745761,15767.948719018546,16608.441365771458,18120.91685782872,19848.863166435145,21429.7573482701,22710.02056718118,23576.552996224524,24061.09411252667,24277.95073723206,24322.363653464756,24268.94298421657,24169.790645812827,24053.069836267216,23921.485116658823,23807.647682147945,23715.491439758713,23610.86292396342,23450.176233074217,23160.72114237799,22603.08982170699,21596.23314097323,19857.870919450634,17174.007555724093,13436.527661863287,8794.495021640661,3953.576559254713,-66.87641941027873,-2356.365603967381,-2633.124903812993,-1461.155886787878,281.09553826994164,2055.2429026654845,3706.410969067928,5209.431673220596,6460.168237706213,7602.588248561412,8790.136431471878,9865.545912450065,10752.17255975873,11503.03471124586,12259.507150591273,12958.781475875554,13133.482710538234,12475.13442935162,11068.315633334594,9085.291217004207,6634.109513057413,4047.163313289084,1656.6218920495382,-493.3030001286269,-2427.4665030797128,-3425.7848174315477,-3353.745145052093,-2149.276691588961,239.5883488164364,3231.59286160384,6359.048945790404,9768.226417091659,13716.349150699276,18099.459183151626,22521.08127130047,26646.922725072232,30349.82447026068,33531.327072540174,36022.205474639595,37852.47806936241,39312.203444505154,40417.09487641989,40958.431775382975,40860.73230036882,39913.57712907519,37551.265961082696,33116.74691638314,26761.274249705584,19103.991282462037,11991.75560376115,7608.824385264443,6868.668719371405,8456.983680365525,10508.136213795688,12223.811414696147,13557.361192388678,14796.206628824071,16265.275033149128,17745.027571323822,18646.182852528436,18792.3856130106,18260.4587984632,17042.445187860154,15515.530468884763,14289.11260236652,13512.76946220034,12793.557380861925,11915.916134824292,11004.523754659147,10258.578986952185,9953.522378626154,10211.863841040593,11021.064045556075,12490.780650470335,14765.54003543139,17856.115741266698,21839.710693324887,26663.93240260272,32109.420849015816,38220.7230592636,44404.06494189083,49610.72499879897,54043.38884870873,57466.82673297248,59182.881913528676,59184.982977507476,57588.800202465085,54577.79670689067,50399.24983969329,45249.944359057474,39370.5414975335,32794.32300261533,25699.924015989785,18528.43386273788,11665.554245180398,5003.7956242317705,-818.2079575309704,-2967.6187595866636,-3058.344490330755,-3062.993653177459,-3067.3745950906987,-3071.174391648101,-3074.080118427291,-3078.4834120849864,-3082.8643539982268,-3087.759386033939,-3091.8721070137153,-3096.3424559047767,-3100.5669356068297,-3104.94787752007,-3109.194708966578,-3111.7428078344833,-3116.2802119589105,-3121.7340376060056,-3125.4220754411313,-3127.5678429088407,-3132.5522819223743,-3136.396781968687,-3139.838950614804,-3144.5551686948743,-3147.5055989629745,-3152.5123897209633,-3156.3792415117314,-3158.5473607238964,-3161.6989566920947,-3166.3257677943434,-3171.3772620412424,-3175.0876516208236,-3177.9933784000136,-3181.301436579399,-3185.235343603533,-3188.9904366720248,-3192.164384384678,-3196.2771053644547,-3201.038026933435,-3204.0555124349016,-3207.3859223587424,-3211.9903817165355,-3215.7678265294826,-3219.4335126201527,-3222.808626032904,-3225.759056301005,-3229.1788732026666,-3233.425704649175,-3237.4713703955854,-3241.2711669529876,-3244.8474460658367,-3249.138981001256,-3252.1117630138115,-3255.397469448742,-3260.0913357843565,-3263.4440974526524,-3266.7074521431273,-3270.104917300334,-3274.418803980208,-3277.928027859691,-3280.9678651056133,-3284.432385496186,-3288.299237286954,-3290.8026326659483,-3294.200097823155,-3299.2292403255988,-3302.0455601269678,-3305.644190984272,-3308.8851939302917,-3311.9920864095793,-3316.261269600543,-3319.3681620798307,-3322.899737703769,-3326.096037160878,-3329.426447084719,-3333.4497610866742,-3337.584833810906,-3341.406982112763,-3344.9832612256128,-3349.6324240723166,-3352.3369851514085,-3355.041546230501,-3358.930749765724,-3363.356395167875,-3367.2008952141878,-3369.7936975710036,-3372.7664795835594,-3377.3485871968974,-3382.6012471438944,-3386.1998780011986,-3388.703273380193,-3393.866526349369,-3398.5380409405284,-3400.907325852791,-3403.38836948733,-3405.645895677316,-3408.7304364121483,-3412.5078812250954,-3416.352381271408,-3418.8557766504023,-3422.096779596422,-3426.1647970872878,-3429.8304831779583,-3432.7138582126927,-3436.9383379147457,-3440.8275414499694,-3443.7556199736146,-3447.957747931212,-3451.6457857663377,-3456.384355590863,-3460.899407970835,-3462.0616986825107,-3465.3921086063515,-3469.415422608307,-3473.215219165709,-3476.9703122342007,-3479.1384314463658,-3482.155916947832,-3485.9110100163234,-3488.8837920288793,-3492.057739741533,-3497.422158410807,-3500.707864845737,-3503.926516047301,-3507.413388182329,-3510.6543911283484,-3513.962449307734,-3517.985763309689,-3521.606745911449,-3525.2947837465745,-3529.340449492985,-3533.0731908170214,-3529.027525070611,-3082.0596911978355,-1285.649989324807,1234.1515700997795,4769.549342340153,8489.594875525818,12852.029544357008,17186.949215763714,22036.651913720598,26887.78512332262,32220.41961198087,37638.63893015849,43419.06826723436,49269.34680573307,55285.564695067966,61594.56808502294,68224.87780152295,75245.53838319045,82147.10887040006,89059.9222850707,95019.81377837823,98331.7611612989,98651.90519713226,98691.98187494063,98732.59499461592,98773.1634108023,98813.30714384404,98853.3838216524,98893.52755469413,98933.76069471368,98973.68091031085,99013.28820148566,99053.07430661611,99092.97217046883,99132.44535117691,99171.67266269597,99210.94467770394,99250.41785841202,99289.80163214226,99328.87248145015,99367.74216505792,99406.90242134362,99446.01797414041,99484.68649204809,99523.22089948904,99562.22469356355,99601.07202542688,99639.60643286782,99677.89497111976,99716.47408204962,99755.23200693513,99793.56524867598,99831.58556599445,99869.76234552413,99895.26568594763,99891.13061322339,99885.34151140947,99880.6252933294,99876.2219996717,99871.68459554728,99879.28418866209,99897.74672958217,99892.76229056863,99887.84490678846,99883.03928173057,99878.21130492822,99873.74095603716,99875.3279298935,99896.67384584832,99895.60096211446,99890.25889518963,99885.74384280966,99880.96056949622,99876.11024094943,99875.59615082695,99895.93623828128,99897.29969469307,99891.17531671231,99886.4814503767,99882.01110148562,99877.40664212784,99883.3745578974,99901.79239532858,99897.16558422633,99892.06938649052,99887.10729922143,99882.30167416355,99878.01013922814,99875.55144733805,99893.23167720219,99898.64079936038,99892.53877312408,99887.86725853292,99883.03928173057,99878.23365667269,99876.49022060516,99895.71272083673,99899.46781390523,99893.00815975764,99888.35899691093,99883.91099976432,99879.21713342871,99875.75261303814,99893.36578766892,99906.2850959641,99899.71368309423,99894.70689233624,99889.90126727836,99885.54267710957,99880.98292124069,99876.1772961828,99875.43968861576,99895.69036909228,99897.23263945969,99891.26472369012,99886.36969165441,99881.92169450781,99877.56310433902,99873.7186042927,99888.22488644421,99901.8818023064,99895.60096211446,99890.70593007874,99885.76619455412,99881.13938345187,99876.825496772,99878.94891249525,99901.077139506,99900.16071798334,99894.88570629188,99890.34830216746,99885.54267710957,99880.84881077395,99876.51257234962,99876.11024094943,99898.68550284929,99903.04409301808,99897.05382550404,99892.49406963517,99887.62138934391,99882.77106079711,99878.39011888386,99875.3279298935,99890.03537774508,99897.36674992643,99891.13061322339,99886.7273195657,99882.25697067464,99877.78662178357,99887.80020329956,99902.64176161788,99896.49503189267,99891.59999985696,99886.90613352135,99882.5251916081,99878.0771944615,99885.34151140947,99905.56984014153,99901.32300869502,99896.38327317039,99891.59999985696,99886.88378177688,99882.5251916081,99878.2783601616,99874.05388045954,99884.2239241867,99901.18889822828,99895.62331385892,99890.86239228993,99886.10147072095,99881.72052880771,99877.4736973612,99878.90420900634,99900.20542147224,99899.51251739413,99894.39396791387,99889.76715681162,99885.00623524265,99880.3794241404,99876.2219996717,99879.86533401792,99902.64176161788,99901.05478776155,99895.91388653683,99891.48824113468,99886.79437479906,99882.05580497455,99877.78662178357,99878.50187760615,99899.69133134978,99842.18029286627,99635.53841537696,99483.12186993622,99153.83597062064,99230.18952967996,98607.04524601046,98582.771251532,98101.49348992032,98085.33317867914,97553.36166064283,97383.26488533794,97022.46302634038,97042.22196843887,97033.03540146773,97167.14586819957,97303.37975065467,97427.78956029292,97659.93477820573,97588.56565815993,97612.34791426039,97142.3801353431,96991.68467422541,96362.46071606407,96041.73553487487,94943.92960595246,94262.76019367698,92985.29094282282,92319.9912691106,91006.06632304983,90110.70014365914,88613.44618957595,87583.94719170895,86135.9788341497,85057.3730537144,83531.08418358376,82348.3863292201,80965.93093465937,79795.23596706819,78678.20753791423,77687.0417817881,76758.10328222552,75790.20569207736,75232.08263302835,74481.48870247469,74144.62556178875,73541.62019987348,73551.14204301144,73325.03179610155,73870.0343811553,74104.97356712504,75068.35610489323,75586.87187276744,76830.72409996082,77612.45401054074,79011.4496959984,79959.7224545148,81369.8046052223,82330.39317493358,83587.8799662447,84432.88766537758,85347.27517929974,85985.12691082084,86588.22167971393,87020.70558317968,87204.59338481347,87426.47915202132,87330.07607818558,87392.95153533835,86959.3723963943,86792.74014148,86011.14434136682,85622.53691226685,84527.21202697897,83883.72765585514,82505.51909274091,81526.244464665,79883.03361928865,78820.6552053279,77200.48900848496,76074.8104542268,74476.1242838054,73381.93933748476,71967.27507916393,70968.5991369008,69880.6950307721,69011.81566856094,68251.65519138041,67678.46705656851,67409.03912890425,67129.75408193519,67269.0725051251,67292.45242982537,67784.77195319795,67911.528696004,68580.91873895154,68692.69981297253,69374.07039094811,69407.26273146425,69898.06233621387,69794.35024194125,70205.55528468553,69886.73000177504,69967.37509576978,69377.42315261641,69106.25178888462,68206.61642630296,67498.37905149211,66353.27683130227,65203.257227332266,63799.38886158334,62450.8410633613,61104.32727388469,59707.902039039385,58592.326473275,57424.023142340564,56695.06570041963,55795.38563434907,55489.16673531136,54904.065120704785,55049.73143932002,54706.83332763116,54999.61882825122,54684.10160352011,55001.85400269676,54731.196729087445,55091.28333226244,54992.30980781434,55451.325231948525,55462.47875243172,55856.76352462334,55985.08488954126,56451.31992713451,56710.13077618251,57072.54196078086,57383.87940929883,57746.40235261946,58283.11244048029,58639.98039245372,59277.22862687452,59608.95086633574,60263.40994398713,60454.9196904802,61086.0658986647,61162.73238214641,61757.914633502325,61726.6221912649,62245.093255650194,62083.17721881595,62504.84287796532,62277.72680255495,62385.66337652962,61902.32925442806,61786.61427338294,61152.00354480786,60677.09603036595,59904.35152105708,59241.75640842396,58420.97800028062,57571.23173132321,56669.11532510702,55552.57863433107,54587.05032909517,53295.96886586772,52332.13929321043,50949.5274364385,50011.402369904805,48565.0656896908,47613.82014916184,46082.725653973306,45175.44599478794,43680.628380850365,42796.03574228713,41456.808621502954,40737.61889190899,39525.59554881997,38854.35031108264,37826.706508005445,37190.08412242939,36256.13883210884,35529.327157655614,34651.10476626215,33843.58094258081,33034.51484853207,32167.26716366615,31424.496343671843,30561.13786234115,30084.84453974301,29339.436213902976,29073.204585695814,28448.652142125626,28456.09527302924,28089.638422684482,28315.94983529447,28149.027007702236,28691.168569465706,28803.419030120258,29505.576730439276,29853.503984630584,30797.351097744835,31415.823866823182,32580.148587244585,33485.99773478481,34650.34480695067,35586.41351299447,36653.08346189064,37584.257135898726,38475.242373376175,39352.01190138005,40023.27949086184,40884.671018680456,41331.3035763864,42032.097820293646,42242.40538387363,42791.76655909617,42749.432355097815,43160.011548997354,42923.083057771095,43106.63558323808,42560.15778305028,42563.17526855174,42038.75864014133,41978.00659871181,41417.49190300607,41388.792263125455,41069.162317414564,41207.85489175974,41209.03953421587,41544.13688708984,41888.085530768105,42440.97828161458,43130.90957771654,43814.20240571528,44806.95513569774,45678.919038643726,47077.40063397892,48343.224625971874,50241.04419243863,51819.56908936132,53999.11004294277,55675.803801513175,57866.67708953346,59417.73169252059,61445.81722567287,62730.7072556862,64366.854949814675,65197.4904772628,66340.44692998493,66774.31664160689,67288.83144722361,67217.35056845553,67238.58472568807,66994.4142692583,66851.25134602205,66643.6259917767,66337.72001716138,66233.06914962163,66130.27347687168,66437.8781840656,66613.62995071769,67383.49108499182,67825.47447985107,68938.32313279189,69632.54596382928,70976.26578524898,71807.52716154185,73246.06308294095,74064.4275026831,75409.57783574794,76099.5091318499,77217.83396218228,77670.99322926918,78400.17418863466,78578.83168206594,78975.17281474744,78986.54985267519,79047.8606877161,78905.90475868044,78671.4126075998,78402.0517351689,77925.06550849265,77601.54635924654,76919.77344987076,76604.90442572885,75915.64368196054,75694.2720048752,75019.13756360264,75052.93340121907,74657.75455924924,75031.47572654198,74940.5935335867,75596.63958509441,75709.9182259939,76363.12560595579,76281.76525613847,76494.79973254201,76151.16401328612,76007.12937201612,75242.29738024442,74539.73734852522,73471.54748100608,72454.14077688943,71544.42477755842,70743.36060802467,70316.21877148376,69899.55990309238,69904.16436245017,69656.14940597408,69899.67166181466,69554.58307916917,69578.83472190317,68982.02079320203,69070.01961112257,68517.3280259762,68561.00333464186,67984.90947305078,67977.48869389162,67270.54772025916,66841.21541276162,65664.5525294009,64629.711464609085,62924.31806615807,61358.5336635749,59453.785056327,57677.13429655246,55795.5197448158,53986.97304570354,52403.86604116751,50796.239172964,49511.12562550612,47967.312987722515,46806.184566758224,45342.39117412462,44456.45743089407,43118.68317349949,42319.85417841127,40973.452147656935,40259.91740941017,38979.81065271028,38291.108702553356,37079.66650482017,36490.18394830036,35466.138776080465,34974.266287596976,34207.13206614638,33905.38351599974,33355.016512276714,33030.044499641,32633.345739048214,32339.241485505285,32045.9642465072,31646.940904491057,31377.177700659955,30795.160626788216,30539.367263241682,29964.16747142881,29758.1737945287,29071.03646648365,28960.797662830075,28347.085815320712,28304.88572178909,27701.05334532897,27667.6821908572,27109.22385564135,27101.55720729318,26596.698355281158,26535.29811326243,26089.805494523705,26007.573426672632,25568.02637195902,25450.143271701727,25234.203068519008,25228.145745771617,25300.18541815107,25447.438710622635,25796.684717736807,26118.415727426498,26720.72818526366,27075.24920406928,27854.98980939267,28295.45328562895,29280.427608540966,29857.10261548789,31017.22520795169,31601.186883591043,32820.4968953725,33521.73817416885,34752.0005407334,35485.74125596777,36725.771334859295,37536.84908590902,38839.59815974214,39750.65526374045,41011.91949986452,42022.575977155684,43146.98048197991,44109.1113220586,45205.30792538022,46405.99893403041,47512.85731945722,48908.656705457775,50072.82496366799,51525.26367011829,52638.49230271486,54200.70042618518,55282.41309909977,56895.73966213938,57903.33395044017,59418.111672176325,60302.816069461835,61619.53498357952,62186.48698168838,63204.02779627178,63565.16493143618,64209.47631710486,64294.48000126839,64678.52767449948,64767.97935580961,65062.173016330365,65126.85896478403,65313.1160513301,65533.370141192696,65710.75358519002,66176.3180704496,66625.20815434554,67411.7660417278,67839.91370676919,68784.11844779474,69336.09477711855,70525.14052690752,71200.6549478358,72456.71122750179,73131.82331702988,74402.20706489171,74919.89581822108,75841.92762874694,76040.85815439917,76595.20376863526,76511.89881705031,76636.8897720444,76158.40597848964,75857.28327718774,75222.87371431277,74639.31437007361,73937.2013732435,73168.50252968103,72453.8502042115,71542.92721067992,70836.94736205904,69901.97389149354,69367.29781237815,68413.39241425901,67967.02807748652,67007.57944674247,66613.98757862898,65694.74973616001,65336.69714173045,64384.35636572318,64018.704178178814,63030.86883197652,62588.10312606134,61587.4378785417,61053.70057269342,60106.21012523295,59487.02210033204,58642.23791864371,58027.31907693375,57266.91273056421,56633.59840316754,56108.332408467824,55517.46404379178,55132.05291414892,54559.15535201495,54339.37064878591,53816.09395934272,53727.31283036624,53207.165385146785,53217.00015270712,52674.21039035445,52651.32220403221,52079.542229121,52078.91638027625,51480.694291674416,51431.252232939274,50893.670427044686,50854.1525428477,50298.801100111144,50163.036604289606,49770.53997165441,49644.9678713045,49405.357170743606,49427.70891519891,49489.31032291774,49619.50923436991,49937.77572366902,50116.0308857001,50595.47580426643,50835.555891460885,51459.571893164146,51687.15735520809,52423.4238175659,52671.0811461307,53444.1162281175,53613.14011968853,54293.46016567471,54400.21209719326,55015.19799413657,55005.98907542099,55495.67109294786,55495.425223758844,55919.63898177612,55925.249269634405,56244.00749731153,56288.554524010964,56502.348959725976,56586.68209155585,56725.419369389936,56913.97868561491,56950.36732558815,57115.18908920159,57008.92889606106,57259.35784093831,57138.01022029045,57383.767650576556,57179.36094753277,57511.03848350507,57283.47537320559,57517.989876030675,57121.35817067125,57262.21886422859,56771.73218390134,56839.45796960092,56441.48515957417,56577.09319318452,56262.44768648716,56242.71109613313,55813.803471780244,55564.96150075931,55064.81886682736,54756.275386366295,54575.53918070068,54351.1276663694,54324.886718378875,54175.889989839794,54331.9722213712,54213.17269959125,54637.38645760852,54747.28998509527,55424.81606302453,55745.6082994471,56715.45049136287,57233.6086313258,58445.85549185938,59142.98404967595,60400.42613749816,61107.7247390419,62331.37098924768,63077.69573661039,64224.8096138012,64968.787427996096,65951.30305901803,66675.72309681453,67529.35856930717,68165.86919616094,68570.50282603536,68783.7831716279,68605.61741657465,68557.78468344029,68111.21918096772,67915.26143732804,67249.44767349336,67122.8920963874,66526.74872001991,66428.89278279457,65685.96550058908,65538.89102207316,64823.61284775888,64623.900011050704,63813.179887912265,63607.58854241235,62935.09160698552,62832.18417551329,62381.39419333866,62361.858768684724,62223.926153651024,62491.23066559204,62674.06793523645,62953.68825837234,63281.87892220962,63589.30481544791,64054.57872802958,64224.876669034566,64666.03304934896,64695.40324156323,65154.262203486236,65077.08162988206,65584.46622901753,65511.04074848184,65911.60636086541,65544.3671994647,65621.8383457468,64988.23344567221,64727.165070434225,63786.02251839907,63242.27163103481,62177.94861530646,61551.98801183558,60674.614986731416,60155.22750082344,59447.43716090169,58876.70771797988,58256.73738202303,57628.988638995725,57135.0374382779,56554.13795162892,56308.60403878737,55839.15034999256,55855.891806589585,55550.56697733009,55891.96752214045,55843.66540237253,56403.53189748906,56401.72140618818,56938.74441847139,56838.608603311615,57292.01373958752,57072.027870658385,57199.14224137572,56768.64764316651,56702.70999702335,56114.836766104316,55876.07543183272,55345.10974229691,55008.55952603335,54647.91412924697,54452.49282747422,54430.096379530005,54532.75794181323,55011.800528979365,55334.559718914,56031.777683708395,56429.45992105722,57199.74573847601,57467.9666719397,58209.77636692243,58273.88117002025,58896.801936245196,58858.02165961524,59408.16514589371,59390.75313696303,59812.77642402369,59623.300686276045,59872.634395675,59664.1820268848,59817.4702903593,59631.77199742461,59652.76028546814,59571.37758390637,59845.253508717244,60213.5655538518,60561.09047664291,61058.48384600686,61223.50677532039,61522.88604055477,61373.24111142649,61436.09421683481,60937.20328059236,60995.80955455417,60548.57349974794,60747.05699051106,60452.19277765665,60855.440599374844,60779.26585427116,61443.13501633824,61647.56407112647,62357.34371630475,62584.83977137086,63229.66524716202,63447.63945909018,63949.19025292281,64205.654168803005,64658.880491123266,65093.39840333443,65619.15613641216,66284.0981822131,66880.39802079178,67763.91777562116,68329.30515161814,69139.68999858976,69316.11231757549,69792.96443378502,69501.09535468761,69543.67542787497,68713.44223182705,68226.44242363483,66918.93242823273,66050.65656312187,64535.49886172997,63637.20460381563,62246.68022950652,61479.43424933365,60503.06534803693,60125.41027372006,59537.98407769014,59454.79088482748,59388.339148561856,59646.12181736491,60186.78816399434,60952.96126043335,62068.78269538673,63126.1990220784,64603.49286836301,65737.77684423648,67341.15688099347,68521.26193300032,70289.2402159262,71494.15570427844,73380.48647409517,74715.75733611075,76642.36594943595,77929.51350563926,79890.92378508137,81155.22785845136,82615.10969580528,83066.16789891338,83452.87542973465,82930.6269205364,82163.02331245223,80726.43199282074,79151.01398837734,77221.67846222859,75155.14792861318,73119.32869187936,70891.55267376336,68942.07822586039,66773.62373752877,64968.11687566244,62708.42256646426,60845.49407309223,58308.504022181514,56153.86291192328,53249.186664722765,50827.55396694589,47756.60309274234,45211.67817254999,42082.41159706254,39623.026802900655,36776.599201750665,34565.139957087034,32282.132778421972,30824.19554283566,29726.41196565771,29449.853831512195,29515.679718933075,30170.183500073377,31493.965565438935,33292.87866269096,35427.425554683876,37257.765204640054,39215.1074665913,40479.411539961286,41681.15308060087,41732.182113192335,41554.262227328094,39925.4235536365,37805.62881298409,33842.35159663577,29060.687608800843,22213.521267595443,14269.130142823476,4518.986286996161,-1728.169826050976,-2432.0039072041404,-2437.10010493995,-2441.637509064378,-2445.526712599601,-2449.795895790565,-2455.4732388822126,-2459.4518493952573,-2463.3187011860255,-2468.101974499461,-2472.7958408350755,-2476.528582159112,-2479.8366403384975,-2246.283262524994,3840.074400910664,27480.218110110538,68539.23273554239,96530.99286925708,99287.3876437411,99327.28550759381,99368.32331041376,99409.69638940053,99450.8235991983,99491.66023631814,99532.51922518245,99573.37821404675,99613.76781627748,99653.88919757477,99694.09998584987,99734.22136714714,99773.8957135553,99813.30183903001,99851.65743251532,99869.56117982403,99864.77790651059,99861.51455182012,99858.34060410746,99855.63604302837,99852.88677846036,99849.69047900326,99849.0199266696,99871.01404321362,99880.26766541811,99875.1714676823,99871.79635426955,99868.55535132354,99865.49316233315,99862.11804892041,99859.10056341894,99872.31044439203,99884.6262555869,99879.21713342871,99875.3279298935,99871.63989205836,99868.15301992334,99864.4202785993,99866.43193560028,99887.59903759946,99887.1296509659,99882.36872939691,99878.1218979504,99873.89741824835,99870.03056645759,99866.05195594454,99864.73320302168,99885.2744561761,99891.71175857923,99886.12382246541,99882.03345323009,99877.85367701694,99873.89741824835,99870.14232517986,99866.67780478929,99879.82063052901,99894.63983710288,99889.05190098906,99884.87212477591,99880.60294158495,99876.57962758299,99872.75747928114,99868.6224065569,99866.49899083364,99886.01206374312,99435.84793041325,94068.23296168244,80813.8720171299,63993.02202379966,48257.25981679676,36383.45436852627,30996.6168995639,33789.53442448788,43449.46663969358,57491.10072745094,72698.87002693058,85713.41910522213,94120.15606405212,97489.30156103392,97000.71477898536,94714.44424562983,92185.05378783391,89470.21090629231,85633.01988041638,80112.29546216673,72974.80231223135,64568.6912022461,55712.46066241988,47868.16064931878,42468.35916857233,40564.66109331383,43177.289447461306,50744.2266636165,63290.66315778055,80414.35693673574,96067.64120669856,99763.50215238359,99833.79838869553,99869.18120016828,99875.41733687131,99870.70111879124,99867.59422631195,99864.71085127722,99861.91688322031,99820.02971411106,98231.1336077611,91661.2853600127,81797.9075667748,72012.0456233079,63874.40131597535,57677.35781399701,53194.11196638489,49993.56567782947,47724.170711537685,46038.42449646288,44577.91681026421,43141.839580755186,41794.45407324482,40674.22934463374,40126.164570589615,40221.71827813605,40974.837955813164,42412.63626964525,44069.83930705063,45713.07250417143,47156.10112620606,48325.16441645198,49398.04815030672,50865.23900809753,53103.29682866298,56205.80836603742,60231.31283894931,65468.57243401676,72118.28346470397,80087.39561884351,88124.9041110163,95025.1781970475,99118.81078705916,99812.6089349519,99853.42322032728,99870.83522925798,99669.78128788249,98030.34788731908,94386.76767191502,89779.0449594313,85454.2729800073,82597.58592815232,82191.0523999992,83987.37269489441,86344.63236864,87685.02178013585,87320.08484841404,85085.08921683898,81009.49448460275,75160.44529204909,67642.8607276512,57978.43581181,44523.020925881974,24924.631407813,4064.7988396643213,-1845.2482635078745,-1930.7660377938794,-1935.5940145962256,-1942.746572821924,-1947.1275147351641,-1952.1790089820636,-1957.7669450958904,-1963.4666399319935,-1968.0487475453315,-1973.7931458703454,-1979.4704889619934,-1984.4325762310716,-1988.835869888767,-1993.3509222687392,-1998.3353612822727,-2003.1409863401636,-2008.3712945427055,-2013.422788789605,-2018.3625243142278,-2022.8328732052892,-2028.6890302525796,-2033.3605448437388,-2036.3333268562947,-2040.5578065583477,-2045.0505071938644,-2049.6996700405684,-2053.6559288091576,-2057.5004288554705,-2062.0154812354426,-2066.3070161708615,-2069.6821295836126,-2074.4654028970485,-2078.5334203879142,-2081.6626646116574,-2085.440109424604,-2089.999865293487,-2093.9561240620765,-2098.2476589974954,-2101.443958454604,-2105.154348034185,-2109.13295854723,-2113.8268248828444,-2116.643144684213,-2120.7335139195343,-2124.6674209436683,-2128.1319413342408,-2131.015316368975,-2135.150389093207,-2138.927833906154,-2142.5488165079137,-2146.058040387397,-2149.1649328666845,-2153.3894125687375,-2157.725650993067,-2161.346633594827,-2164.565284796391,-2167.9851016980533,-2170.8461249883326,-2174.8470872458324,-2178.66923554769,-2182.401976871726,-2185.151241439729,-2188.951037997131,-2192.5273171099802,-2195.43304388917,-2199.2328404465725,-2203.0996922373406,-2207.547689383947,-2211.3027824524384,-2214.476730165092,-2217.62832613329,-2222.2998407244495,-2225.540843670469,-2227.9324803271866,-2231.7099251401337,-2235.5544251864467,-2238.9295385991977,-2243.1763700457063,-2246.5514834584574,-2250.507742227047,-2254.0393178509853,-2257.705003941656,-2260.0295853650077,-2265.170486589728,-2268.9479314026753,-2272.367748304337,-2275.407585550259,-2279.11797512984,-2282.448385053681,-2286.337588588904,-2290.2938473574936,-2293.892478214798,-2297.245239883094,-2300.1956701511945,-2303.861356241865,-2307.862318499365,-2312.2656121570603,-2315.8195395254543,-2319.306411660482,-2323.2179669401607,-2327.6436123423114,-2330.571690865957,-2334.3938391678143,-2337.8807113028424,-2342.284004960538,-2345.234435228638,-2348.542493408024,-2352.476400432158,-2356.432659200747,-2360.366566224881,-2363.853438359909,-2367.139144794839,-2259.761364431544,-754.0584509442391,3704.7792917226902,10191.34493963062,17923.953285688556,26415.358652515253,35141.50203961159,43824.68537386482,52254.04229808359,60431.316248335395,68376.26616671875,76409.61723442284,84510.6940878265,92927.82460782822,98589.96851324661,99463.89936970465,99506.14416672518,99547.27137652296,99588.5550485319,99629.8610722853,99670.8765233608,99711.44493954717,99751.25339642208,99791.37477771936,99831.56321425,99863.41445009882,99864.64379604385,99860.68753727527,99857.96062445172,99855.09960116143,99852.1715226378,99849.44460981425,99846.58358652396,99855.32311860599,99878.03249097259,99875.3726333824,99871.79635426955,99868.4659443457,99865.11318267742,99861.96158670922,99858.76528725211,99867.86244724542,99887.576685855,99883.44161313077,99833.7089817177,99096.8390222596,97025.97225021986,94078.09008098723,91056.491858541,88277.29830471257,86138.50458127316,84645.63156910319,83825.30019584898,83545.72457620199,83501.49047392493,83488.28059295185,83132.619635179,82328.15800048805,80908.62106187595,78763.77001568914,75625.8533150975,71708.46423011592,67053.13230194239,62276.38569788763,57842.33603982163,54113.126291409295,50761.05752719135,47490.41616802409,43745.13551534838,39467.90569638082,34383.06264675411,28485.01843035441,21682.82379899309,14276.506218493727,6642.960803861714,159.8820280888114,-1929.290822659829,-1995.8319659032782,-2001.2857915503732,-2007.2090038310296,-2012.1487393556524,-2018.0719516363088,-2023.8834051946885,-2030.8124459758337,-2036.4450855785713,-2040.9154344696326,-2045.095210682775,-2050.3478706297724,-2055.8911032546885,-2061.1661149461406,-2067.3351964158055,-2071.8502487957776,-2077.348777931783,-2081.774423333934,-2087.027083280931,-2073.727795330023,-1545.0643354731008,627.2346529048268,5416.967620488122,13068.416782428836,23116.799964523314,33672.23246958643,42299.022352578926,48705.52405184795,55897.53310650982,67403.63000674605,82298.58664257367,95225.8745105117,99501.62911434521,99687.7297386801,99728.8345967334,99769.8500478089,99810.88785062885,99848.97522318069,99860.35226110843,99856.37365059539,99854.20553138322,99851.79154298206,99849.6234237699,99847.41060106881,99847.34354583545,99868.04126120106,99875.03735721558,99871.19285716926,99868.51064783463,99865.78373501108,99862.85565648743,99860.12874366388,99857.26772037361,99858.18414189627,99881.13938345187,99885.72149106521,99881.34054915197,99877.98778748367,99874.56797058201,99871.3716711249,99868.08596468998,99864.6214442994,99865.53786582207,99889.11895622242,99893.18697371328,99888.22488644421,99884.33568290898,99880.6252933294,99876.95960723874,99873.15981068133,99869.18120016828,99868.98003446819,99890.57181961201,99894.32691268051,99888.91779052232,99884.7827177981,99880.96056949622,99877.0266624721,99873.13745893688,99882.18991544127,99899.84779356097,99894.79629931407,99890.28124693409,99885.90030502086,99881.85463927445,99877.80897352804,99873.74095603716,99875.03735721558,99896.22681095921,99894.57278186952,98778.4160707493,87828.31881383882,62344.13383533166,30161.30985752462,4246.540873830423,-1801.237678675375,-1870.393976020095,-1876.0489673672878,-1881.681606970025,-1887.8059849507792,-1893.4162728090612,-1899.3171333452624,-1906.290877615318,-1912.61642129617,-1918.2490608989074,-1924.7310667909464,-1930.6095755826923,-1937.1139332191865,-1942.970090266477,-1948.3345089357508,-1953.9895002829435,-1960.002119541421,-1964.8300963437673,-1968.8310586012674,-1974.1507737816303,-1980.4986692069376,-1986.131308809675,-1989.998160600443,-1995.9660763700101,-2001.419902017105,-2005.5326229968814,-2009.5335852543815,-2014.4733207790043,-2018.7201522255127,-2023.704591239046,-2028.1749401301076,-2031.5947570317696,-2036.1768646451076,-2040.5354548138923,-2044.8493414937666,-2049.3643938737387,-2053.320652642328,-2057.3663183887384,-2063.3342341583057,-2067.514010371448,-2071.4702691400375,-2075.1136034862525,-2079.4051384216714,-2084.121356501741,-2088.055263525875,-2091.2068594940733,-2093.88906882871,-2098.22530725304,-2103.0085805664758,-2107.4342259686264,-2034.4334285775935,-129.50600737404912,7493.19881119714,22082.271824153882,43505.74833223204,71056.19562342115,94496.49238544612,99603.4636620836,99678.69963392016,99719.91625069574,99761.49049538262,99803.04238832503,99838.87223468689,99844.43781905626,99841.17446436579,99839.47573178718,99837.48642653065,99835.22890034068,99833.23959508415,99836.70411547473,99860.35226110843,99862.38626985387,99858.96645295221,99856.79833374004,99854.31729010551,99851.5233220486,99848.6175952694,99846.3153655905,99857.89356921836,99879.06067121752,99875.19381942676,99872.0198717141,99869.00238621264,99865.62727279989,99862.20745589823,99859.05585993003,99856.68657501777,99871.75165078064,99887.26376143262,99882.16756369681,99878.63598807287,99875.10441244894,99871.23756065818,99867.6165780564,99864.93436872178,99879.1724299398,99892.13644172388,99886.43674688778,99882.86046777492,99878.9712642397,99874.99265372666,99870.94698798025,99867.19189491175,99871.1258019359,99889.92361902281,99886.66026433233,99882.324025908,99878.34541539496,99874.25504615964,99869.98586296868,99871.46107810273,99891.82351730151,99891.01885450112,99885.81089804303,99881.58641834097,99877.4736973612,99873.20451417024,99869.5164763351,99883.70983406423,99898.66315110483,99892.51642137962,99887.9790172552,99883.5757235975,99879.5300578511,99875.21617117121,99870.70111879124,99875.84202001596,99899.62427611642,99897.56791562653,99892.42701440181,99887.88961027737,99883.64277883086,99879.39594738436,99874.99265372666,99870.45524960224,99869.36001412393,99889.0295492446,99892.22584870171,99859.83817098597,98711.47259610565,93281.67507430019,83387.9883155809,71559.24398413229,59837.74332258026,49198.111796154,40680.756054014695,34310.73240169673,29481.41449468309,25767.605098200453,22887.24754896731,20610.387100027456,18811.362244053154,17439.635686830963,16673.127314225116,16689.10881151066,17696.65839632254,19644.478815135815,22070.917137970584,24945.060902245154,28477.217671539507,32718.215312745015,37452.44889884578,42938.885741100996,49373.48358315034,55592.43179469488,60586.70557578869,64644.35185722731,68546.60881121265,73448.18990805029,79792.10672284446,86530.53182727478,92548.58255965503,97637.78419945053,99693.07180560492,99822.84603391243,99859.39113609686,99867.54952282304,99862.98976695417,99860.39696459734,99857.51358956262,99854.54080755006,99851.81389472651,99850.4727900592,99867.25895014513,99666.62969191429,98042.21666362484,94242.8447893673,88287.64716239538,80053.97976088284,68911.14341153424,53482.2259524138,31977.14322532931,7947.5874242290765,-1533.7543527787154,-1884.9449616605,-1890.2870285853182,-1895.651447254592,-1900.61353452367,-1906.42498808205,-1911.7670550068683,-1916.7067905314912,-1922.3841336231392,-1927.2791656588515,-1931.9506802500107,-1937.292747174829,-1943.4841803889492,-1948.647433358125,-1953.4083549271054,-1958.8845323186556,-1964.3607097102058,-1969.1216312791862,-1973.3014074923287,-1977.6599976611135,-1983.4043959861276,-1988.5005937219375,-1992.8591838907223,-1998.15654732663,-2004.0797596072866,-2007.8795561646887,-2011.3887800441719,-2015.2109283460295,-2019.7930359593674,-2024.2186813615183,-2028.2196436190181,-2032.1982541320629,-2037.6520797791577,-2042.0777251813086,-2045.9445769720767,-2049.319690384828,-2053.3653561312385,-2057.9027602556657,-2061.3672806462387,-2065.1447254591853,-2069.548019116881,-2074.8453825527886,-2077.8405163098,-2080.6791878556237,-2085.9094960581656,-2088.770519348445,-2093.486737428515,-2098.024141552942,-2101.1086822877746,-2104.1485195336963,-2108.1047783022855,-2112.508071959981,-2115.9055371171876,-2119.861795885777,-2122.208729053584,-2125.807359910889,-2129.6295082127463,-2133.7869326814334,-2137.765543194478,-2141.5206362629697,-2144.4710665310704,-2149.0755258888635,-2153.344709079827,-2156.5857120258465,-2159.334976593849,-2163.291235362439,-2167.471011575581,-2169.706186021112,-2172.634264544757,-2176.903447735721,-2181.1055756933183,-2184.503040850525,-2187.609933329813,-2191.9461717541426,-2196.438872389659,-2200.4621863916145,-2204.15022422674,-2207.7041515951337,-2212.085093508374,-2216.242517977061,-2219.0364860339746,-2222.568061657913,-2227.1054657823406,-2231.1958350176615,-2234.258024008039,-2236.560253686935,-2239.667146166223,-2243.645756679268,-2248.8090096484434,-2251.6923846831783,-2255.983919618597,-2260.1189923428287,-2263.8070301779544,-2267.6291784798123,-2271.473678526125,-2275.474640783625,-2278.6709402407337,-2281.9119431867534,-2285.1082426438625,-2290.1373851463063,-2293.892478214798,-2297.021722438541,-2300.1286149178286,-2303.0343416970186,-2307.16941442125,-2310.5445278340017,-2314.344324391404,-2317.8759000153423,-2321.7204000616553,-2307.1023591878843,-1199.8863458497938,4630.856767994973,16062.455303961671,31376.753017515304,49790.81300387538,70116.7518039646,90084.36978869079,98950.32333735506,99467.25213137295,99508.60285861527,99549.95358585758,99591.39372007773,99632.92326127569,99674.38574724029,99715.82588146042,99756.81898079146,99797.87913535585,99838.13462711986,99858.65352852983,99854.54080755006,99851.85859821542,99849.33285109197,99846.82945571297,99844.08019114497,99841.6662027438,99845.2201301122,99870.83522925798,99873.58449382598,99869.58353156848,99866.7225082782,99863.66031928782,99860.28520587507,99856.99949944013,99854.13847614986,99854.58551103897,99874.67972930429,99333.18636813002,94891.38065473804,85192.42229371337,72936.44671874604,60433.37260882528,48689.31903711785,38742.05514693918,30949.141794340827,25707.054222471026,22649.33558098502,21744.24639275627,22444.839470963416,24762.357743067474,27998.800933218117,31373.377904102555,33819.21754112453,35161.28333345453,35028.20104696763,33513.73624965385,30620.638206081177,26787.06816280701,22464.710171784183,18265.465589221192,14479.415354659004,11276.097449791128,9258.69605048848,9114.415540029471,11459.828789213752,16238.899974691865,23234.45954733605,31480.666277488028,39858.03304410375,46929.297975218054,53071.93733119218,59395.692872487656,67634.50117522493,78167.35841838819,89940.96099626554,98263.1413058211,99758.54006511452,99804.3611412479,99843.25317660012,99859.41348784132,99855.21135988372,99852.68561276027,99850.09281040345,99847.65647025782,99845.44364755675,99843.09671438894,99845.4212958123,99870.74582228015,99875.64085431586,99871.52813333609,99868.64475830135,99865.76138326662,99863.03447044308,99860.08404017497,99857.31242386252,99868.823572257,99885.8779532764,99881.34054915197,99877.89838050585,99874.47856360419,99871.14815368035,99867.99655771215,99864.53203732158,99861.31338612002,99873.96447348171,99893.20932545773,99888.40370039985,99884.33568290898,99880.60294158495,99877.13842119437,99873.4727351037,99869.58353156848,99865.96254896672,99876.53492409408,99894.75159582516,99889.63304634488,99885.36386315392,99881.60877008544,99877.85367701694,99873.7186042927,99869.5164763351,99866.05195594454,99879.19478168426,99896.98677027068,99891.19766845676,99886.86143003243,99882.81576428602,99878.56893283951,99874.21034267073,99869.96351122422,99877.45134561675,99894.99746501417,99889.85656378944,99885.09564222046,99881.0276247296,99876.78079328309,99872.31044439203,99867.84009550097,99867.19189491175,99889.34247366697,99894.12574698041,99888.02372074411,99883.75453755315,99879.44065087326,99874.94795023775,99870.41054611333,99871.1258019359,99892.06938649052,99892.24820044616,99886.59320909897,99882.10050846345,99788.58080966244,98144.52059799679,93087.93015336158,85706.51241618543,77808.52351290268,70626.10335661213,64777.21062626966,60827.6573810169,59094.27959850784,59209.994579552964,60666.25543430513,63344.19558575101,66673.10794271326,69717.01320612589,71882.40550546712,72927.30485526382,72634.9440377884,70912.92094146264,67768.54458672341,63544.646030026204,58369.9266159447,52280.037376885106,45249.05028927926,37475.51589912366,29344.018321516316,21156.730789748526,12616.732730475991,3489.867268784913,-1569.1371642514664,-1986.5112884654152,-1992.2333350459737,-1998.134195582175,-2003.3645037847168,-2008.6395154761692,-2014.4956725234597,-2020.1953673595629,-2025.291565095373,-2032.064143665331,-2037.0038791899538,-2042.904739726155,-2048.35856537325,-2053.611225320247,-2058.5733125893253,-2063.4459928805823,-2068.117507471741,-2072.8560772962664,-2077.572295376336,-2082.7579000899673,-2087.027083280931,-2092.0338740389197,-2096.3701124632494,-2100.5051851874814,-2105.6907899011126,-2110.9210981036545,-2115.2349847835285,-2119.951202863598,-2124.063923843375,-2127.126112833752,-2130.970612880065,-2135.4186100266706,-2140.2018833401066,-2143.9122729196874,-2147.801476454911,-2151.6906799901344,-2156.250435859017,-2159.938473694143,-2163.313587106894,-2166.9569214531093,-2170.957883710609,-2174.1765349121733,-2178.3339593808605,-2182.804308271922,-2186.4923461070475,-2190.7838810424664,-2194.606029344324,-2197.6235148457904,-2201.2668491920053,-2205.178404471684,-2208.2852969509718,-2211.9286312971867,-2216.0637040214187,-2219.9082040677317,-2223.3280209693935,-2226.792541359966,-2230.5476344284575,-2233.922747841209,-2238.0354688209854,-2240.784733388988,-2244.53982645748,-2248.7866579039883,-2252.139419572284,-2255.7827539184996,-2259.627253964812,-2262.532980744002,-2266.891570912787,-2269.9314081587086,-2273.217114593639,-2278.2686088405385,-2281.4872600421027,-2285.1082426438625,-2289.1986118791833,-2292.6184287808455,-2296.2170596381497,-2299.2345451396163,-2303.8166527529543,-2308.108187688373,-2311.9750394791413,-2317.250051170594,-2320.826330283443,-2323.597946595901,-2327.353039664393,-2331.242243199616,-2334.505597890091,-2338.439504914225,-2341.568749137968,-2345.1673799952723,-2348.877769574853,-2352.6775661322554,-2356.857342345398,-2361.573560425468,-2364.479287204658,-2367.9214558507747,-2370.916589607786,-2375.3869384988475,-2378.5161827225907,-2381.37720601287,-2384.8417264034424,-2389.2226683166828,-2392.6871887072552,-2396.2634678201043,-2399.1244911103836,-2403.6842469792664,-2408.199299359238,-2412.401427316836,-2416.0224099185957,-2419.6433925203555,-2423.6220030334002,-2426.5724333015005,-2429.4558083362353,-2433.076790937995,-2437.144808428861,-2441.302232897548,-2444.856160265942,-2447.6724800673105,-2451.9863667471845,-2455.8755702824083,-2459.518904628623,-2461.6423203518775,-2464.5480471310675,-2467.811401821542,-2471.968826290229,-2475.567457147534,-2480.1942682497825,-2484.329340974014,-2487.570343920034,-2491.2136782662487,-2495.5499166905784,-2498.8356231255084,-2502.2777917716257,-2506.8598993849637,-2511.1514343203826,-2514.683009944321,-2517.16405357886,-2521.366181536458,-2524.8307019270305,-2528.205815339782,-2530.239824085215,-2419.263412864615,-1970.5074394354153,-568.4048614984586,1584.3363504810752,4322.469749745101,7440.694563471623,10702.26111439003,13840.624849870785,16143.189804934242,17047.56373734042,17009.65517874422,17333.151976245877,18171.588262508903,19642.400102901473,21197.52272337946,22535.051111585035,23141.00690376841,23836.70494993984,24488.481818256598,25251.48096698296,25437.872163995766,25190.438352875513,24316.082813272813,23402.231741217583,22409.613121701852,21630.654827434402,20553.948945277803,19089.01561367698,17177.226206925658,15057.297355806513,12943.001144290107,10868.088706503953,8895.971941467755,6915.763844938737,5179.3015216948415,3719.3302773630953,2897.121357574625,2473.198172235271,2722.2413089563024,3105.394912409176,3803.819871404156,4375.063404448439,5120.181157610555,5539.209310914196,5917.222013142349,5890.221105840338,5694.531583134125,5046.800380563782,4215.0025624039845,3077.4105283511317,2016.9320126690882,1002.0287039314156,288.4269104512823,-163.72652813512423,-340.3276610765053,-110.41761760921689,485.94927620283084,1524.7913032521371,2761.0439373307154,4270.32312993087,5851.552587932657,7732.228366402193,9530.157986898183,11328.981677172385,12391.896533000057,13390.4607165409,14526.30931452624,16413.668264587912,18585.475514587823,21288.583730290382,24022.872629508096,27164.05268479022,30350.271505149783,33573.05777943823,36435.82450578505,39011.5054263479,41138.922111859574,43031.77959105725,44922.781875465145,47009.361923856966,49456.7214795019,52133.2534710471,55173.58245534688,58342.50102549804,61992.183267138396,65888.67347105425,70429.02802574969,75182.3500016153,80326.40282230411,85207.62147994299,90090.40475969372,94489.94332432072,98142.44188576244,99253.70356484695,99315.48378652142,99355.6498713076,99396.57591540526,99436.83140716927,99476.46105008853,99516.35891394127,99556.88262663873,99596.89224921374,99635.87369154379,99583.79412696292,99052.29199556018,97712.4613776757,95712.42728381483,93307.44663565715,90390.36517028394,87524.06686831318,84572.58606822325,82156.42954783792,80000.15676023446,78419.44139235513,76921.91921733848,76031.13514556111,75478.24239471465,75598.36066941747,75746.73154911179,76155.58965868827,76466.12244440585,76877.23808017232,77285.17976822612,77890.55441505366,78444.25182870052,79058.72363552137,79756.18746950477,80507.42960064765,81352.45965152499,82162.79979500768,83102.35537318652,83900.8490921079,84736.31259635837,85486.86182342313,86649.68897696603,87901.02903855193,89567.26218071725,91136.48875194654,93058.55996114732,94930.406800557,97165.5812460877,99135.86516807857,99831.9655456502,99886.12382246541,99884.4250898868,99879.19478168426,99875.50674384914,99871.46107810273,99867.08013618948,99862.92271172079,99861.53690356457,99882.97222649721,99895.04216850307,99888.53781086658,99884.67095907581,99880.73705205167,99876.44551711626,99872.06457520301,99868.28713039008,99873.2715694036,99889.00719750013,99884.00040674215,99879.75357529565,99875.66320606032,99871.3716711249,99867.39306061185,99879.44065087326,99899.11018599394,99893.76811906912,99888.94014226677,99884.55920035353,99880.46883111821,99876.2219996717,99871.68459554728,99875.26087466013,99897.79143307108,99895.82447955901,99890.46006088973,99885.74384280966,99881.60877008544,99877.29488340556,99872.75747928114,99869.20355191274,99885.20740094275,99898.03730226008,99891.37648241241,99886.66026433233,99882.324025908,99878.01013922814,99869.13649667938,99329.43127506152,96095.71499773444,90742.89688383305,84765.32516066136,79115.00532805984,73633.55292481816,68582.52806455232,64117.275371226715,60479.32779542539,57538.888757096385,55101.87805913426,53278.10982204793,51958.35107068432,51269.000919938204,50925.78988382696,51355.56922621361,51901.264715345475,52725.17236771255,53343.063991435054,54406.78351006312,55500.78964242812,56824.03526592675,57526.19296624577,58006.62136156814,57788.82596359563,57101.84509776177,55516.681732735844,53595.571648546655,51193.34026495698,48586.07632947878,45744.566112108965,43068.078824052674,40797.36510483803,39186.51958543296,38214.621033027295,37572.9695049488,37381.951496833746,37246.41051845676,37351.329606929976,37289.594088744416,37564.65465601142,37535.597388219525,37672.09949160808,37425.67150898832,37435.99801492668,37165.94423841766,37316.14796115732,37464.094157707,38050.3804147697,38485.21125140325,39377.13526214782,40389.55752725095,41520.66755541177,42267.908724297136,42866.19786813234,43474.72411092807,44158.28515986027,44786.14566160985,45253.453582936956,45612.93668901166,45462.062413938336,45246.09985901116,44969.407614398915,44986.23847797376,45065.09543241208,45552.4528685156,45878.0283782516,46385.45768087598,46880.63822753885,47963.692005120756,49364.63229234604,51680.16125919358,54118.46835833411,56361.95765280219,58645.814197756554,61580.75470694956,64696.65493925273,68195.48525756423,72504.05222225812,77803.98610877826,83798.00871586904,90248.63275869284,96627.57475704847,99461.5747882813,99663.3216337349,99703.68888422119,99744.05613470747,99784.08810902692,99823.98597287966,99861.71571752022,99873.0704037035,99867.75068852314,99864.19676115474,99860.95575820873,99858.05003142954,99854.74197325016,99855.7701534951,99878.9712642397,99882.61459858592,99877.85367701694,99874.16563918181,99870.5670083245,99867.41541235632,99863.90618847683,99860.95575820873,99875.93142699379,99888.51545912212,99883.03928173057,99879.03831947307,99875.03735721558,99871.59518856945,99867.92950247879,99865.20258965524,99882.25697067464,99895.84683130347,99890.10243297846,99885.94500850976,99881.69817706326,99877.85367701694,99874.21034267073,99870.23173215768,99866.63310130038,99881.38525264087,99897.70202609325,99891.80116555706,99887.3755201549,99883.08398521948,99879.26183691762,99875.28322640459,99870.9246362358,99873.9197699928,99897.54556388207,99897.05382550404,99891.5776481125,99886.95083701026,99883.03928173057,99878.85950551744,99874.47856360419,99873.94212173726,99893.81282255803,99894.99746501417,99889.52128762261,99884.89447652036,99880.69234856276,99876.6243310719,99871.1705054248,99509.36281792675,96586.0005123616,90246.53169471404,81141.12390770005,70107.14055384882,57660.63870914444,44931.76727673617,33227.41040318136,22253.374427959257,11383.92226504353,1604.7211414243152,-1782.9315999664784,-1901.619363024159,-1907.0508369267986,-1911.9682207069661,-1918.0255434543544,-1653.2914821256975,1603.0447605901672,12190.440260224374,34213.54701680506,70311.68136735933,96928.40688567245,99818.308629788,99852.4173918268,99857.22301688469,99852.86442671591,99850.49514180365,99848.43878131376,99846.1141998904,99847.14238013535,99869.04708970155,99873.78565952608,99870.03056645759,99867.23659840068,99864.33087162148,99861.96158670922,99859.39113609686,99856.46305757322,99853.53497904957,99862.49802857614,99882.6816538193,99879.1724299398,99875.61850257141,99872.57866532549,99869.5164763351,99865.62727279989,99861.69336577576,99869.69529029075,99888.47075563321,99884.46979337571,99880.73705205167,99877.2278281722,99874.16563918181,99870.7681740246,99867.05778444503,99863.90618847683,99877.11606944991,99899.40075867185,99894.90805803634,99890.59417135647,99887.08494747698,99883.48631661967,99879.5300578511,99875.46204036023,99871.86340950293,99868.24242690115,99874.322101393,99893.96928476922,99890.41535740082,99886.2802846766,99882.25697067464,99878.1218979504,99874.18799092626,99871.3716711249,99886.10147072095,99538.15186478519,94193.11215795424,79513.17930378667,59358.92425285868,37986.61088783871,18441.038541917627,3420.6662679512824,-1672.0222439792449,-1870.3716242756398,-1422.1744444578226,2498.880326614419,11609.429014853122,24548.04921722999,39451.00777757261,53418.83640513854,63618.18326928416,69581.96396612692,71940.31887535083,70568.16763498398,66364.89973841903,60164.77169570586,51605.461729223935,40380.30390504646,27252.20796492195,12920.26942017906,1024.5145588534544,-1938.6338518421476,-1978.8222883727897,-1983.6055616862252,-1987.6959309215465,-1992.4792042349823,-1996.2566490479292,-2000.7269979389905,-2005.353809041239,-2010.0700271213088,-2015.322687068306,-2019.904794681644,-2025.157454628641,-2030.030134919898,-2034.612242533236,-2038.7920187463785,-2042.413001348138,-2046.9504054725655,-2051.4431061080822,-2054.8182195208337,-2058.4615538670487,-2062.6860335691017,-2067.7598795604563,-2071.2467516954844,-2076.186487220107,-2080.098042499786,-2084.054301268375,-2088.1446705036965,-2092.346798461294,-2095.3419322183054,-2099.745225876001,-2104.1708712781515,-2106.7860253794224,-2111.2116707815735,-2115.682019672635,-2118.1407115627185,-2122.096970331308,-2125.6508976997015,-2130.054191357397,-2134.6810024596457,-2137.5867292388357,-2142.325299063361,-2146.0133368984866,-2149.52256077797,-2153.747040480023,-2157.0998021483188,-2159.8490667163214,