29439 
29541 
29670 
29710 
29699 
29688 
29746 
29737 
29733 
29769 
29792 
29848 
29881 
29894 
29945 
30007 
30072 
30141 
30211 
30237 
30260 
30299 
30314 
30304 
30275 
30281 
30359 
30421 
30377 
30353 
30372 
30389 
30399 
30371 
30354 
30394 
30473 
30521 
30530 
30530 
30539 
30500 
30472 
30482 
30490 
30520 
30562 
30567 
30542 
30503 
30470 
30449 
30450 
30467 
30461 
30439 
30419 
30443 
30466 
30448 
30414 
30362 
30298 
30284 
30307 
30296 
30259 
30166 
30032 
29962 
29929 
29809 
29656 
29484 
29267 
29049 
28866 
28695 
28501 
28306 
28080 
27802 
27586 
27366 
27155 
26972 
26787 
26592 
26396 
26196 
26020 
25864 
25733 
25665 
25570 
25425 
25322 
25247 
25219 
25176 
25162 
25141 
25103 
25099 
25096 
25120 
25139 
25137 
25160 
25169 
25202 
25227 
25244 
25258 
25275 
25299 
25372 
25391 
25400 
25482 
25531 
25574 
25661 
25811 
25955 
26023 
26079 
26165 
26284 
26401 
26430 
26519 
26581 
26646 
26723 
26813 
26931 
27039 
27153 
27199 
27228 
27249 
27340 
27467 
27544 
27577 
27597 
27604 
27654 
27747 
27810 
27855 
27920 
27961 
28001 
28104 
28179 
28226 
28275 
28298 
28363 
28434 
28461 
28446 
28473 
28589 
28642 
28681 
28756 
28818 
28873 
28937 
28979 
28988 
29001 
29067 
29142 
29222 
29315 
29426 
29520 
29582 
29599 
29603 
29664 
29758 
29798 
29810 
29836 
29929 
29970 
30021 
30099 
30156 
30220 
30284 
30289 
30302 
30325 
30372 
30400 
30439 
30464 
30478 
30527 
30509 
30528 
30606 
30668 
30720 
30744 
30746 
30761 
30803 
30875 
30939 
30989 
31020 
31060 
31069 
31033 
30999 
31063 
31093 
31092 
31106 
31105 
31109 
31095 
31071 
31036 
30981 
30895 
30748 
30635 
30514 
30373 
30235 
30063 
29892 
29690 
29468 
29304 
29161 
28962 
28703 
28490 
28287 
28109 
27953 
27765 
27551 
27377 
27227 
27062 
26858 
26696 
26598 
26529 
26451 
26370 
26281 
26221 
26188 
26116 
26060 
26017 
25958 
25910 
25927 
25933 
25941 
25976 
26025 
26006 
25980 
26030 
26108 
26173 
26206 
26237 
26322 
26397 
26437 
26463 
26528 
26636 
26748 
26847 
26922 
26980 
27074 
27222 
27380 
27485 
27551 
27627 
27647 
27707 
27753 
27836 
27948 
27952 
27963 
28028 
28078 
28162 
28258 
28336 
28437 
28533 
28591 
28590 
28596 
28636 
28710 
28743 
28815 
28870 
28983 
29038 
29008 
29051 
29119 
29123 
29130 
29128 
29156 
29266 
29327 
29419 
29490 
29513 
29548 
29580 
29630 
29684 
29720 
29802 
29865 
29879 
29939 
30018 
30082 
30126 
30224 
30266 
30329 
30373 
30389 
30419 
30531 
30674 
30694 
30738 
30755 
30754 
30779 
30741 
30743 
30787 
30868 
30953 
31019 
30994 
30956 
30941 
30957 
30927 
30904 
30991 
31039 
31032 
31006 
30979 
30960 
30978 
31022 
31127 
31184 
31179 
31151 
31144 
31219 
31278 
31263 
31289 
31353 
31322 
31278 
31250 
31239 
31229 
31223 
31211 
31163 
31066 
30949 
30824 
30717 
30593 
30394 
30193 
30008 
29751 
29569 
29415 
29195 
28952 
28691 
28451 
28229 
28030 
27850 
27678 
27498 
27315 
27143 
27013 
26915 
26789 
26633 
26497 
26383 
26239 
26163 
26130 
26077 
26052 
26040 
25979 
25919 
25924 
25970 
26003 
26006 
26019 
26025 
26044 
26087 
26111 
26172 
26196 
26228 
26293 
26334 
26356 
26393 
26504 
26570 
26662 
26791 
26886 
26973 
27078 
27162 
27235 
27388 
27557 
27631 
27691 
27814 
27898 
27993 
28083 
28209 
28328 
28412 
28514 
28578 
28633 
28730 
28819 
28913 
28989 
29027 
29066 
29134 
29179 
29202 
29224 
29236 
29287 
29398 
29472 
29486 
29519 
29574 
29637 
29661 
29735 
29832 
29853 
29849 
29842 
29902 
29972 
30036 
30110 
30151 
30187 
30255 
30329 
30324 
30351 
30409 
30497 
30534 
30529 
30505 
30483 
30510 
30555 
30535 
30501 
30553 
30577 
30601 
30677 
30725 
30752 
30775 
30823 
30842 
30839 
30888 
30910 
30884 
30888 
30906 
30880 
30902 
30964 
30937 
30939 
30958 
30977 
30992 
31071 
31118 
31128 
31108 
31071 
31056 
31065 
31055 
31036 
30984 
30961 
30934 
30879 
30843 
30881 
30897 
30867 
30784 
30655 
30535 
30433 
30300 
30178 
30041 
29814 
29574 
29333 
29111 
28921 
28690 
28506 
28354 
28155 
27941 
27760 
27609 
27400 
27191 
27054 
26911 
26761 
26600 
26450 
26304 
26204 
26155 
26071 
26007 
25941 
25891 
25865 
25829 
25855 
25911 
25970 
26010 
26019 
26005 
25988 
25978 
26049 
26164 
26187 
26217 
26276 
26309 
26362 
26434 
26464 
26565 
26722 
26838 
26918 
26995 
27058 
27144 
27207 
27309 
27388 
27466 
27552 
27644 
27763 
27862 
27948 
28062 
28098 
28110 
28217 
28349 
28460 
28527 
28578 
28644 
28712 
28750 
28775 
28855 
28906 
28949 
28963 
28969 
28974 
29065 
29165 
29163 
29165 
29163 
29211 
29247 
29266 
29278 
29279 
29319 
29320 
29365 
29434 
29475 
29511 
29557 
29597 
29613 
29632 
29672 
29742 
29774 
29792 
29862 
29914 
29951 
29937 
29930 
29948 
29980 
30079 
30148 
30176 
30228 
30270 
30288 
30297 
30339 
30377 
30365 
30369 
30416 
30494 
30529 
30581 
30649 
30636 
30616 
30646 
30651 
30692 
30705 
30714 
30762 
30856 
30895 
30974 
31021 
30972 
30945 
30910 
30879 
30860 
30862 
30894 
30906 
30940 
30912 
30849 
30828 
30789 
30772 
30766 
30679 
30594 
30507 
30459 
30330 
30165 
30002 
29871 
29695 
29537 
29354 
29178 
28942 
28662 
28393 
28150 
27945 
27704 
27486 
27291 
27069 
26869 
26649 
26426 
26254 
26122 
25994 
25840 
25685 
25553 
25456 
25396 
25291 
25230 
25129 
25030 
24957 
24962 
24972 
24964 
25039 
25121 
25131 
25128 
25144 
25203 
25234 
25261 
25314 
25356 
25446 
25530 
25568 
25612 
25650 
25689 
25770 
25888 
25989 
26083 
26191 
26235 
26277 
26468 
26581 
26637 
26683 
26757 
26866 
26957 
27027 
27139 
27284 
27384 
27472 
27571 
27649 
27731 
27812 
27851 
27871 
27955 
28077 
28166 
28242 
28367 
28430 
28508 
28601 
28628 
28694 
28766 
28804 
28882 
28950 
28944 
29016 
29069 
29092 
29149 
29171 
29223 
29322 
29432 
29498 
29508 
29514 
29520 
29552 
29624 
29711 
29790 
29845 
29913 
29972 
30068 
30139 
30193 
30240 
30244 
30263 
30321 
30386 
30437 
30491 
30553 
30608 
30652 
30710 
30792 
30798 
30832 
30897 
30924 
30963 
31025 
31075 
31114 
31114 
31165 
31184 
31214 
31283 
31305 
31373 
31408 
31425 
31455 
31442 
31433 
31426 
31433 
31410 
31421 
31438 
31484 
31473 
31418 
31421 
31439 
31438 
31454 
31456 
31412 
31331 
31280 
31241 
31215 
31206 
31181 
31168 
31169 
31193 
31179 
31106 
31015 
30931 
30851 
30799 
30706 
30563 
30465 
30337 
30196 
30030 
29832 
29598 
29346 
29128 
28929 
28702 
28403 
28108 
27866 
27592 
27345 
27143 
26940 
26751 
26515 
26283 
26100 
25911 
25800 
25702 
25524 
25393 
25347 
25321 
25285 
25261 
25202 
25137 
25108 
25081 
25101 
25091 
25076 
25102 
25149 
25255 
25305 
25327 
25387 
25442 
25481 
25564 
25583 
25591 
25632 
25712 
25795 
25867 
26006 
26148 
26222 
26294 
26418 
26525 
26628 
26747 
26838 
26945 
27068 
27214 
27375 
27474 
27559 
27623 
27738 
27881 
27946 
28028 
28131 
28200 
28260 
28408 
28529 
28563 
28619 
28706 
28762 
28774 
28880 
28946 
28970 
29006 
28957 
28972 
29043 
29105 
29222 
29301 
29319 
29322 
29381 
29446 
29515 
29599 
29660 
29671 
29682 
29762 
29869 
29933 
30006 
30038 
30099 
30140 
30184 
30221 
30277 
30360 
30410 
30433 
30485 
30547 
30626 
30711 
30789 
30875 
30933 
30946 
30991 
31037 
31114 
31154 
31204 
31237 
31301 
31339 
31339 
31359 
31391 
31463 
31517 
31574 
31606 
31643 
31708 
31673 
31652 
31671 
31703 
31763 
31808 
31822 
31814 
31795 
31782 
31755 
31733 
31726 
31749 
31754 
31764 
31765 
31755 
31744 
31772 
31816 
31805 
31809 
31819 
31791 
31769 
31799 
31813 
31772 
31697 
31670 
31668 
31668 
31667 
31634 
31503 
31424 
31327 
31193 
31038 
30862 
30679 
30504 
30338 
30165 
29969 
29736 
29504 
29260 
29006 
28758 
28530 
28298 
28072 
27867 
27634 
27424 
27273 
27065 
26817 
26682 
26585 
26453 
26310 
26109 
26012 
25940 
25812 
25727 
25768 
25773 
25741 
25743 
25723 
25673 
25668 
25717 
25863 
25901 
25866 
25851 
25834 
25844 
25875 
25917 
25935 
25992 
26100 
26187 
26264 
26342 
26388 
26475 
26619 
26765 
26838 
26907 
27009 
27148 
27292 
27405 
27499 
27581 
27624 
27648 
27720 
27865 
27961 
28012 
28082 
28182 
28242 
28278 
28310 
28345 
28499 
28607 
28675 
28763 
28782 
28806 
28834 
28906 
28980 
28974 
29013 
29057 
29132 
29229 
29276 
29291 
29338 
29355 
29340 
29367 
29383 
29399 
29445 
29471 
29524 
29580 
29615 
29663 
29694 
29748 
29820 
29898 
29949 
29969 
30010 
30057 
30101 
30150 
30221 
30247 
30240 
30228 
30289 
30352 
30381 
30433 
30476 
30481 
30488 
30538 
30577 
30566 
30589 
30591 
30633 
30707 
30734 
30724 
30675 
30669 
30723 
30796 
30921 
30951 
30968 
30988 
31029 
31089 
31119 
31138 
31101 
31057 
31102 
31084 
31058 
31043 
31084 
31070 
31018 
31024 
31068 
31074 
30981 
30852 
30724 
30598 
30490 
30379 
30208 
30043 
29866 
29680 
29528 
29315 
29056 
28806 
28592 
28363 
28117 
27933 
27721 
27492 
27320 
27130 
26946 
26783 
26622 
26514 
26383 
26268 
26170 
26083 
26030 
25935 
25854 
25783 
25823 
25841 
25788 
25752 
25768 
25800 
25890 
26015 
26055 
26055 
26080 
26140 
26238 
26287 
26322 
26389 
26464 
26523 
26587 
26625 
26772 
26878 
26928 
26988 
27109 
27180 
27255 
27366 
27510 
27576 
27651 
27748 
27851 
27928 
28040 
28164 
28227 
28302 
28363 
28395 
28444 
28474 
28508 
28599 
28670 
28716 
28779 
28795 
28824 
28863 
28896 
28948 
28974 
28982 
28993 
29041 
29152 
29220 
29211 
29223 
29244 
29237 
29283 
29349 
29401 
29416 
29473 
29526 
29574 
29554 
29587 
29613 
29660 
29702 
29735 
29824 
29879 
29914 
29986 
30083 
30132 
30175 
30191 
30261 
30273 
30333 
30441 
30487 
30497 
30515 
30577 
30625 
30661 
30762 
30810 
30874 
30927 
30919 
30887 
30883 
30905 
30960 
30984 
30973 
31009 
31085 
31108 
31117 
31128 
31140 
31137 
31148 
31155 
31121 
31112 
31164 
31192 
31233 
31220 
31196 
31157 
31150 
31189 
31163 
31114 
31122 
31146 
31149 
31146 
31113 
31041 
30980 
30924 
30781 
30592 
30393 
30226 
30020 
29775 
29520 
29293 
29013 
28725 
28456 
28197 
27927 
27663 
27441 
27174 
26886 
26642 
26463 
26232 
25997 
25806 
25660 
25562 
25459 
25397 
25361 
25206 
25088 
25049 
25010 
25009 
25029 
25060 
25058 
25013 
24981 
24977 
24974 
24986 
24987 
25062 
25137 
25185 
25240 
25291 
25362 
25432 
25529 
25659 
25760 
25855 
25964 
26063 
26182 
26321 
26422 
26522 
26634 
26741 
26836 
26868 
26991 
27159 
27309 
27403 
27522 
27645 
27733 
27845 
27960 
28041 
28137 
28197 
28241 
28338 
28408 
28455 
28530 
28595 
28666 
28764 
28848 
28908 
28988 
29090 
29083 
29088 
29126 
29236 
29336 
29368 
29444 
29495 
29528 
29574 
29639 
29689 
29720 
29798 
29872 
29911 
29986 
30074 
30140 
30205 
30277 
30335 
30404 
30473 
30575 
30607 
30668 
30743 
30760 
30841 
30918 
30969 
31029 
31129 
31204 
31225 
31246 
31265 
31315 
31365 
31434 
31512 
31560 
31557 
31544 
31548 
31579 
31634 
31630 
31599 
31641 
31692 
31744 
31773 
31823 
31875 
31875 
31845 
31859 
31836 
31820 
31836 
31832 
31845 
31870 
31898 
31946 
31959 
31933 
31990 
32017 
32025 
32076 
32136 
32100 
32064 
32060 
32019 
31988 
31943 
31915 
31912 
31853 
31770 
31683 
31547 
31398 
31222 
31039 
30831 
30608 
30377 
30133 
29885 
29617 
29366 
29111 
28859 
28582 
28359 
28102 
27884 
27682 
27454 
27229 
27036 
26796 
26593 
26422 
26233 
26073 
25937 
25846 
25741 
25644 
25585 
25560 
25491 
25401 
25363 
25309 
25301 
25341 
25400 
25424 
25463 
25485 
25521 
25572 
25588 
25602 
25632 
25705 
25781 
25890 
25979 
26027 
26108 
26232 
26355 
26427 
26491 
26579 
26690 
26828 
26937 
27048 
27162 
27251 
27333 
27449 
27551 
27726 
27862 
27974 
28087 
28159 
28259 
28321 
28331 
28367 
28445 
28545 
28587 
28597 
28618 
28679 
28790 
28941 
29091 
29131 
29160 
29215 
29262 
29292 
29352 
29475 
29536 
29617 
29738 
29807 
29911 
29989 
30080 
30149 
30207 
30220 
30268 
30343 
30433 
30507 
30566 
30605 
30605 
30646 
30703 
30773 
30802 
30871 
30916 
30947 
31045 
31133 
31212 
31181 
31173 
31263 
31336 
31387 
31471 
31579 
31575 
31572 
31656 
31662 
31667 
31659 
31654 
31621 
31644 
31687 
31713 
31720 
31819 
31896 
31948 
31913 
31917 
31962 
32011 
32013 
31976 
31954 
31970 
31952 
31954 
31964 
31994 
32012 
32048 
32068 
32048 
32038 
32029 
32047 
32053 
32028 
32003 
31980 
31970 
31971 
31998 
31997 
32005 
31969 
31889 
31834 
31787 
31665 
31532 
31409 
31234 
31034 
30830 
30585 
30337 
30119 
29874 
29629 
29354 
29069 
28791 
28516 
28224 
27965 
27751 
27578 
27428 
27237 
27019 
26780 
26574 
26453 
26349 
26201 
26030 
25895 
25845 
25780 
25755 
25755 
25704 
25671 
25657 
25629 
25606 
25667 
25735 
25742 
25747 
25748 
25772 
25851 
25968 
26033 
26070 
26099 
26112 
26127 
26208 
26325 
26416 
26505 
26636 
26763 
26855 
26942 
27023 
27181 
27309 
27386 
27487 
27633 
27745 
27885 
28053 
28180 
28258 
28341 
28402 
28491 
28583 
28644 
28717 
28865 
28935 
28938 
28940 
28956 
28947 
28989 
29065 
29184 
29280 
29389 
29476 
29557 
29524 
29551 
29670 
29759 
29828 
29838 
29858 
29905 
29963 
30031 
30025 
30010 
30047 
30109 
30129 
30141 
30161 
30167 
30224 
30269 
30280 
30317 
30394 
30442 
30508 
30547 
30597 
30683 
30765 
30793 
30839 
30878 
30932 
30997 
31016 
31053 
31122 
31226 
31325 
31391 
31410 
31456 
31494 
31505 
31508 
31520 
31541 
31599 
31678 
31732 
31739 
31749 
31799 
31804 
31748 
31695 
31682 
31661 
31621 
31593 
31618 
31659 
31643 
31678 
31753 
31753 
31808 
31794 
31709 
31681 
31659 
31573 
31516 
31437 
31308 
31132 
31016 
30883 
30729 
30509 
30254 
29984 
29706 
29453 
29175 
28898 
28645 
28370 
28095 
27837 
27610 
27408 
27250 
27068 
26868 
26670 
26448 
26279 
26121 
26016 
25903 
25803 
25778 
25712 
25649 
25593 
25557 
25579 
25596 
25569 
25529 
25534 
25521 
25481 
25488 
25553 
25583 
25624 
25689 
25741 
25842 
25981 
26131 
26233 
26347 
26475 
26584 
26672 
26779 
26897 
27015 
27099 
27168 
27306 
27369 
27467 
27639 
27803 
27908 
28000 
28094 
28207 
28304 
28426 
28480 
28502 
28543 
28597 
28740 
28882 
28966 
29052 
29082 
29097 
29125 
29177 
29216 
29298 
29396 
29432 
29439 
29476 
29561 
29646 
29683 
29701 
29679 
29694 
29789 
29862 
29901 
29972 
30064 
30136 
30151 
30148 
30195 
30230 
30245 
30293 
30377 
30434 
30514 
30649 
30697 
30732 
30782 
30813 
30839 
30818 
30864 
30904 
30945 
30968 
31059 
31134 
31153 
31204 
31286 
31327 
31350 
31372 
31360 
31370 
31438 
31531 
31526 
31528 
31547 
31555 
31570 
31592 
31601 
31654 
31719 
31719 
31694 
31685 
31708 
31738 
31782 
31837 
31833 
31837 
31851 
31873 
31886 
31880 
31825 
31789 
31819 
31829 
31815 
31827 
31855 
31883 
31923 
31933 
31906 
31852 
31800 
31766 
31708 
31632 
31518 
31376 
31193 
30991 
30767 
30551 
30338 
30111 
29887 
29609 
29333 
29032 
28750 
28478 
28146 
27839 
27603 
27363 
27069 
26801 
26617 
26456 
26247 
26048 
25884 
25713 
25562 
25459 
25348 
25239 
25204 
25136 
25028 
24954 
24933 
24954 
24988 
24985 
24968 
24959 
24966 
24987 
24989 
24965 
24969 
25010 
25075 
25188 
25281 
25391 
25471 
25514 
25579 
25735 
25825 
25880 
25984 
26040 
26143 
26286 
26389 
26480 
26610 
26776 
26929 
27128 
27261 
27356 
27447 
27545 
27640 
27841 
28025 
28117 
28135 
28165 
28223 
28280 
28356 
28425 
28466 
28535 
28602 
28675 
28751 
28820 
28850 
28900 
29023 
29158 
29232 
29264 
29394 
29517 
29574 
29601 
29626 
29633 
29679 
29745 
29844 
29929 
30007 
30071 
30170 
30220 
30272 
30329 
30368 
30394 
30446 
30489 
30554 
30616 
30696 
30739 
30780 
30844 
30881 
30941 
31077 
31175 
31268 
31302 
31331 
31350 
31463 
31552 
31616 
31684 
31718 
31786 
31886 
31938 
31955 
31974 
32024 
32090 
32135 
32204 
32269 
32292 
32310 
32286 
32265 
32272 
32311 
32298 
32319 
32376 
32382 
32376 
32370 
32374 
32422 
32454 
32459 
32488 
32499 
32486 
32435 
32419 
32447 
32443 
32375 
32347 
32416 
32446 
32407 
32392 
32383 
32378 
32388 
32363 
32324 
32267 
32132 
32029 
31928 
31770 
31577 
31405 
31195 
30957 
30720 
30483 
30223 
29970 
29717 
29438 
29198 
28932 
28586 
28264 
28028 
27791 
27612 
27443 
27195 
26981 
26828 
26625 
26405 
26262 
26171 
26074 
25957 
25898 
25877 
25796 
25728 
25673 
25642 
25632 
25603 
25588 
25604 
25666 
25670 
25665 
25678 
25663 
25683 
25708 
25778 
25890 
26017 
26091 
26161 
26213 
26299 
26376 
26534 
26688 
26791 
26876 
26946 
27057 
27180 
27249 
27336 
27420 
27543 
27686 
27832 
27911 
27984 
28056 
28122 
28211 
28299 
28397 
28503 
28604 
28687 
28791 
28883 
28986 
29067 
29073 
29087 
29175 
29261 
29308 
29357 
29416 
29473 
29518 
29523 
29546 
29602 
29694 
29770 
29874 
29946 
29995 
30023 
30122 
30200 
30274 
30318 
30374 
30474 
30588 
30674 
30736 
30792 
30817 
30870 
30952 
31064 
31138 
31208 
31283 
31338 
31367 
31328 
31446 
31555 
31599 
31632 
31681 
31703 
31758 
31851 
32009 
32031 
31973 
31994 
32044 
32079 
32063 
32067 
32167 
32260 
32287 
32293 
32276 
32245 
32270 
32256 
32222 
32296 
32348 
32322 
32337 
32362 
32392 
32443 
32537 
32609 
32591 
32555 
32516 
32518 
32556 
32597 
32581 
32603 
32664 
32660 
32678 
32651 
32626 
32595 
32572 
32528 
32438 
32340 
32198 
32035 
31902 
31715 
31483 
31244 
30994 
30776 
30540 
30264 
29997 
29754 
29443 
29153 
28888 
28613 
28361 
28122 
27880 
27681 
27484 
27323 
27163 
26969 
26839 
26692 
26564 
26472 
26350 
26265 
26162 
26061 
26031 
26024 
25964 
25930 
25934 
25915 
25892 
25871 
25832 
25823 
25861 
25898 
25958 
26050 
26079 
26170 
26294 
26386 
26489 
26578 
26618 
26697 
26837 
26923 
27020 
27133 
27180 
27306 
27495 
27619 
27754 
27843 
27886 
27926 
28011 
28050 
28125 
28255 
28387 
28453 
28513 
28571 
28621 
28688 
28794 
28871 
28922 
29009 
29054 
29064 
29102 
29162 
29192 
29238 
29359 
29479 
29512 
29527 
29523 
29541 
29655 
29712 
29761 
29816 
29876 
29966 
30022 
30093 
30109 
30103 
30174 
30238 
30239 
30266 
30315 
30418 
30487 
30535 
30592 
30607 
30664 
30767 
30837 
30928 
31006 
31033 
31087 
31137 
31215 
31299 
31342 
31357 
31414 
31507 
31530 
31556 
31642 
31722 
31761 
31783 
31790 
31803 
31836 
31863 
31942 
31946 
31934 
31987 
32020 
32039 
32046 
32084 
32154 
32160 
32149 
32166 
32159 
32108 
32087 
32134 
32165 
32197 
32158 
32111 
32099 
32057 
31993 
31955 
31939 
31873 
31751 
31670 
31615 
31541 
31361 
31158 
30941 
30746 
30495 
30214 
29950 
29695 
29456 
29225 
28989 
28703 
28377 
28085 
27822 
27570 
27292 
27067 
26860 
26716 
26559 
26329 
26114 
25937 
25818 
25746 
25659 
25521 
25489 
25497 
25475 
25423 
25386 
25385 
25344 
25328 
25326 
25321 
25394 
25538 
25645 
25719 
25731 
25782 
25791 
25837 
25929 
26014 
26118 
26188 
26313 
26425 
26503 
26581 
26657 
26790 
26948 
27123 
27281 
27391 
27488 
27654 
27832 
27946 
28039 
28171 
28282 
28385 
28500 
28589 
28692 
28783 
28896 
29002 
29117 
29236 
29309 
29349 
29367 
29424 
29608 
29731 
29773 
29794 
29800 
29809 
29818 
29801 
29832 
29986 
30087 
30186 
30244 
30282 
30341 
30390 
30447 
30529 
30569 
30610 
30609 
30651 
30743 
30834 
30963 
31070 
31093 
31063 
31090 
31149 
31245 
31346 
31431 
31513 
31550 
31605 
31626 
31658 
31746 
31782 
31815 
31894 
31916 
31944 
31978 
32018 
32115 
32152 
32215 
32200 
32219 
32255 
32292 
32401 
32430 
32391 
32371 
32361 
32397 
32445 
32451 
32478 
32476 
32495 
32568 
32662 
32700 
32670 
32661 
32649 
32651 
32659 
32663 
32664 
32660 
32645 
32624 
32607 
32657 
32595 
32531 
32535 
32558 
32527 
32520 
32562 
32603 
32583 
32582 
32546 
32475 
32408 
32381 
32323 
32226 
32164 
32083 
31996 
31854 
31676 
31502 
31316 
31094 
30812 
30506 
30239 
30007 
29763 
29562 
29275 
28964 
28648 
28375 
28110 
27804 
27525 
27195 
26897 
26631 
26400 
26167 
25953 
25752 
25617 
25476 
25369 
25281 
25155 
25015 
24921 
24850 
24796 
24774 
24802 
24768 
24778 
24812 
24826 
24846 
24863 
24870 
24952 
25020 
25040 
25079 
25174 
25264 
25323 
25375 
25398 
25457 
25515 
25629 
25739 
25898 
26057 
26173 
26313 
26434 
26551 
26768 
26931 
27060 
27128 
27208 
27346 
27514 
27677 
27787 
27853 
27959 
28125 
28272 
28334 
28432 
28568 
28624 
28692 
28806 
28906 
28906 
28943 
29020 
29076 
29141 
29170 
29289 
29415 
29498 
29526 
29507 
29523 
29573 
29675 
29797 
29889 
29961 
30047 
30123 
30192 
30330 
30439 
30494 
30531 
30570 
30609 
30616 
30672 
30784 
30895 
30918 
30946 
31029 
31129 
31209 
31293 
31395 
31476 
31510 
31542 
31592 
31690 
31757 
31812 
31840 
31874 
31959 
32037 
32115 
32160 
32173 
32221 
32262 
32341 
32342 
32396 
32443 
32512 
32558 
32550 
32576 
32634 
32623 
32599 
32575 
32539 
32537 
32523 
32573 
32587 
32592 
32618 
32633 
32633 
32661 
32678 
32692 
32668 
32670 
32705 
32760 
32764 
32782 
32798 
32794 
32804 
32840 
32835 
32808 
32797 
32804 
32747 
32662 
32606 
32552 
32475 
32397 
32307 
32161 
31967 
31748 
31527 
31286 
31077 
30880 
30610 
30333 
30064 
29792 
29578 
29373 
29149 
28907 
28648 
28394 
28118 
27859 
27625 
27380 
27165 
26992 
26809 
26646 
26482 
26324 
26175 
26103 
26076 
26040 
26057 
26101 
26087 
26084 
26130 
26144 
26125 
26130 
26164 
26234 
26222 
26215 
26222 
26234 
26246 
26240 
26257 
26353 
26462 
26522 
26572 
26643 
26735 
26873 
26971 
27031 
27133 
27232 
27363 
27484 
27571 
27626 
27712 
27827 
27958 
28055 
28148 
28238 
28335 
28453 
28524 
28608 
28670 
28749 
28782 
28786 
28870 
28976 
29049 
29077 
29095 
29157 
29255 
29333 
29404 
29457 
29490 
29594 
29679 
29731 
29798 
29910 
29984 
30024 
30070 
30104 
30166 
30322 
30423 
30472 
30498 
30580 
30628 
30685 
30788 
30852 
30879 
30921 
30989 
31050 
31092 
31155 
31201 
31228 
31268 
31308 
31291 
31269 
31259 
31299 
31346 
31358 
31432 
31496 
31555 
31614 
31616 
31597 
31602 
31669 
31757 
31751 
31682 
31655 
31678 
31719 
31720 
31717 
31699 
31730 
31778 
31778 
31724 
31715 
31741 
31752 
31716 
31648 
31619 
31608 
31556 
31510 
31448 
31475 
31523 
31499 
31489 
31485 
31462 
31450 
31396 
31320 
31226 
31127 
31021 
30905 
30773 
30592 
30432 
30257 
30072 
29876 
29640 
29419 
29177 
28868 
28565 
28295 
28048 
27867 
27655 
27402 
27169 
26942 
26729 
26560 
26405 
26253 
26186 
26077 
25962 
25895 
25827 
25732 
25659 
25589 
25553 
25497 
25435 
25379 
25362 
25361 
25355 
25321 
25347 
25417 
25464 
25536 
25644 
25684 
25737 
25834 
25900 
25960 
26096 
26242 
26357 
26429 
26482 
26600 
26697 
26852 
26960 
27056 
27201 
27339 
27501 
27630 
27724 
27796 
27919 
28074 
28236 
28362 
28382 
28395 
28515 
28606 
28633 
28646 
28723 
28842 
28919 
28983 
29076 
29101 
29114 
29134 
29202 
29293 
29382 
29418 
29418 
29421 
29515 
29622 
29665 
29652 
29658 
29716 
29769 
29808 
29886 
29940 
29996 
30025 
30044 
30063 
30088 
30174 
30228 
30269 
30310 
30376 
30352 
30352 
30412 
30448 
30495 
30546 
30595 
30621 
30591 
30640 
30715 
30739 
30791 
30874 
30929 
30945 
30990 
31054 
31032 
31045 
31121 
31130 
31155 
31159 
31132 
31160 
31206 
31187 
31211 
31266 
31307 
31355 
31338 
31254 
31255 
31332 
31410 
31415 
31379 
31357 
31391 
31389 
31398 
31409 
31403 
31460 
31525 
31493 
31465 
31472 
31531 
31583 
31610 
31631 
31681 
31695 
31712 
31754 
31693 
31633 
31696 
31692 
31614 
31516 
31482 
31464 
31398 
31264 
31093 
30970 
30845 
30645 
30379 
30137 
29886 
29638 
29380 
29120 
28857 
28612 
28358 
28103 
27878 
27593 
27313 
27142 
27015 
26854 
26655 
26446 
26274 
26161 
26097 
26014 
25912 
25825 
25757 
25716 
25687 
25626 
25554 
25524 
25562 
25578 
25577 
25611 
25641 
25680 
25735 
25783 
25884 
25967 
26085 
26170 
26221 
26260 
26345 
26464 
26569 
26653 
26733 
26859 
26952 
27031 
27141 
27241 
27304 
27392 
27527 
27628 
27707 
27775 
27826 
27955 
28092 
28214 
28289 
28329 
28361 
28383 
28404 
28483 
28591 
28686 
28723 
28748 
28751 
28736 
28758 
28809 
28884 
28925 
28900 
28956 
28997 
28993 
29054 
29119 
29173 
29241 
29295 
29334 
29368 
29375 
29361 
29348 
29347 
29371 
29430 
29441 
29477 
29561 
29601 
29680 
29708 
29752 
29761 
29818 
29851 
29863 
29937 
29935 
29917 
29960 
30058 
30166 
30233 
30248 
30328 
30426 
30499 
30507 
30491 
30479 
30470 
30531 
30617 
30644 
30698 
30803 
30847 
30850 
30891 
30886 
30939 
31049 
31168 
31173 
31193 
31241 
31238 
31282 
31353 
31444 
31541 
31544 
31600 
31629 
31600 
31603 
31640 
31700 
31746 
31840 
31852 
31789 
31754 
31809 
31902 
31908 
31904 
31890 
31908 
31939 
31929 
31928 
31968 
31965 
31915 
31872 
31837 
31791 
31777 
31756 
31761 
31783 
31781 
31776 
31757 
31691 
31588 
31445 
31300 
31177 
31025 
30868 
30741 
30576 
30359 
30104 
29894 
29657 
29423 
29194 
28922 
28731 
28566 
28393 
28186 
27972 
27722 
27524 
27364 
27232 
27065 
26914 
26755 
26612 
26489 
26367 
26232 
26162 
26107 
26006 
25913 
25875 
25859 
25834 
25765 
25731 
25770 
25818 
25845 
25808 
25821 
25908 
25952 
25963 
25975 
26015 
26087 
26185 
26223 
26209 
26253 
26310 
26299 
26320 
26353 
26434 
26525 
26537 
26549 
26584 
26678 
26734 
26782 
26763 
26828 
26910 
27067 
27179 
27250 
27391 
27480 
27490 
27498 
27521 
27658 
27869 
27988 
28014 
28033 
28078 
28124 
28149 
28216 
28310 
28425 
28535 
28640 
28741 
28819 
28972 
29080 
29109 
29126 
29156 
29199 
29299 
29424 
29482 
29548 
29628 
29702 
29751 
29780 
29809 
29863 
29944 
29997 
30029 
30081 
30153 
30233 
30255 
30243 
30261 
30302 
30350 
30427 
30457 
30471 
30471 
30507 
30554 
30624 
30676 
30719 
30786 
30854 
30923 
30966 
31020 
31035 
31057 
31129 
31146 
31133 
31173 
31241 
31305 
31316 
31309 
31316 
31328 
31356 
31377 
31430 
31549 
31576 
31517 
31469 
31499 
31498 
31456 
31454 
31460 
31493 
31495 
31472 
31452 
31467 
31430 
31353 
31286 
31283 
31233 
31175 
31174 
31151 
31097 
31023 
31016 
31046 
31026 
30997 
31029 
31064 
31001 
30939 
30906 
30830 
30787 
30807 
30837 
30826 
30697 
30625 
30581 
30622 
30648 
30602 
30524 
30447 
30389 
30401 
30380 
30424 
30430 
30501 
30539 
30503 
30497 
30494 
30485 
30496 
30508 
30473 
30505 
30588 
30698 
30725 
30724 
30759 
30728 
30636 
30629 
30634 
30625 
30677 
30741 
30836 
30887 
30848 
30814 
30857 
30903 
30934 
30996 
30989 
30919 
30865 
30842 
30817 
30863 
30918 
30928 
30909 
30902 
30960 
30991 
30987 
30994 
31014 
31046 
31100 
31093 
31131 
31159 
31160 
31171 
31159 
31198 
31246 
31229 
31239 
31279 
31344 
31351 
31370 
31391 
31415 
31521 
31548 
31526 
31476 
31422 
31421 
31437 
31464 
31503 
31548 
31539 
31537 
31566 
31556 
31463 
31496 
31569 
31628 
31666 
31635 
31603 
31549 
31490 
31466 
31425 
31429 
31476 
31500 
31501 
31480 
31533 
31546 
31534 
31527 
31531 
31590 
31597 
31624 
31575 
31551 
31583 
31620 
31631 
31602 
31583 
31554 
31535 
31552 
31578 
31571 
31591 
31539 
31464 
31478 
31483 
31567 
31598 
31616 
31594 
31584 
31543 
31536 
31546 
31588 
31605 
31644 
31648 
31662 
31730 
31718 
31650 
31656 
31705 
31756 
31824 
31832 
31840 
31775 
31770 
31807 
31762 
31704 
31678 
31651 
31646 
31628 
31544 
31475 
31394 
31332 
31342 
31354 
31363 
31394 
31378 
31342 
31267 
31214 
31198 
31185 
31213 
31225 
31246 
31243 
31175 
31165 
31189 
31180 
31133 
31100 
31103 
31086 
31103 
31137 
31180 
31191 
31155 
31177 
31165 
31150 
31167 
31118 
31098 
31107 
31110 
31077 
30997 
30971 
30950 
30951 
30946 
30905 
30896 
30898 
30839 
30780 
30795 
30817 
30759 
30710 
30665 
30636 
30635 
30662 
30661 
30616 
30561 
30561 
30582 
30579 
30583 
30589 
30574 
30606 
30599 
30514 
30442 
30434 
30440 
30449 
30432 
30382 
30328 
30246 
30212 
30252 
30297 
30335 
30347 
30356 
30382 
30420 
30444 
30431 
30375 
30321 
30317 
30345 
30383 
30417 
30425 
30403 
30382 
30379 
30412 
30432 
30463 
30518 
30577 
30601 
30548 
30482 
30407 
30398 
30403 
30416 
30397 
30338 
30316 
30336 
30350 
30354 
30382 
30405 
30370 
30352 
30358 
30340 
30327 
30277 
30248 
30264 
30292 
30329 
30298 
30252 
30236 
30173 
30172 
30205 
30215 
30192 
30170 
30210 
30201 
30158 
30124 
30102 
30108 
30084 
30127 
30149 
30138 
30102 
30104 
30062 
30040 
30035 
29989 
30003 
30049 
30029 
30000 
29992 
29979 
30041 
30092 
30041 
30000 
30014 
30008 
30003 
30022 
30036 
29999 
29998 
30040 
29975 
29903 
29933 
29934 
29904 
29875 
29868 
29858 
29896 
29860 
29834 
29875 
29896 
29920 
29938 
29975 
29999 
30001 
29950 
29922 
29913 
29881 
29807 
29734 
29740 
29750 
29753 
29797 
29796 
29845 
29862 
29851 
29868 
29860 
29878 
29865 
29824 
29759 
29707 
29664 
29675 
29688 
29652 
29648 
29687 
29755 
29777 
29729 
29722 
29661 
29588 
29562 
29581 
29652 
29665 
29660 
29674 
29690 
29776 
29846 
29857 
29832 
29815 
29777 
29749 
29702 
29641 
29653 
29626 
29635 
29680 
29666 
29615 
29581 
29607 
29630 
29615 
29592 
29602 
29598 
29573 
29559 
29568 
29550 
29603 
29608 
29612 
29634 
29624 
29610 
29611 
29616 
29650 
29692 
29682 
29645 
29655 
29696 
29746 
29767 
29734 
29738 
29773 
29746 
29723 
29741 
29705 
29697 
29697 
29693 
29638 
29534 
29510 
29498 
29482 
29468 
29507 
29552 
29560 
29548 
29587 
29611 
29617 
29626 
29568 
29530 
29551 
29531 
29523 
29516 
29498 
29528 
29537 
29550 
29561 
29544 
29539 
29542 
29535 
29566 
29583 
29619 
29637 
29638 
29579 
29549 
29505 
29441 
29451 
29543 
29582 
29568 
29560 
29499 
29470 
29474 
29445 
29418 
29392 
29409 
29420 
29407 
29408 
29505 
29549 
29599 
29646 
29672 
29654 
29658 
29663 
29630 
29629 
29660 
29723 
29730 
29781 
29750 
29745 
29759 
29723 
29708 
29699 
29729 
29772 
29766 
29787 
29820 
29784 
29753 
29698 
29688 
29709 
29718 
29710 
29680 
29685 
29693 
29669 
29718 
29740 
29727 
29760 
29840 
29837 
29817 
29795 
29759 
29696 
29690 
29662 
29678 
29674 
29660 
29672 
29762 
29807 
29809 
29795 
29774 
29814 
29859 
29818 
29835 
29882 
29887 
29885 
29872 
29921 
29964 
29973 
29943 
29932 
29968 
30015 
30022 
30021 
30060 
30064 
30067 
29999 
29986 
29960 
29954 
30012 
30079 
30103 
30150 
30158 
30114 
30141 
30142 
30119 
30086 
30084 
30076 
30135 
30142 
30147 
30151 
30148 
30115 
30111 
30057 
29988 
29980 
29980 
29993 
29967 
29985 
29994 
29985 
29948 
29853 
29829 
29823 
29782 
29726 
29697 
29715 
29759 
29815 
29837 
29775 
29727 
29735 
29761 
29802 
29764 
29781 
29827 
29838 
29833 
29817 
29787 
29798 
29827 
29804 
29812 
29800 
29778 
29777 
29765 
29768 
29783 
29766 
29778 
29798 
29741 
29728 
29690 
29667 
29686 
29768 
29812 
29852 
29908 
29905 
29874 
29823 
29787 
29798 
29846 
29862 
29885 
29926 
29897 
29830 
29818 
29801 
29812 
29817 
29749 
29715 
29743 
29793 
29849 
29907 
29917 
29907 
29918 
29989 
29997 
29976 
29983 
29962 
29944 
29995 
30025 
29970 
29895 
29890 
29865 
29878 
29882 
29856 
29836 
29760 
29745 
29714 
29690 
29717 
29747 
29743 
29742 
29719 
29722 
29690 
29667 
29642 
29565 
29506 
29507 
29530 
29553 
29566 
29629 
29691 
29667 
29598 
29608 
29641 
29676 
29685 
29683 
29698 
29699 
29695 
29715 
29787 
29845 
29835 
29785 
29818 
29866 
29843 
29823 
29790 
29764 
29836 
29885 
29889 
29884 
29845 
29802 
29801 
29796 
29794 
29804 
29852 
29898 
29890 
29889 
29890 
29871 
29858 
29853 
29868 
29850 
29837 
29818 
29853 
29867 
29858 
29869 
29864 
29843 
29814 
29798 
29843 
29828 
29752 
29674 
29690 
29744 
29750 
29733 
29730 
29747 
29742 
29775 
29725 
29644 
29648 
29699 
29727 
29735 
29677 
29639 
29642 
29631 
29641 
29631 
29610 
29671 
29707 
29658 
29607 
29609 
29621 
29633 
29648 
29641 
29616 
29599 
29576 
29556 
29537 
29515 
29497 
29487 
29490 
29502 
29549 
29557 
29588 
29596 
29598 
29581 
29517 
29500 
29510 
29495 
29483 
29492 
29475 
29490 
29523 
29559 
29562 
29534 
29510 
29475 
29441 
29472 
29451 
29439 
29435 
29417 
29391 
29355 
29316 
29303 
29329 
29400 
29406 
29392 
29334 
29285 
29324 
29345 
29313 
29308 
29285 
29308 
29374 
29349 
29301 
29312 
29330 
29362 
29380 
29379 
29354 
29342 
29339 
29376 
29401 
29385 
29348 
29313 
29273 
29320 
29366 
29359 
29330 
29375 
29354 
29334 
29267 
29226 
29250 
29276 
29242 
29233 
29215 
29221 
29238 
29240 
29271 
29289 
29307 
29354 
29382 
29326 
29285 
29291 
29306 
29318 
29386 
29447 
29422 
29397 
29331 
29286 
29295 
29312 
29249 
29218 
29233 
29227 
29226 
29160 
29143 
29178 
29194 
29227 
29273 
29307 
29238 
29194 
29201 
29166 
29116 
29174 
29201 
29186 
29180 
29200 
29247 
29296 
29318 
29255 
29201 
29220 
29224 
29220 
29203 
29161 
29197 
29206 
29159 
29170 
29165 
29136 
29081 
29080 
29125 
29124 
29121 
29119 
29103 
29058 
29022 
29056 
29086 
29146 
29159 
29090 
29077 
29085 
29033 
29002 
29002 
29070 
29059 
29038 
29064 
29053 
29070 
29161 
29233 
29176 
29161 
29152 
29159 
29179 
29169 
29220 
29272 
29300 
29378 
29363 
29319 
29328 
29326 
29315 
29340 
29363 
29328 
29335 
29346 
29333 
29321 
29331 
29361 
29361 
29349 
29354 
29452 
29488 
29496 
29487 
29401 
29372 
29353 
29323 
29373 
29401 
29359 
29353 
29421 
29479 
29464 
29444 
29427 
29410 
29455 
29526 
29506 
29470 
29432 
29477 
29458 
29410 
29398 
29356 
29308 
29317 
29336 
29339 
29367 
29342 
29342 
29398 
29341 
29320 
29331 
29400 
29430 
29386 
29328 
29303 
29320 
29343 
29378 
29353 
29352 
29344 
29315 
29289 
29274 
29253 
29265 
29267 
29222 
29185 
29206 
29271 
29298 
29254 
29224 
29193 
29177 
29224 
29248 
29279 
29320 
29431 
29429 
29348 
29318 
29300 
29328 
29394 
29369 
29346 
29357 
29397 
29422 
29369 
29305 
29295 
29274 
29299 
29318 
29327 
29301 
29344 
29364 
29333 
29296 
29275 
29295 
29362 
29402 
29359 
29366 
29433 
29483 
29487 
29490 
29471 
29423 
29439 
29428 
29432 
29435 
29393 
29328 
29284 
29254 
29247 
29233 
29250 
29243 
29251 
29288 
29258 
29265 
29281 
29268 
29244 
29150 
29061 
29033 
28976 
28978 
29013 
29015 
28973 
28917 
28919 
28940 
28943 
28944 
28932 
28917 
28915 
28898 
28852 
28832 
28764 
28715 
28678 
28636 
28618 
28604 
28596 
28578 
28580 
28581 
28564 
28555 
28542 
28586 
28574 
28567 
28591 
28546 
28554 
28612 
28646 
28615 
28531 
28455 
28462 
28463 
28460 
28448 
28438 
28442 
28441 
28413 
28423 
28432 
28428 
28485 
28541 
28556 
28540 
28548 
28530 
28554 
28562 
28586 
28593 
28632 
28640 
28616 
28622 
28664 
28700 
28714 
28702 
28740 
28790 
28778 
28756 
28784 
28845 
28843 
28820 
28816 
28823 
28849 
28872 
29006 
29097 
29102 
29038 
29003 
29008 
29029 
29011 
29040 
29015 
29011 
29090 
29130 
29117 
29142 
29170 
29171 
29148 
29130 
29139 
29154 
29136 
29169 
29215 
29235 
29188 
29187 
29177 
29237 
29303 
29349 
29393 
29432 
29423 
29400 
29360 
29367 
29379 
29403 
29382 
29366 
29327 
29294 
29237 
29176 
29131 
29155 
29165 
29162 
29125 
29054 
28958 
28912 
28874 
28842 
28807 
28774 
28701 
28701 
28692 
28596 
28570 
28526 
28483 
28445 
28421 
28360 
28272 
28237 
28192 
28170 
28181 
28175 
28127 
28084 
28089 
28075 
28018 
28049 
28056 
28047 
28069 
28069 
28045 
27958 
27922 
27938 
27959 
27967 
27968 
28007 
27981 
28021 
28074 
28091 
28074 
28022 
28001 
28007 
28018 
27998 
27963 
28008 
28078 
28090 
28088 
28086 
28070 
28121 
28116 
28094 
28062 
28066 
28135 
28145 
28181 
28229 
28178 
28180 
28224 
28266 
28279 
28241 
28238 
28231 
28261 
28333 
28386 
28370 
28387 
28413 
28408 
28396 
28389 
28437 
28531 
28489 
28457 
28483 
28620 
28738 
28709 
28707 
28764 
28786 
28766 
28735 
28721 
28755 
28800 
28832 
28837 
28878 
28895 
28887 
28873 
28865 
28858 
28904 
28968 
28997 
29086 
29132 
29164 
29172 
29131 
29120 
29179 
29198 
29195 
29193 
29183 
29227 
29287 
29308 
29326 
29329 
29340 
29401 
29447 
29457 
29491 
29470 
29497 
29573 
29638 
29693 
29679 
29683 
29691 
29689 
29704 
29753 
29789 
29845 
29817 
29786 
29779 
29786 
29785 
29735 
29719 
29791 
29843 
29823 
29806 
29816 
29820 
29773 
29731 
29755 
29742 
29736 
29762 
29819 
29852 
29860 
29885 
29874 
29838 
29829 
29853 
29852 
29826 
29810 
29808 
29767 
29668 
29596 
29590 
29545 
29495 
29440 
29420 
29418 
29432 
29385 
29288 
29112 
28994 
28941 
28951 
28944 
28959 
28955 
28903 
28881 
28867 
28801 
28739 
28681 
28652 
28607 
28506 
28408 
28356 
28346 
28335 
28281 
28253 
28249 
28193 
28143 
28141 
28115 
28070 
28029 
28018 
28075 
28093 
28032 
28021 
28005 
27998 
27993 
27996 
28012 
28047 
28107 
28162 
28220 
28214 
28195 
28189 
28168 
28209 
28296 
28326 
28404 
28461 
28478 
28508 
28484 
28519 
28574 
28564 
28582 
28625 
28579 
28572 
28611 
28643 
28683 
28758 
28816 
28804 
28787 
28764 
28764 
28812 
28841 
28845 
28943 
29054 
29106 
29143 
29160 
29237 
29289 
29295 
29289 
29316 
29327 
29325 
29369 
29427 
29460 
29465 
29461 
29487 
29530 
29599 
29647 
29652 
29628 
29647 
29643 
29687 
29674 
29648 
29649 
29685 
29768 
29783 
29724 
29717 
29744 
29759 
29762 
29734 
29726 
29730 
29787 
29823 
29842 
29863 
29882 
29907 
29986 
29970 
29922 
29935 
29959 
29975 
30038 
30126 
30123 
30129 
30123 
30122 
30139 
30126 
30091 
30060 
30046 
30038 
30050 
30079 
30107 
30174 
30188 
30163 
30176 
30164 
30210 
30280 
30278 
30261 
30233 
30229 
30230 
30254 
30237 
30207 
30233 
30250 
30287 
30325 
30303 
30191 
30082 
30062 
29993 
29895 
29836 
29757 
29628 
29572 
29571 
29489 
29370 
29272 
29157 
29029 
28947 
28896 
28865 
28791 
28700 
28656 
28640 
28611 
28555 
28470 
28440 
28354 
28269 
28172 
28097 
28055 
28061 
28105 
28139 
28133 
28023 
27965 
27944 
27986 
28018 
28072 
28094 
28078 
28149 
28200 
28198 
28224 
28261 
28290 
28259 
28281 
28374 
28479 
28533 
28562 
28629 
28730 
28817 
28858 
28937 
28917 
28943 
28978 
29035 
29126 
29206 
29297 
29308 
29325 
29401 
29471 
29514 
29567 
29604 
29631 
29643 
29725 
29773 
29815 
29877 
29927 
30012 
30064 
30047 
30082 
30143 
30150 
30182 
30242 
30333 
30459 
30553 
30544 
30562 
30650 
30703 
30767 
30919 
31031 
31090 
31068 
31106 
31129 
31157 
31185 
31255 
31337 
31393 
31404 
31417 
31465 
31502 
31519 
31524 
31573 
31609 
31616 
31636 
31686 
31756 
31814 
31849 
31817 
31840 
31855 
31887 
31928 
31958 
32001 
31989 
31977 
31991 
31999 
32025 
32052 
32095 
32124 
32091 
32070 
32018 
32007 
32017 
32085 
32106 
32094 
32071 
32105 
32112 
32105 
32160 
32183 
32190 
32094 
32037 
32042 
32027 
31984 
31968 
31977 
32010 
31998 
31990 
32003 
31983 
32019 
32055 
32001 
32001 
32065 
32067 
32052 
32029 
32006 
32003 
31985 
31976 
31945 
31960 
31968 
31904 
31761 
31652 
31511 
31376 
31259 
31164 
31103 
30987 
30824 
30698 
30633 
30514 
30371 
30311 
30236 
30139 
30068 
29980 
29944 
29900 
29853 
29796 
29691 
29631 
29583 
29541 
29448 
29338 
29231 
29190 
29233 
29234 
29168 
29102 
29131 
29165 
29200 
29246 
29259 
29294 
29322 
29371 
29404 
29515 
29561 
29630 
29692 
29788 
29881 
29930 
29903 
29932 
30039 
30151 
30222 
30300 
30368 
30471 
30569 
30612 
30608 
30593 
30616 
30728 
30864 
30953 
31041 
31064 
31089 
31088 
31133 
31212 
31313 
31310 
31363 
31452 
31460 
31534 
31598 
31668 
31705 
31742 
31793 
31808 
31800 
31783 
31840 
31912 
31937 
32023 
32130 
32172 
32129 
32174 
32283 
32323 
32337 
32340 
32391 
32427 
32504 
32595 
32611 
32631 
32655 
32648 
32663 
32680 
32744 
32820 
32919 
32887 
32870 
32923 
32967 
32992 
33046 
33034 
32979 
32934 
32941 
32918 
32946 
33025 
33060 
33081 
33037 
33044 
33033 
33002 
33015 
33079 
33118 
33153 
33175 
33153 
33138 
33133 
33102 
33068 
33060 
33035 
33038 
33041 
33019 
33055 
33055 
33064 
33099 
33102 
33076 
33065 
33084 
33043 
33009 
32936 
32917 
32891 
32858 
32880 
32839 
32843 
32828 
32773 
32781 
32767 
32776 
32739 
32683 
32603 
32490 
32385 
32256 
32168 
32076 
31893 
31736 
31634 
31476 
31315 
31167 
31044 
30956 
30819 
30731 
30603 
30509 
30402 
30236 
30119 
29976 
29837 
29707 
29647 
29611 
29572 
29515 
29425 
29394 
29370 
29322 
29306 
29279 
29253 
29223 
29220 
29243 
29230 
29212 
29278 
29321 
29254 
29241 
29317 
29374 
29437 
29538 
29620 
29707 
29790 
29829 
29891 
29931 
29939 
29966 
30072 
30146 
30220 
30282 
30341 
30395 
30482 
30581 
30637 
30678 
30743 
30822 
30903 
30968 
31051 
31117 
31169 
31214 
31256 
31304 
31365 
31425 
31513 
31551 
31611 
31666 
31734 
31808 
31870 
31875 
31946 
32011 
32062 
32100 
32147 
32170 
32122 
32159 
32194 
32217 
32255 
32275 
32333 
32416 
32498 
32501 
32461 
32492 
32517 
32595 
32673 
32712 
32730 
32693 
32648 
32687 
32725 
32774 
32853 
32931 
32919 
32941 
33060 
33128 
33109 
33115 
33110 
33103 
33057 
33037 
33030 
32996 
33042 
33066 
33129 
33214 
33191 
33161 
33170 
33192 
33207 
33215 
33161 
33173 
33191 
33272 
33313 
33371 
33426 
33487 
33493 
33505 
33475 
33446 
33463 
33459 
33441 
33470 
33509 
33551 
33513 
33489 
33515 
33421 
33355 
33350 
33414 
33428 
33417 
33371 
33385 
33428 
33366 
33265 
33162 
33110 
33124 
33140 
33101 
32997 
32898 
32793 
32701 
32567 
32426 
32331 
32165 
31948 
31769 
31624 
31435 
31262 
31106 
30890 
30702 
30556 
30486 
30338 
30083 
29824 
29680 
29547 
29440 
29345 
29259 
29172 
29070 
28997 
28893 
28848 
28832 
28773 
28681 
28622 
28585 
28590 
28646 
28702 
28770 
28820 
28832 
28805 
28778 
28775 
28799 
28897 
28986 
29051 
29136 
29268 
29368 
29398 
29459 
29602 
29662 
29772 
29831 
29926 
30014 
30025 
30037 
30078 
30178 
30346 
30432 
30491 
30555 
30612 
30691 
30724 
30737 
30866 
30957 
31020 
31108 
31164 
31228 
31322 
31471 
31512 
31500 
31582 
31643 
31718 
31799 
31834 
31930 
32045 
32043 
32033 
32066 
32055 
32073 
32149 
32241 
32297 
32321 
32422 
32491 
32550 
32633 
32649 
32634 
32635 
32662 
32684 
32780 
32893 
32903 
32870 
32872 
32976 
33057 
33076 
33065 
33069 
33079 
33158 
33177 
33151 
33162 
33148 
33138 
33178 
33193 
33227 
33239 
33286 
33330 
33396 
33479 
33477 
33462 
33456 
33480 
33456 
33437 
33459 
33480 
33456 
33477 
33535 
33613 
33729 
33782 
33762 
33772 
33800 
33728 
33624 
33612 
33614 
33617 
33631 
33627 
33603 
33540 
33450 
33433 
33483 
33478 
33457 
33505 
33553 
33545 
33538 
33645 
33678 
33670 
33630 
33532 
33473 
33479 
33471 
33429 
33368 
33305 
33251 
33130 
32995 
32862 
32677 
32501 
32301 
32112 
31954 
31796 
31613 
31403 
31161 
30983 
30856 
30675 
30476 
30238 
30050 
29901 
29740 
29623 
29513 
29420 
29338 
29267 
29221 
29092 
28968 
28913 
28950 
28972 
28957 
28971 
28909 
28877 
28964 
29002 
29040 
29048 
28998 
29015 
29097 
29104 
29175 
29246 
29274 
29324 
29377 
29446 
29538 
29640 
29805 
29911 
30016 
30075 
30120 
30213 
30301 
30425 
30543 
30645 
30706 
30750 
30834 
30992 
31140 
31216 
31319 
31431 
31522 
31596 
31583 
31606 
31655 
31740 
31806 
31875 
31864 
31897 
31923 
32002 
32086 
32089 
32122 
32206 
32268 
32313 
32316 
32309 
32342 
32388 
32424 
32481 
32573 
32676 
32733 
32708 
32704 
32703 
32694 
32716 
32811 
32829 
32847 
32856 
32906 
32912 
32903 
32902 
32947 
33018 
33109 
33195 
33191 
33197 
33287 
33321 
33324 
33358 
33407 
33424 
33413 
33387 
33358 
33346 
33360 
33350 
33344 
33321 
33332 
33388 
33436 
33508 
33515 
33537 
33582 
33670 
33705 
33691 
33670 
33653 
33673 
33684 
33675 
33692 
33717 
33690 
33646 
33654 
33710 
33727 
33717 
33705 
33723 
33713 
33665 
33675 
33717 
33722 
33690 
33660 
33654 
33648 
33655 
33683 
33630 
33621 
33617 
33591 
33555 
33547 
33552 
33595 
33547 
33501 
33526 
33471 
33419 
33322 
33219 
33068 
32860 
32659 
32457 
32209 
31986 
31839 
31675 
31478 
31307 
31168 
31006 
30801 
30606 
30476 
30332 
30155 
29935 
29818 
29709 
29555 
29487 
29433 
29423 
29361 
29316 
29302 
29239 
29151 
29123 
29121 
29188 
29240 
29199 
29128 
29098 
29129 
29176 
29194 
29244 
29270 
29373 
29458 
29500 
29587 
29597 
29602 
29691 
29760 
29848 
29944 
30024 
30105 
30188 
30287 
30382 
30471 
30552 
30589 
30639 
30788 
30905 
30981 
31097 
31191 
31211 
31290 
31360 
31408 
31490 
31533 
31559 
31639 
31687 
31723 
31746 
31826 
31942 
31925 
31905 
31957 
32071 
32145 
32119 
32090 
32114 
32107 
32112 
32150 
32214 
32235 
32281 
32332 
32397 
32432 
32481 
32497 
32516 
32547 
32580 
32636 
32703 
32670 
32683 
32688 
32726 
32811 
32880 
32905 
32915 
33000 
33047 
33079 
33068 
33099 
33184 
33232 
33217 
33198 
33202 
33213 
33266 
33344 
33401 
33403 
33396 
33403 
33446 
33449 
33421 
33448 
33427 
33462 
33499 
33555 
33581 
33586 
33566 
33525 
33518 
33585 
33627 
33607 
33590 
33650 
33661 
33636 
33683 
33737 
33741 
33714 
33737 
33832 
33874 
33871 
33818 
33790 
33734 
33686 
33668 
33716 
33788 
33783 
33757 
33763 
33752 
33737 
33698 
33605 
33530 
33399 
33285 
33197 
33065 
32885 
32674 
32502 
32302 
32138 
31958 
31782 
31564 
31350 
31181 
30998 
30826 
30647 
30452 
30304 
30194 
30061 
29962 
29890 
29754 
29654 
29515 
29395 
29367 
29376 
29363 
29342 
29303 
29307 
29321 
29320 
29295 
29192 
29207 
29275 
29323 
29374 
29396 
29391 
29381 
29455 
29552 
29558 
29631 
29709 
29779 
29789 
29800 
29861 
29936 
29961 
30001 
30105 
30176 
30239 
30292 
30371 
30436 
30496 
30586 
30640 
30696 
30734 
30771 
30866 
30966 
31061 
31188 
31311 
31346 
31407 
31439 
31490 
31548 
31534 
31551 
31630 
31664 
31660 
31680 
31696 
31752 
31768 
31856 
31906 
31897 
31900 
31940 
32022 
32046 
32050 
32107 
32130 
32142 
32165 
32194 
32268 
32331 
32378 
32416 
32463 
32497 
32525 
32553 
32615 
32613 
32596 
32673 
32722 
32758 
32780 
32801 
32838 
32860 
32922 
32925 
32946 
32985 
32970 
32950 
32932 
32959 
32966 
33013 
33039 
33073 
33172 
33212 
33252 
33287 
33287 
33301 
33342 
33401 
33442 
33440 
33431 
33467 
33552 
33604 
33569 
33482 
33521 
33564 
33545 
33541 
33562 
33566 
33623 
33645 
33663 
33696 
33710 
33723 
33741 
33731 
33786 
33845 
33855 
33882 
33886 
33827 
33785 
33778 
33786 
33775 
33801 
33810 
33745 
33730 
33669 
33579 
33428 
33315 
33250 
33229 
33165 
33072 
32942 
32782 
32649 
32465 
32211 
31975 
31784 
31541 
31319 
31068 
30856 
30702 
30583 
30418 
30204 
30054 
29930 
29779 
29590 
29444 
29351 
29240 
29149 
29021 
28927 
28862 
28844 
28798 
28743 
28693 
28654 
28650 
28669 
28648 
28654 
28697 
28726 
28798 
28840 
28856 
28877 
28947 
29000 
29049 
29185 
29254 
29290 
29318 
29343 
29415 
29501 
29547 
29676 
29823 
29921 
29990 
30042 
30105 
30207 
30279 
30341 
30367 
30432 
30531 
30605 
30720 
30841 
30929 
31021 
31171 
31205 
31221 
31314 
31394 
31424 
31417 
31484 
31545 
31657 
31710 
31734 
31725 
31743 
31857 
31969 
32066 
32094 
32113 
32153 
32197 
32176 
32188 
32315 
32406 
32399 
32436 
32479 
32516 
32600 
32601 
32597 
32657 
32732 
32778 
32724 
32721 
32789 
32889 
32926 
32951 
33008 
33014 
33023 
33040 
33131 
33177 
33201 
33196 
33182 
33184 
33300 
33452 
33509 
33555 
33570 
33551 
33561 
33573 
33597 
33654 
33714 
33755 
33813 
33833 
33890 
33874 
33841 
33871 
33958 
34017 
33991 
33991 
34035 
34038 
33981 
33916 
33907 
33943 
33984 
34020 
33999 
34059 
34068 
34053 
34018 
34000 
34032 
34073 
34084 
34097 
34096 
34066 
34019 
33959 
33909 
33844 
33771 
33740 
33710 
33647 
33606 
33511 
33363 
33306 
33189 
33014 
32833 
32630 
32424 
32226 
32072 
31936 
31797 
31671 
31502 
31360 
31233 
31084 
30972 
30851 
30676 
30512 
30383 
30212 
30089 
30048 
29966 
29914 
29849 
29785 
29691 
29636 
29589 
29580 
29642 
29667 
29630 
29643 
29647 
29612 
29559 
29603 
29642 
29732 
29812 
29839 
29870 
29881 
29907 
29952 
30024 
30050 
30056 
30060 
30108 
30206 
30291 
30385 
30500 
30539 
30580 
30652 
30781 
30894 
30994 
31084 
31153 
31200 
31160 
31197 
31330 
31421 
31469 
31508 
31628 
31731 
31854 
31880 
31901 
31923 
31961 
32042 
32092 
32189 
32299 
32366 
32381 
32413 
32474 
32524 
32526 
32561 
32582 
32614 
32693 
32762 
32751 
32748 
32776 
32862 
32936 
32964 
33019 
33033 
32997 
32958 
33007 
33164 
33300 
33361 
33375 
33375 
33413 
33486 
33532 
33576 
33624 
33730 
33847 
33875 
33926 
33971 
33981 
34013 
34049 
34081 
34100 
34082 
34060 
34065 
34150 
34179 
34167 
34196 
34260 
34318 
34349 
34394 
34476 
34506 
34538 
34551 
34501 
34491 
34524 
34534 
34579 
34592 
34599 
34610 
34634 
34641 
34652 
34720 
34743 
34697 
34629 
34611 
34603 
34641 
34695 
34751 
34681 
34633 
34672 
34698 
34720 
34736 
34739 
34689 
34612 
34543 
34452 
34315 
34184 
34097 
33957 
33827 
33704 
33552 
33398 
33198 
33002 
32815 
32624 
32436 
32297 
32129 
31981 
31864 
31729 
31565 
31399 
31280 
31171 
31126 
31103 
30996 
30892 
30840 
30767 
30686 
30619 
30533 
30509 
30536 
30525 
30509 
30528 
30542 
30507 
30519 
30596 
30641 
30614 
30642 
30659 
30673 
30731 
30808 
30831 
30890 
30961 
31003 
31052 
31077 
31103 
31173 
31268 
31349 
31410 
31460 
31531 
31588 
31648 
31739 
31782 
31849 
31881 
31826 
31823 
31897 
32000 
32105 
32146 
32197 
32237 
32239 
32312 
32406 
32575 
32684 
32672 
32605 
32598 
32606 
32607 
32609 
32586 
32598 
32651 
32686 
32729 
32774 
32840 
32892 
32948 
33001 
32998 
32986 
32948 
32926 
32951 
33034 
33091 
33109 
33091 
33107 
33154 
33213 
33235 
33186 
33188 
33265 
33314 
33350 
33360 
33388 
33398 
33391 
33421 
33451 
33475 
33550 
33601 
33609 
33656 
33685 
33681 
33703 
33705 
33698 
33658 
33650 
33728 
33802 
33764 
33727 
33715 
33714 
33716 
33731 
33746 
33771 
33791 
33788 
33756 
33742 
33761 
33730 
33708 
33654 
33641 
33723 
33721 
33717 
33689 
33662 
33673 
33719 
33732 
33807 
33868 
33815 
33746 
33691 
33739 
33787 
33735 
33704 
33717 
33723 
33666 
33578 
33488 
33462 
33399 
33308 
33197 
33090 
32893 
32647 
32405 
32149 
31926 
31746 
31580 
31411 
31229 
31030 
30815 
30599 
30407 
30252 
30104 
29939 
29780 
29638 
29488 
29315 
29160 
29024 
28838 
28673 
28547 
28445 
28329 
28260 
28223 
28179 
28174 
28137 
28117 
28061 
28017 
28029 
28031 
28068 
28039 
28000 
28050 
28101 
28120 
28135 
28133 
28168 
28211 
28233 
28259 
28300 
28367 
28447 
28536 
28654 
28685 
28689 
28722 
28774 
28832 
28845 
28915 
29020 
29122 
29210 
29289 
29315 
29336 
29393 
29415 
29448 
29507 
29626 
29713 
29771 
29821 
29889 
29958 
29987 
30005 
30023 
30112 
30133 
30108 
30159 
30222 
30271 
30334 
30417 
30464 
30504 
30469 
30432 
30447 
30506 
30541 
30532 
30562 
30639 
30697 
30746 
30825 
30855 
30859 
30904 
30960 
30987 
30959 
30982 
31027 
31068 
31170 
31243 
31205 
31226 
31294 
31356 
31333 
31346 
31445 
31465 
31453 
31489 
31527 
31529 
31561 
31656 
31690 
31629 
31658 
31710 
31699 
31758 
31782 
31788 
31823 
31811 
31843 
31917 
31987 
32014 
31978 
31958 
31999 
32017 
32018 
32009 
31996 
32018 
32040 
32064 
32114 
32101 
32132 
32145 
32122 
32127 
32126 
32139 
32110 
32158 
32195 
32189 
32182 
32196 
32203 
32144 
32060 
31985 
31886 
31895 
31928 
31837 
31732 
31685 
31613 
31482 
31373 
31276 
31120 
30922 
30738 
30545 
30346 
30148 
29937 
29764 
29579 
29371 
29164 
28975 
28784 
28573 
28348 
28159 
28013 
27894 
27751 
27629 
27564 
27416 
27296 
27232 
27201 
27109 
27017 
26915 
26818 
26780 
26714 
26633 
26582 
26525 
26502 
26461 
26475 
26522 
26520 
26520 
26563 
26613 
26623 
26705 
26757 
26731 
26756 
26893 
26999 
27138 
27215 
27204 
27234 
27312 
27326 
27365 
27500 
27591 
27676 
27768 
27848 
27860 
27850 
27886 
27904 
27976 
28089 
28196 
28269 
28317 
28373 
28456 
28541 
28638 
28694 
28738 
28772 
28803 
28865 
28936 
28961 
28988 
29013 
29050 
29054 
29036 
29098 
29157 
29238 
29296 
29288 
29343 
29387 
29452 
29513 
29534 
29522 
29513 
29539 
29649 
29757 
29861 
29924 
29975 
30048 
30145 
30178 
30227 
30307 
30390 
30418 
30448 
30495 
30523 
30583 
30676 
30775 
30837 
30884 
30939 
30986 
31016 
31033 
31039 
31084 
31142 
31160 
31160 
31214 
31291 
31400 
31426 
31451 
31486 
31483 
31471 
31467 
31485 
31513 
31507 
31527 
31522 
31541 
31552 
31550 
31533 
31570 
31609 
31592 
31567 
31546 
31546 
31609 
31608 
31582 
31568 
31578 
31554 
31508 
31491 
31504 
31524 
31505 
31513 
31521 
31510 
31449 
31415 
31397 
31311 
31263 
31189 
31062 
30984 
30880 
30716 
30536 
30306 
30109 
29974 
29776 
29550 
29366 
29194 
29070 
28935 
28743 
28549 
28424 
28333 
28210 
28032 
27889 
27758 
27670 
27611 
27566 
27455 
27379 
27304 
27233 
27179 
27144 
27100 
27021 
26966 
26926 
26905 
26937 
26954 
26926 
26892 
26845 
26845 
26910 
26997 
26997 
26988 
26975 
26949 
26951 
26966 
26980 
27003 
27019 
27041 
27119 
27165 
27196 
27204 
27200 
27270 
27330 
27318 
27382 
27470 
27496 
27581 
27657 
27706 
27790 
27895 
27963 
27971 
28009 
28068 
28083 
28104 
28156 
28267 
28380 
28422 
28427 
28425 
28454 
28421 
28425 
28473 
28487 
28489 
28467 
28510 
28521 
28527 
28571 
28622 
28686 
28769 
28752 
28794 
28876 
28918 
28959 
29006 
29036 
29086 
29146 
29265 
29361 
29343 
29360 
29410 
29420 
29461 
29532 
29578 
29601 
29710 
29810 
29885 
29966 
30017 
30030 
30035 
30085 
30129 
30193 
30245 
30235 
30225 
30220 
30237 
30290 
30307 
30297 
30288 
30272 
30233 
30241 
30312 
30341 
30316 
30324 
30311 
30304 
30328 
30334 
30330 
30295 
30255 
30253 
30263 
30263 
30229 
30176 
30107 
30016 
29910 
29770 
29686 
29645 
29507 
29369 
29277 
29133 
28977 
28839 
28685 
28515 
28317 
28149 
28060 
27984 
27816 
27591 
27445 
27390 
27264 
27095 
27013 
26979 
26904 
26841 
26808 
26748 
26729 
26748 
26772 
26782 
26792 
26782 
26767 
26766 
26791 
26799 
26835 
26903 
26923 
27002 
27063 
27065 
27088 
27092 
27129 
27231 
27286 
27364 
27456 
27542 
27635 
27761 
27816 
27874 
27940 
28016 
28071 
28107 
28135 
28192 
28282 
28346 
28370 
28422 
28435 
28461 
28547 
28571 
28612 
28652 
28650 
28622 
28673 
28780 
28813 
28878 
28909 
28916 
28935 
28982 
29013 
28996 
29024 
29103 
29189 
29269 
29238 
29265 
29312 
29324 
29323 
29343 
29363 
29421 
29482 
29521 
29548 
29587 
29616 
29637 
29715 
29783 
29805 
29819 
29810 
29792 
29798 
29826 
29870 
29926 
29973 
30083 
30106 
30095 
30086 
30126 
30165 
30137 
30140 
30201 
30309 
30358 
30371 
30373 
30376 
30406 
30445 
30499 
30534 
30565 
30605 
30656 
30655 
30614 
30604 
30608 
30579 
30584 
30580 
30520 
30494 
30491 
30525 
30567 
30559 
30483 
30413 
30439 
30432 
30406 
30396 
30390 
30385 
30378 
30364 
30352 
30331 
30286 
30292 
30301 
30305 
30318 
30317 
30316 
30283 
30290 
30288 
30283 
30309 
30343 
30342 
30276 
30207 
30116 
30041 
29957 
29848 
29720 
29577 
29441 
29304 
29150 
28993 
28846 
28685 
28525 
28364 
28199 
28004 
27825 
27673 
27469 
27326 
27195 
27093 
27048 
26970 
26870 
26788 
26711 
26592 
26521 
26440 
26363 
26319 
26297 
26264 
26216 
26170 
26134 
26107 
26086 
26076 
26112 
26144 
26182 
26177 
26197 
26186 
26186 
26239 
26300 
26318 
26349 
26481 
26606 
26659 
26626 
26659 
26747 
26768 
26775 
26835 
26918 
26987 
27052 
27127 
27155 
27148 
27213 
27288 
27372 
27425 
27496 
27615 
27700 
27775 
27790 
27837 
27912 
28020 
28077 
28128 
28173 
28230 
28243 
28248 
28240 
28274 
28350 
28395 
28369 
28303 
28329 
28449 
28506 
28533 
28473 
28487 
28550 
28549 
28559 
28575 
28588 
28630 
28666 
28717 
28788 
28839 
28867 
28859 
28851 
28833 
28846 
28931 
28961 
29002 
29027 
29053 
29105 
29182 
29262 
29357 
29439 
29445 
29493 
29512 
29547 
29604 
29679 
29701 
29749 
29761 
29745 
29735 
29774 
29815 
29778 
29773 
29782 
29814 
29862 
29884 
29883 
29919 
29945 
29912 
29934 
29914 
29902 
29906 
29907 
29863 
29847 
29901 
29890 
29870 
29871 
29906 
29913 
29947 
29943 
29920 
29887 
29877 
29910 
29930 
29924 
29902 
29843 
29831 
29798 
29769 
29768 
29746 
29747 
29711 
29645 
29538 
29479 
29429 
29297 
29177 
29060 
28895 
28729 
28557 
28411 
28289 
28165 
28055 
27908 
27736 
27599 
27480 
27326 
27180 
27063 
26940 
26827 
26753 
26625 
26531 
26427 
26347 
26245 
26141 
26088 
26048 
26031 
26022 
26020 
26052 
26048 
26036 
26013 
26013 
25970 
25903 
25867 
25867 
25930 
26033 
26087 
26127 
26182 
26255 
26278 
26308 
26346 
26378 
26411 
26463 
26545 
26677 
26797 
26787 
26833 
26920 
26984 
27055 
27180 
27246 
27299 
27396 
27493 
27542 
27582 
27648 
27640 
27648 
27735 
27813 
27850 
27877 
27908 
27971 
28004 
28026 
28075 
28084 
28124 
28128 
28138 
28233 
28260 
28256 
28280 
28300 
28317 
28354 
28399 
28412 
28427 
28480 
28545 
28607 
28686 
28747 
28777 
28834 
28884 
28934 
28971 
29041 
29130 
29218 
29275 
29258 
29220 
29264 
29284 
29282 
29315 
29303 
29259 
29321 
29349 
29377 
29411 
29432 
29418 
29429 
29470 
29601 
29717 
29703 
29659 
29656 
29680 
29665 
29649 
29666 
29736 
29784 
29817 
29834 
29840 
29846 
29834 
29809 
29840 
29855 
29876 
29915 
29919 
29934 
29913 
29877 
29863 
29882 
29897 
29875 
29855 
29835 
29812 
29778 
29751 
29739 
29735 
29748 
29759 
29724 
29685 
29663 
29649 
29644 
29579 
29516 
29503 
29514 
29495 
29483 
29435 
29428 
29381 
29307 
29200 
29083 
28971 
28879 
28774 
28661 
28584 
28496 
28390 
28260 
28104 
27928 
27825 
27769 
27671 
27575 
27468 
27338 
27215 
27097 
27007 
26959 
26892 
26835 
26807 
26798 
26756 
26697 
26689 
26717 
26692 
26622 
26569 
26510 
26513 
26532 
26570 
26610 
26629 
26657 
26726 
26741 
26794 
26803 
26783 
26769 
26780 
26835 
26848 
26853 
26889 
26914 
26977 
27021 
27036 
27123 
27186 
27214 
27242 
27299 
27398 
27453 
27455 
27503 
27560 
27577 
27583 
27622 
27685 
27743 
27762 
27777 
27783 
27795 
27831 
27844 
27877 
27940 
28056 
28154 
28159 
28137 
28113 
28099 
28090 
28122 
28106 
28117 
28150 
28201 
28193 
28182 
28210 
28202 
28178 
28162 
28163 
28140 
28149 
28187 
28182 
28194 
28212 
28143 
28109 
28128 
28143 
28140 
28161 
28193 
28191 
28201 
28191 
28170 
28132 
28090 
28062 
28059 
28094 
28130 
28097 
28053 
28048 
28059 
28066 
28034 
28002 
27959 
27969 
27960 
27978 
28015 
28053 
28091 
28102 
28139 
28197 
28184 
28177 
28149 
28137 
28190 
28230 
28207 
28139 
28128 
28172 
28219 
28219 
28203 
28210 
28217 
28239 
28269 
28320 
28321 
28377 
28457 
28426 
28379 
28374 
28390 
28427 
28431 
28411 
28404 
28412 
28397 
28361 
28348 
28362 
28337 
28296 
28260 
28163 
28075 
27989 
27889 
27784 
27742 
27743 
27713 
27662 
27606 
27541 
27433 
27270 
27091 
26991 
26962 
26944 
26887 
26809 
26741 
26718 
26672 
26630 
26618 
26606 
26556 
26535 
26541 
26505 
26456 
26415 
26463 
26462 
26465 
26487 
26478 
26479 
26517 
26531 
26550 
26553 
26551 
26606 
26649 
26667 
26688 
26698 
26711 
26724 
26802 
26901 
26944 
26995 
27041 
27074 
27050 
27069 
27113 
27154 
27216 
27311 
27347 
27378 
27408 
27418 
27460 
27538 
27517 
27533 
27580 
27586 
27582 
27604 
27655 
27716 
27797 
27788 
27758 
27752 
27769 
27820 
27846 
27855 
27875 
27904 
27959 
27980 
27998 
28011 
28025 
28065 
28110 
28170 
28190 
28192 
28219 
28291 
28292 
28287 
28314 
28349 
28335 
28349 
28368 
28395 
28383 
28395 
28468 
28476 
28442 
28451 
28480 
28487 
28533 
28596 
28642 
28648 
28618 
28639 
28724 
28777 
28841 
28856 
28838 
28861 
28880 
28870 
28895 
28903 
28936 
28977 
29012 
29032 
29086 
29084 
29058 
29077 
29120 
29116 
29115 
29136 
29189 
29196 
29171 
29197 
29229 
29285 
29334 
29326 
29334 
29361 
29377 
29384 
29340 
29346 
29375 
29357 
29366 
29377 
29388 
29336 
29345 
29337 
29347 
29367 
29392 
29361 
29299 
29258 
29204 
29142 
29075 
29021 
28981 
28929 
28930 
28889 
28801 
28679 
28589 
28499 
28401 
28325 
28265 
28195 
28101 
28042 
28003 
27881 
27795 
27741 
27653 
27555 
27494 
27443 
27390 
27306 
27214 
27205 
27185 
27131 
27047 
27005 
26990 
26984 
26942 
26865 
26838 
26850 
26862 
26809 
26723 
26704 
26718 
26740 
26762 
26778 
26820 
26826 
26816 
26826 
26868 
26914 
26959 
26978 
27030 
27034 
27030 
27014 
27016 
27055 
27120 
27122 
27118 
27168 
27238 
27266 
27322 
27379 
27422 
27432 
27453 
27497 
27519 
27533 
27545 
27587 
27603 
27624 
27624 
27648 
27705 
27715 
27712 
27733 
27761 
27753 
27731 
27712 
27670 
27707 
27770 
27829 
27877 
27860 
27864 
27867 
27832 
27893 
27958 
27942 
27884 
27906 
27948 
27955 
28006 
28053 
28084 
28061 
28056 
28074 
28063 
28106 
28131 
28162 
28188 
28197 
28182 
28217 
28241 
28305 
28357 
28366 
28388 
28393 
28404 
28460 
28529 
28545 
28586 
28648 
28685 
28713 
28725 
28747 
28739 
28760 
28806 
28833 
28854 
28891 
28951 
28994 
29001 
29003 
29011 
29072 
29150 
29158 
29143 
29160 
29140 
29197 
29268 
29317 
29350 
29361 
29379 
29372 
29374 
29351 
29318 
29316 
29321 
29299 
29243 
29230 
29270 
29307 
29287 
29267 
29302 
29339 
29346 
29322 
29297 
29243 
29225 
29207 
29191 
29171 
29194 
29212 
29227 
29249 
29212 
29196 
29155 
29139 
29111 
29030 
28935 
28873 
28867 
28792 
28679 
28568 
28488 
28383 
28295 
28207 
28175 
28124 
28022 
27972 
27942 
27853 
27771 
27737 
27677 
27633 
27622 
27533 
27474 
27459 
27438 
27450 
27442 
27414 
27392 
27371 
27317 
27296 
27271 
27280 
27325 
27358 
27341 
27308 
27272 
27263 
27254 
27245 
27280 
27340 
27350 
27338 
27316 
27281 
27263 
27219 
27197 
27182 
27133 
27112 
27161 
27142 
27108 
27130 
27217 
27271 
27298 
27291 
27276 
27295 
27344 
27343 
27326 
27307 
27334 
27364 
27406 
27371 
27341 
27332 
27396 
27444 
27520 
27522 
27530 
27539 
27528 
27508 
27474 
27472 
27455 
27477 
27485 
27458 
27480 
27541 
27551 
27597 
27606 
27652 
27702 
27729 
27812 
27888 
27911 
27921 
27948 
27967 
28005 
28020 
28043 
28036 
28029 
28029 
28055 
28106 
28108 
28105 
28166 
28219 
28258 
28255 
28236 
28197 
28208 
28221 
28217 
28244 
28319 
28312 
28268 
28320 
28358 
28325 
28319 
28366 
28372 
28389 
28368 
28365 
28416 
28418 
28442 
28469 
28464 
28464 
28476 
28473 
28446 
28440 
28503 
28493 
28476 
28476 
28472 
28449 
28464 
28520 
28512 
28437 
28425 
28483 
28536 
28580 
28594 
28682 
28726 
28736 
28738 
28757 
28739 
28730 
28715 
28760 
28778 
28762 
28727 
28656 
28644 
28674 
28697 
28713 
28721 
28722 
28698 
28699 
28670 
28656 
28691 
28655 
28637 
28638 
28664 
28656 
28641 
28639 
28607 
28568 
28580 
28593 
28616 
28674 
28652 
28630 
28627 
28595 
28600 
28620 
28606 
28561 
28567 
28546 
28513 
28508 
28462 
28405 
28398 
28402 
28373 
28321 
28304 
28314 
28296 
28234 
28184 
28209 
28232 
28263 
28272 
28202 
28119 
28082 
28033 
27991 
27968 
27954 
27927 
27896 
27882 
27814 
27759 
27749 
27722 
27614 
27511 
27501 
27513 
27471 
27482 
27523 
27477 
27424 
27380 
27370 
27379 
27336 
27281 
27319 
27322 
27302 
27321 
27338 
27321 
27275 
27260 
27336 
27387 
27397 
27375 
27392 
27416 
27487 
27519 
27595 
27621 
27624 
27702 
27760 
27785 
27779 
27781 
27807 
27807 
27807 
27809 
27905 
27985 
28054 
28083 
28099 
28118 
28118 
28090 
28078 
28109 
28148 
28195 
28299 
28383 
28471 
28495 
28456 
28482 
28527 
28529 
28522 
28525 
28542 
28593 
28645 
28660 
28696 
28729 
28777 
28847 
28922 
29018 
29070 
29081 
29121 
29131 
29146 
29195 
29244 
29270 
29314 
29349 
29419 
29460 
29482 
29463 
29471 
29544 
29597 
29607 
29678 
29747 
29752 
29751 
29784 
29806 
29865 
29899 
29937 
29981 
29992 
30052 
30163 
30188 
30239 
30249 
30283 
30295 
30243 
30224 
30249 
30279 
30322 
30379 
30443 
30448 
30445 
30489 
30534 
30570 
30617 
30650 
30679 
30724 
30758 
30777 
30786 
30816 
30863 
30893 
30931 
30916 
30894 
30910 
30895 
30888 
30873 
30936 
31005 
30996 
30975 
31003 
31012 
31069 
31126 
31141 
31201 
31210 
31197 
31195 
31185 
31141 
31145 
31133 
31084 
31076 
31068 
31086 
31136 
31189 
31210 
31182 
31119 
31091 
31080 
31105 
31124 
31093 
31053 
31009 
30947 
30898 
30848 
30864 
30869 
30829 
30811 
30782 
30776 
30754 
30685 
30693 
30756 
30771 
30731 
30702 
30710 
30699 
30657 
30614 
30594 
30570 
30607 
30670 
30604 
30529 
30520 
30505 
30506 
30550 
30572 
30562 
30609 
30599 
30565 
30570 
30521 
30477 
30466 
30483 
30527 
30525 
30515 
30511 
30458 
30406 
30351 
30324 
30355 
30347 
30325 
30293 
30264 
30263 
30250 
30231 
30179 
30134 
30138 
30087 
30036 
29996 
29983 
29983 
29942 
29949 
29983 
29986 
29970 
29966 
29967 
29953 
29940 
29882 
29872 
29880 
29882 
29864 
29849 
29843 
29885 
29882 
29866 
29823 
29766 
29707 
29717 
29726 
29699 
29697 
29703 
29719 
29736 
29743 
29734 
29674 
29614 
29590 
29611 
29614 
29614 
29634 
29655 
29589 
29534 
29468 
29424 
29489 
29536 
29550 
29579 
29566 
29547 
29547 
29543 
29525 
29515 
29551 
29514 
29401 
29381 
29373 
29326 
29325 
29298 
29322 
29316 
29292 
29292 
29298 
29283 
29290 
29275 
29262 
29216 
29198 
29199 
29172 
29139 
29097 
29123 
29132 
29079 
29061 
29092 
29074 
29032 
29031 
29068 
29085 
29102 
29077 
29022 
29003 
28983 
29037 
29049 
28975 
28932 
28947 
28972 
28958 
28913 
28890 
28923 
28922 
28920 
28955 
28977 
28965 
28988 
29016 
28982 
28957 
28959 
28991 
28980 
29006 
28997 
28944 
28941 
28950 
29007 
28998 
28984 
29011 
29042 
29046 
29039 
28999 
28936 
28884 
28853 
28868 
28867 
28833 
28823 
28846 
28870 
28888 
28892 
28881 
28837 
28810 
28851 
28859 
28833 
28828 
28822 
28831 
28829 
28809 
28831 
28867 
28847 
28839 
28860 
28859 
28842 
28842 
28809 
28756 
28741 
28728 
28723 
28724 
28698 
28686 
28669 
28693 
28742 
28724 
28682 
28649 
28607 
28586 
28591 
28563 
28515 
28565 
28604 
28671 
28694 
28646 
28636 
28592 
28548 
28497 
28447 
28418 
28401 
28423 
28443 
28475 
28487 
28514 
28540 
28536 
28571 
28604 
28612 
28590 
28547 
28509 
28507 
28545 
28502 
28435 
28455 
28516 
28531 
28514 
28501 
28546 
28531 
28476 
28460 
28475 
28524 
28528 
28511 
28524 
28473 
28461 
28471 
28500 
28481 
28438 
28478 
28524 
28522 
28549 
28550 
28548 
28553 
28551 
28565 
28598 
28565 
28572 
28595 
28580 
28594 
28614 
28658 
28693 
28654 
28640 
28625 
28595 
28564 
28607 
28650 
28658 
28636 
28614 
28549 
28529 
28549 
28556 
28558 
28566 
28581 
28588 
28584 
28603 
28603 
28595 
28618 
28606 
28601 
28606 
28587 
28549 
28516 
28496 
28521 
28580 
28617 
28600 
28585 
28540 
28531 
28527 
28483 
28462 
28465 
28501 
28540 
28584 
28587 
28617 
28642 
28674 
28681 
28635 
28658 
28711 
28686 
28694 
28671 
28634 
28591 
28574 
28583 
28582 
28614 
28687 
28739 
28727 
28704 
28712 
28721 
28722 
28752 
28743 
28726 
28759 
28766 
28761 
28761 
28758 
28784 
28769 
28763 
28766 
28816 
28784 
28736 
28758 
28789 
28824 
28810 
28777 
28730 
28733 
28727 
28690 
28660 
28657 
28691 
28680 
28655 
28592 
28583 
28616 
28597 
28588 
28575 
28606 
28610 
28609 
28614 
28605 
28632 
28635 
28638 
28651 
28638 
28601 
28577 
28545 
28504 
28484 
28533 
28600 
28590 
28564 
28585 
28611 
28609 
28595 
28575 
28611 
28683 
28627 
28575 
28599 
28579 
28558 
28569 
28589 
28603 
28627 
28665 
28662 
28642 
28584 
28550 
28551 
28586 
28586 
28582 
28586 
28607 
28623 
28620 
28636 
28668 
28650 
28641 
28622 
28602 
28596 
28625 
28640 
28658 
28644 
28642 
28636 
28681 
28731 
28678 
28591 
28619 
28664 
28654 
28646 
28659 
28684 
28707 
28728 
28701 
28716 
28708 
28661 
28638 
28675 
28690 
28668 
28732 
28711 
28677 
28645 
28649 
28708 
28698 
28675 
28672 
28687 
28741 
28788 
28757 
28738 
28749 
28748 
28760 
28750 
28709 
28681 
28638 
28639 
28643 
28650 
28637 
28626 
28661 
28702 
28797 
28795 
28743 
28690 
28708 
28732 
28761 
28758 
28759 
28741 
28788 
28812 
28790 
28760 
28782 
28822 
28861 
28879 
28852 
28873 
28905 
28924 
28956 
28917 
28866 
28816 
28831 
28918 
28946 
28884 
28857 
28828 
28783 
28761 
28782 
28795 
28772 
28797 
28812 
28815 
28833 
28828 
28789 
28746 
28740 
28824 
28886 
28854 
28827 
28821 
28814 
28769 
28760 
28762 
28751 
28760 
28774 
28757 
28735 
28752 
28750 
28741 
28713 
28714 
28690 
28722 
28739 
28727 
28709 
28696 
28674 
28668 
28718 
28754 
28749 
28716 
28711 
28703 
28660 
28583 
28586 
28613 
28622 
28610 
28614 
28609 
28603 
28571 
28564 
28601 
28597 
28527 
28502 
28559 
28594 
28561 
28573 
28560 
28522 
28542 
28540 
28553 
28575 
28610 
28611 
28622 
28618 
28569 
28554 
28537 
28521 
28509 
28476 
28512 
28574 
28588 
28624 
28641 
28655 
28616 
28585 
28587 
28625 
28667 
28683 
28677 
28675 
28626 
28585 
28576 
28597 
28685 
28716 
28751 
28782 
28757 
28692 
28636 
28604 
28562 
28568 
28595 
28589 
28577 
28613 
28616 
28590 
28575 
28585 
28588 
28581 
28605 
28662 
28677 
28665 
28675 
28675 
28676 
28666 
28619 
28629 
28636 
28638 
28642 
28632 
28613 
28614 
28657 
28665 
28613 
28610 
28645 
28683 
28710 
28713 
28686 
28630 
28619 
28607 
28578 
28565 
28562 
28579 
28548 
28522 
28577 
28600 
28593 
28580 
28565 
28576 
28610 
28651 
28663 
28653 
28673 
28637 
28599 
28583 
28602 
28577 
28552 
28551 
28571 
28602 
28626 
28608 
28595 
28575 
28590 
28639 
28635 
28632 
28602 
28609 
28608 
28612 
28605 
28570 
28554 
28560 
28608 
28638 
28598 
28587 
28595 
28584 
28580 
28574 
28591 
28567 
28568 
28598 
28582 
28556 
28556 
28542 
28554 
28604 
28597 
28587 
28608 
28593 
28545 
28526 
28526 
28523 
28536 
28524 
28519 
28499 
28502 
28491 
28464 
28454 
28431 
28451 
28457 
28465 
28471 
28448 
28469 
28508 
28530 
28511 
28459 
28475 
28507 
28494 
28452 
28414 
28387 
28415 
28475 
28522 
28526 
28444 
28425 
28454 
28441 
28441 
28425 
28412 
28407 
28364 
28310 
28306 
28356 
28474 
28530 
28518 
28519 
28513 
28513 
28523 
28544 
28524 
28511 
28471 
28471 
28446 
28426 
28406 
28386 
28335 
28264 
28244 
28250 
28230 
28206 
28151 
28100 
28083 
28074 
28026 
27962 
27895 
27878 
27899 
27857 
27770 
27709 
27643 
27555 
27521 
27493 
27492 
27550 
27587 
27523 
27432 
27315 
27276 
27294 
27290 
27277 
27214 
27159 
27131 
27092 
27039 
27044 
27090 
27130 
27108 
27063 
27071 
27063 
27024 
27048 
27071 
27066 
27056 
27034 
27041 
27034 
27037 
27047 
27095 
27156 
27179 
27206 
27209 
27225 
27212 
27205 
27182 
27224 
27260 
27287 
27316 
27357 
27372 
27446 
27489 
27503 
27487 
27456 
27466 
27485 
27541 
27621 
27629 
27663 
27706 
27714 
27723 
27762 
27778 
27808 
27783 
27741 
27719 
27770 
27845 
27886 
27911 
27947 
27950 
27941 
27983 
27995 
27970 
27973 
28043 
28094 
28139 
28169 
28204 
28235 
28242 
28292 
28336 
28318 
28388 
28435 
28431 
28441 
28444 
28492 
28550 
28565 
28631 
28677 
28709 
28705 
28670 
28687 
28725 
28732 
28709 
28682 
28703 
28755 
28811 
28856 
28827 
28793 
28806 
28840 
28848 
28864 
28814 
28863 
28906 
28893 
28871 
28890 
28960 
29004 
28972 
28991 
28999 
29037 
29078 
29059 
29017 
28968 
28972 
29026 
29088 
29092 
29070 
29073 
29107 
29156 
29173 
29172 
29187 
29183 
29170 
29119 
29078 
29065 
29072 
29139 
29193 
29229 
29194 
29160 
29173 
29183 
29188 
29203 
29264 
29297 
29266 
29199 
29174 
29112 
29104 
29091 
29034 
29050 
29097 
29044 
28946 
28900 
28817 
28736 
28715 
28707 
28685 
28665 
28654 
28607 
28550 
28514 
28475 
28411 
28376 
28328 
28317 
28325 
28260 
28188 
28093 
28007 
27968 
28034 
28042 
28031 
28005 
27989 
27940 
27868 
27844 
27859 
27872 
27848 
27843 
27817 
27865 
27878 
27843 
27839 
27833 
27829 
27825 
27759 
27728 
27747 
27730 
27737 
27762 
27782 
27815 
27836 
27823 
27807 
27798 
27838 
27850 
27840 
27839 
27886 
27937 
27967 
27950 
27953 
28015 
28059 
28095 
28153 
28186 
28197 
28201 
28186 
28160 
28233 
28291 
28291 
28304 
28335 
28342 
28365 
28387 
28423 
28485 
28460 
28499 
28538 
28568 
28578 
28600 
28624 
28614 
28661 
28709 
28729 
28729 
28695 
28740 
28779 
28877 
28919 
28937 
28941 
28981 
28982 
29027 
29047 
29054 
29112 
29209 
29283 
29283 
29279 
29297 
29346 
29446 
29521 
29545 
29563 
29555 
29549 
29567 
29548 
29515 
29547 
29603 
29646 
29684 
29682 
29677 
29718 
29766 
29779 
29810 
29808 
29792 
29808 
29795 
29789 
29842 
29889 
29854 
29843 
29854 
29806 
29799 
29789 
29807 
29840 
29884 
29841 
29799 
29812 
29833 
29900 
29901 
29940 
29999 
30029 
30020 
29995 
29993 
29993 
29979 
29956 
29969 
30044 
30083 
30049 
30038 
30063 
30062 
30080 
30083 
30096 
30113 
30132 
30186 
30221 
30261 
30244 
30216 
30197 
30170 
30155 
30130 
30113 
30096 
30081 
30102 
30109 
30067 
30057 
30028 
30005 
29981 
29936 
29909 
29890 
29854 
29850 
29879 
29875 
29811 
29762 
29713 
29630 
29565 
29502 
29475 
29459 
29459 
29457 
29433 
29422 
29420 
29421 
29414 
29417 
29393 
29278 
29230 
29271 
29261 
29216 
29215 
29220 
29240 
29217 
29184 
29223 
29227 
29209 
29230 
29247 
29213 
29212 
29249 
29241 
29225 
29242 
29239 
29249 
29266 
29277 
29222 
29215 
29217 
29220 
29249 
29225 
29205 
29217 
29220 
29213 
29275 
29353 
29383 
29395 
29376 
29299 
29240 
29222 
29261 
29326 
29369 
29387 
29349 
29342 
29376 
29370 
29396 
29417 
29466 
29469 
29444 
29473 
29500 
29513 
29474 
29437 
29397 
29427 
29476 
29456 
29440 
29434 
29437 
29464 
29445 
29420 
29491 
29561 
29562 
29556 
29542 
29545 
29557 
29553 
29613 
29641 
29603 
29582 
29628 
29689 
29700 
29651 
29675 
29699 
29752 
29842 
29857 
29847 
29845 
29795 
29747 
29749 
29784 
29818 
29801 
29823 
29838 
29824 
29796 
29770 
29772 
29836 
29833 
29773 
29760 
29788 
29801 
29761 
29710 
29742 
29770 
29778 
29764 
29739 
29784 
29819 
29791 
29795 
29783 
29771 
29690 
29674 
29739 
29745 
29766 
29740 
29687 
29644 
29616 
29565 
29549 
29517 
29449 
29417 
29329 
29222 
29145 
29086 
28979 
28885 
28820 
28724 
28614 
28507 
28467 
28377 
28291 
28223 
28200 
28184 
28096 
28007 
27962 
27920 
27842 
27801 
27768 
27704 
27655 
27657 
27600 
27531 
27497 
27497 
27470 
27368 
27283 
27229 
27185 
27185 
27179 
27188 
27174 
27167 
27145 
27164 
27207 
27211 
27126 
27141 
27198 
27241 
27237 
27223 
27218 
27202 
27173 
27158 
27192 
27199 
27265 
27303 
27356 
27392 
27400 
27417 
27388 
27376 
27404 
27479 
27513 
27484 
27427 
27486 
27529 
27524 
27506 
27555 
27598 
27644 
27671 
27698 
27750 
27792 
27822 
27865 
27906 
27949 
28004 
28041 
28150 
28259 
28292 
28322 
28324 
28322 
28363 
28355 
28342 
28374 
28415 
28463 
28513 
28562 
28633 
28668 
28668 
28669 
28698 
28787 
28789 
28807 
28873 
28908 
28960 
28992 
29004 
29036 
29030 
29042 
29066 
29104 
29171 
29209 
29216 
29263 
29322 
29401 
29481 
29467 
29475 
29567 
29602 
29588 
29602 
29581 
29539 
29613 
29673 
29659 
29652 
29703 
29733 
29821 
29919 
29985 
29922 
29905 
29932 
29928 
29938 
29973 
29964 
29970 
30026 
30096 
30101 
30163 
30221 
30232 
30247 
30326 
30389 
30365 
30301 
30230 
30216 
30267 
30290 
30274 
30226 
30233 
30210 
30216 
30219 
30226 
30222 
30167 
30066 
30033 
29950 
29862 
29833 
29772 
29637 
29552 
29502 
29448 
29360 
29284 
29158 
29036 
28953 
28891 
28786 
28720 
28672 
28632 
28524 
28482 
28441 
28390 
28375 
28338 
28343 
28358 
28343 
28280 
28241 
28210 
28194 
28185 
28166 
28127 
28149 
28150 
28181 
28210 
28188 
28159 
28167 
28176 
28122 
28186 
28215 
28214 
28178 
28126 
28151 
28210 
28287 
28369 
28419 
28443 
28426 
28486 
28636 
28694 
28804 
28871 
28927 
28989 
29042 
29110 
29138 
29200 
29212 
29175 
29236 
29339 
29365 
29361 
29392 
29439 
29506 
29546 
29586 
29636 
29738 
29819 
29841 
29851 
29914 
30033 
30031 
30028 
30074 
30065 
30077 
30051 
30093 
30140 
30183 
30236 
30240 
30285 
30352 
30407 
30410 
30442 
30516 
30621 
30677 
30715 
30741 
30758 
30788 
30898 
30971 
30994 
30963 
30932 
30910 
30935 
30985 
31018 
31073 
31152 
31144 
31131 
31117 
31136 
31159 
31178 
31199 
31216 
31216 
31206 
31253 
31295 
31304 
31283 
31324 
31335 
31357 
31335 
31355 
31355 
31326 
31302 
31380 
31428 
31449 
31441 
31402 
31401 
31401 
31435 
31477 
31445 
31403 
31425 
31440 
31451 
31469 
31540 
31570 
31495 
31421 
31419 
31412 
31366 
31401 
31358 
31326 
31308 
31213 
31237 
31239 
31205 
31178 
31179 
31156 
31102 
31045 
31054 
31109 
31150 
31103 
31053 
31036 
30976 
30915 
30829 
30720 
30656 
30603 
30549 
30434 
30335 
30273 
30215 
30169 
30091 
29979 
29924 
29859 
29737 
29640 
29555 
29448 
29328 
29285 
29248 
29194 
29156 
29120 
29106 
29070 
29006 
29048 
29089 
29063 
29040 
29013 
28975 
28961 
29018 
29022 
29030 
29027 
29027 
29087 
29085 
29065 
29073 
29107 
29120 
29145 
29229 
29337 
29395 
29446 
29561 
29622 
29674 
29757 
29838 
29931 
29980 
30027 
30043 
30063 
30102 
30143 
30242 
30358 
30402 
30460 
30542 
30599 
30657 
30691 
30756 
30833 
30909 
31013 
31084 
31066 
31126 
31237 
31298 
31318 
31332 
31323 
31387 
31482 
31593 
31674 
31718 
31739 
31715 
31740 
31816 
31901 
32040 
32094 
32089 
32044 
32047 
32091 
32105 
32137 
32221 
32270 
32256 
32271 
32300 
32326 
32367 
32374 
32324 
32382 
32441 
32476 
32490 
32499 
32476 
32513 
32601 
32676 
32683 
32657 
32642 
32635 
32647 
32711 
32669 
32697 
32790 
32786 
32752 
32757 
32753 
32779 
32776 
32732 
32711 
32740 
32708 
32683 
32702 
32639 
32559 
32574 
32612 
32663 
32683 
32708 
32705 
32709 
32674 
32637 
32643 
32695 
32722 
32747 
32704 
32658 
32651 
32676 
32719 
32683 
32694 
32728 
32719 
32698 
32648 
32645 
32643 
32608 
32603 
32585 
32574 
32542 
32544 
32592 
32558 
32518 
32479 
32475 
32448 
32373 
32300 
32231 
32157 
32160 
32083 
31945 
31834 
31667 
31560 
31452 
31358 
31289 
31173 
31062 
30979 
30896 
30746 
30605 
30507 
30412 
30249 
30112 
30033 
30010 
29979 
29898 
29865 
29766 
29630 
29549 
29481 
29430 
29416 
29418 
29468 
29445 
29430 
29432 
29394 
29326 
29255 
29258 
29283 
29274 
29306 
29406 
29508 
29568 
29600 
29649 
29700 
29696 
29655 
29665 
29742 
29797 
29817 
29876 
29894 
29969 
30111 
30168 
30221 
30320 
30393 
30476 
30530 
30631 
30774 
30788 
30770 
30781 
30761 
30773 
30842 
30897 
30957 
31044 
31107 
31140 
31201 
31270 
31392 
31439 
31514 
31561 
31597 
31648 
31682 
31706 
31749 
31778 
31777 
31769 
31823 
31871 
31858 
31859 
31904 
31954 
32002 
32045 
32099 
32187 
32253 
32280 
32275 
32252 
32317 
32362 
32386 
32395 
32408 
32419 
32407 
32400 
32442 
32477 
32505 
32544 
32597 
32624 
32582 
32644 
32678 
32699 
32757 
32724 
32621 
32593 
32623 
32643 
32708 
32739 
32727 
32701 
32691 
32699 
32717 
32691 
32714 
32768 
32778 
32830 
32873 
32848 
32832 
32900 
32882 
32848 
32806 
32805 
32854 
32878 
32905 
32882 
32867 
32879 
32852 
32846 
32766 
32748 
32823 
32849 
32875 
32878 
32806 
32737 
32666 
32656 
32671 
32727 
32741 
32740 
32686 
32641 
32679 
32656 
32629 
32622 
32586 
32494 
32388 
32294 
32168 
32018 
31853 
31756 
31661 
31557 
31409 
31252 
31042 
30872 
30755 
30660 
30566 
30420 
30230 
30077 
30023 
29957 
29844 
29758 
29704 
29636 
29582 
29586 
29586 
29547 
29492 
29379 
29247 
29199 
29187 
29181 
29124 
29056 
29085 
29125 
29135 
29144 
29191 
29203 
29228 
29304 
29419 
29492 
29544 
29555 
29574 
29585 
29640 
29730 
29825 
29936 
29998 
30082 
30196 
30271 
30346 
30408 
30360 
30400 
30520 
30640 
30703 
30731 
30759 
30757 
30797 
30898 
30942 
30981 
31079 
31165 
31259 
31316 
31300 
31334 
31338 
31417 
31523 
31582 
31633 
31664 
31717 
31826 
31948 
32028 
32068 
32082 
32069 
32150 
32190 
32204 
32236 
32245 
32286 
32328 
32335 
32367 
32327 
32353 
32446 
32502 
32499 
32502 
32558 
32591 
32613 
32632 
32728 
32780 
32776 
32796 
32793 
32801 
32832 
32874 
32935 
32957 
32940 
32989 
33065 
33056 
33015 
32980 
32983 
32959 
32959 
33014 
33051 
33090 
33136 
33191 
33216 
33181 
33179 
33219 
33225 
33215 
33216 
33250 
33307 
33355 
33329 
33342 
33322 
33297 
33296 
33279 
33241 
33217 
33236 
33227 
33246 
33262 
33233 
33181 
33222 
33293 
33268 
33241 
33224 
33163 
33097 
33049 
33018 
33014 
32981 
32929 
32907 
32914 
32871 
32902 
32923 
32886 
32810 
32738 
32689 
32628 
32529 
32495 
32398 
32319 
32194 
32019 
31843 
31702 
31558 
31434 
31304 
31163 
31014 
30826 
30630 
30496 
30377 
30220 
30020 
29853 
29730 
29596 
29460 
29303 
29173 
29054 
28910 
28814 
28760 
28697 
28676 
28664 
28672 
28691 
28710 
28719 
28689 
28709 
28729 
28730 
28751 
28864 
28945 
29000 
29030 
29041 
29109 
29199 
29296 
29367 
29462 
29483 
29508 
29557 
29652 
29743 
29805 
29850 
29913 
30030 
30055 
30092 
30226 
30331 
30397 
30432 
30473 
30554 
30633 
30729 
30786 
30777 
30818 
30861 
30910 
31016 
31077 
31118 
31193 
31256 
31278 
31363 
31449 
31490 
31524 
31563 
31642 
31679 
31738 
31809 
31898 
31944 
31938 
31982 
32017 
32071 
32222 
32379 
32444 
32453 
32374 
32359 
32406 
32450 
32531 
32598 
32618 
32625 
32657 
32743 
32763 
32768 
32825 
32840 
32830 
32846 
32897 
32945 
32996 
32972 
32976 
33014 
32983 
32961 
32904 
32926 
32976 
33040 
33061 
32961 
32910 
32962 
32980 
33021 
33103 
33147 
33218 
33262 
33207 
33193 
33207 
33194 
33204 
33191 
33153 
33174 
33185 
33194 
33164 
33187 
33189 
33214 
33293 
33365 
33320 
33300 
33347 
33342 
33331 
33315 
33347 
33337 
33336 
33346 
33333 
33379 
33341 
33287 
33264 
33288 
33343 
33382 
33374 
33357 
33367 
33372 
33335 
33311 
33291 
33225 
33150 
33022 
32896 
32820 
32714 
32585 
32394 
32218 
32064 
31899 
31701 
31559 
31407 
31233 
31034 
30855 
30660 
30505 
30351 
30213 
30121 
30023 
29903 
29708 
29565 
29520 
29507 
29445 
29382 
29303 
29260 
29157 
29067 
28982 
28884 
28794 
28794 
28769 
28773 
28869 
28908 
28921 
28897 
28877 
28872 
28903 
28998 
29071 
29124 
29166 
29273 
29328 
29357 
29461 
29562 
29583 
29558 
29571 
29585 
29721 
29860 
29967 
30081 
30172 
30278 
30341 
30384 
30433 
30513 
30575 
30650 
30669 
30670 
30709 
30736 
30846 
30933 
31008 
31030 
31114 
31180 
31256 
31339 
31392 
31386 
31366 
31347 
31376 
31465 
31561 
31661 
31712 
31733 
31809 
31902 
32004 
32079 
32115 
32127 
32140 
32202 
32213 
32216 
32319 
32386 
32394 
32381 
32415 
32441 
32402 
32409 
32466 
32509 
32529 
32543 
32549 
32587 
32610 
32595 
32594 
32667 
32707 
32718 
32700 
32700 
32767 
32809 
32790 
32871 
32904 
32944 
32986 
33002 
33002 
32993 
32986 
33032 
33026 
32971 
32978 
32998 
33022 
33029 
33065 
33057 
33062 
33068 
33141 
33164 
33153 
33127 
33084 
33095 
33123 
33129 
33127 
33149 
33143 
33129 
33125 
33085 
33063 
33143 
33216 
33190 
33178 
33130 
33102 
33128 
33096 
32982 
32888 
32815 
32756 
32650 
32565 
32520 
32390 
32200 
32017 
31837 
31694 
31562 
31389 
31204 
31043 
30861 
30706 
30513 
30359 
30255 
30099 
29974 
29793 
29581 
29451 
29420 
29389 
29301 
29169 
29016 
28950 
28911 
28855 
28826 
28814 
28739 
28639 
28611 
28639 
28667 
28673 
28662 
28637 
28718 
28816 
28846 
28875 
28884 
28906 
28904 
28922 
28952 
29024 
29130 
29246 
29313 
29368 
29452 
29519 
29499 
29568 
29689 
29772 
29851 
29945 
30029 
30096 
30156 
30221 
30309 
30445 
30553 
30614 
30695 
30737 
30877 
30986 
31041 
31073 
31113 
31183 
31273 
31343 
31341 
31329 
31359 
31445 
31520 
31601 
31681 
31753 
31797 
31814 
31842 
31890 
31917 
31941 
32038 
32134 
32132 
32136 
32168 
32206 
32246 
32341 
32384 
32398 
32423 
32436 
32469 
32510 
32569 
32625 
32645 
32682 
32675 
32675 
32652 
32662 
32691 
32715 
32749 
32777 
32789 
32842 
32888 
32928 
32940 
32996 
33019 
32963 
32976 
33029 
33023 
33042 
33094 
33131 
33104 
33167 
33224 
33266 
33293 
33328 
33428 
33479 
33532 
33542 
33558 
33561 
33570 
33550 
33540 
33479 
33434 
33456 
33464 
33538 
33611 
33658 
33673 
33658 
33612 
33612 
33624 
33598 
33608 
33610 
33639 
33615 
33530 
33505 
33517 
33508 
33494 
33359 
33215 
33140 
33072 
32908 
32679 
32517 
32315 
32071 
31862 
31682 
31502 
31341 
31140 
30923 
30746 
30612 
30507 
30349 
30154 
29959 
29803 
29693 
29570 
29427 
29295 
29187 
29091 
29023 
28954 
28914 
28886 
28836 
28820 
28809 
28799 
28813 
28825 
28819 
28841 
28843 
28857 
28874 
28910 
28959 
28929 
28926 
28980 
29023 
29082 
29167 
29205 
29287 
29417 
29486 
29593 
29683 
29737 
29852 
29972 
30090 
30123 
30190 
30235 
30282 
30342 
30406 
30542 
30680 
30774 
30816 
30911 
30984 
31072 
31088 
31166 
31287 
31342 
31350 
31430 
31482 
31526 
31595 
31665 
31740 
31794 
31812 
31871 
31850 
31854 
31895 
31976 
32028 
32068 
32104 
32133 
32210 
32270 
32275 
32243 
32246 
32339 
32421 
32421 
32390 
32382 
32439 
32503 
32548 
32553 
32551 
32548 
32572 
32647 
32720 
32719 
32731 
32807 
32827 
32798 
32817 
32839 
32855 
32865 
32981 
33118 
33200 
33255 
33270 
33295 
33319 
33328 
33315 
33341 
33354 
33339 
33335 
33381 
33421 
33467 
33486 
33459 
33445 
33418 
33379 
33316 
33333 
33374 
33454 
33575 
33621 
33602 
33574 
33587 
33596 
33600 
33605 
33569 
33543 
33524 
33580 
33593 
33597 
33599 
33628 
33588 
33575 
33602 
33631 
33661 
33648 
33662 
33665 
33630 
33627 
33563 
33503 
33501 
33467 
33415 
33266 
33066 
32933 
32834 
32750 
32632 
32466 
32237 
31995 
31784 
31614 
31432 
31233 
30962 
30752 
30542 
30312 
30184 
30097 
29978 
29869 
29751 
29624 
29534 
29430 
29325 
29230 
29090 
28976 
28876 
28778 
28701 
28664 
28665 
28721 
28743 
28758 
28799 
28812 
28869 
28840 
28776 
28778 
28852 
28966 
29072 
29138 
29204 
29265 
29346 
29447 
29500 
29595 
29620 
29646 
29751 
29877 
29968 
30041 
30148 
30198 
30269 
30428 
30520 
30637 
30740 
30771 
30746 
30728 
30832 
30908 
30957 
31020 
31060 
31161 
31268 
31388 
31454 
31503 
31579 
31654 
31702 
31729 
31749 
31769 
31841 
31916 
32007 
32079 
32087 
32107 
32128 
32206 
32309 
32331 
32358 
32341 
32406 
32459 
32541 
32618 
32707 
32833 
32925 
32946 
33007 
33096 
33159 
33229 
33262 
33322 
33402 
33466 
33431 
33383 
33431 
33472 
33519 
33612 
33722 
33762 
33812 
33833 
33858 
33901 
33955 
33999 
34048 
34055 
34088 
34182 
34263 
34429 
34508 
34522 
34504 
34503 
34534 
34579 
34640 
34699 
34779 
34785 
34750 
34756 
34767 
34774 
34798 
34834 
34895 
34902 
34877 
34843 
34824 
34858 
34900 
34921 
34931 
34971 
34991 
35011 
35043 
34995 
34863 
34736 
34708 
34744 
34748 
34767 
34792 
34749 
34646 
34593 
34539 
34420 
34282 
34183 
34010 
33806 
33595 
33380 
33218 
32998 
32758 
32556 
32352 
32145 
31977 
31764 
31520 
31328 
31198 
31095 
30964 
30772 
30570 
30408 
30280 
30147 
30027 
29935 
29787 
29689 
29556 
29431 
29277 
29139 
29055 
29031 
29063 
29035 
28948 
28905 
28894 
28947 
29007 
29027 
29018 
29015 
29059 
29126 
29195 
29306 
29371 
29378 
29396 
29499 
29545 
29594 
29664 
29692 
29748 
29836 
29911 
30011 
30084 
30121 
30211 
30283 
30384 
30497 
30553 
30621 
30673 
30723 
30786 
30859 
30943 
31017 
31041 
31061 
31059 
31062 
31131 
31287 
31405 
31501 
31594 
31628 
31693 
31757 
31837 
31815 
31882 
31906 
31902 
31988 
32099 
32177 
32207 
32262 
32320 
32416 
32538 
32650 
32748 
32785 
32846 
32872 
32852 
32892 
32923 
33037 
33138 
33133 
33146 
33206 
33246 
33264 
33328 
33476 
33565 
33594 
33641 
33733 
33722 
33707 
33742 
33771 
33783 
33832 
33913 
33950 
33948 
34009 
34088 
34116 
34169 
34219 
34278 
34303 
34344 
34385 
34363 
34420 
34462 
34503 
34552 
34594 
34636 
34662 
34660 
34671 
34665 
34634 
34690 
34774 
34771 
34712 
34700 
34727 
34770 
34710 
34583 
34480 
34359 
34296 
34198 
33991 
33830 
33685 
33497 
33363 
33202 
33055 
32956 
32773 
32599 
32463 
32266 
32077 
31970 
31910 
31839 
31700 
31562 
31508 
31470 
31418 
31304 
31182 
31117 
31010 
30951 
30917 
30907 
30933 
30925 
30918 
30871 
30874 
30852 
30822 
30821 
30837 
30852 
30910 
30938 
31037 
31075 
31118 
31139 
31162 
31158 
31151 
31225 
31314 
31396 
31514 
31603 
31639 
31733 
31873 
31998 
32090 
32168 
32219 
32323 
32446 
32429 
32398 
32470 
32552 
32621 
32710 
32809 
32843 
32938 
32988 
33020 
33076 
33135 
33150 
33184 
33254 
33321 
33417 
33468 
33498 
33606 
33738 
33810 
33810 
33794 
33808 
33847 
33893 
33915 
33919 
33938 
33948 
34034 
34058 
34077 
34114 
34165 
34216 
34257 
34309 
34341 
34338 
34317 
34364 
34388 
34407 
34436 
34411 
34468 
34507 
34506 
34515 
34543 
34543 
34543 
34541 
34624 
34732 
34788 
34762 
34743 
34820 
34806 
34790 
34779 
34786 
34785 
34754 
34753 
34810 
34923 
34990 
34944 
34911 
34934 
35000 
35036 
35026 
34962 
35021 
35069 
35031 
35009 
34939 
34922 
34914 
34864 
34938 
35067 
35097 
35062 
35044 
35050 
35052 
35092 
35135 
35156 
35147 
35099 
35042 
34992 
34957 
34904 
34902 
34962 
34998 
35003 
34944 
34934 
34873 
34828 
34788 
34760 
34780 
34746 
34692 
34683 
34633 
34582 
34532 
34503 
34524 
34431 
34286 
34218 
34142 
34096 
34025 
33934 
33794 
33630 
33440 
33299 
33178 
33007 
32770 
32533 
32288 
32059 
31816 
31543 
31285 
31012 
30762 
30563 
30329 
30112 
29885 
29689 
29507 
29328 
29091 
28917 
28737 
28580 
28427 
28239 
28127 
28062 
28018 
27952 
27838 
27718 
27679 
27660 
27494 
27393 
27362 
27363 
27331 
27279 
27280 
27285 
27272 
27266 
27291 
27334 
27348 
27350 
27375 
27405 
27467 
27630 
27715 
27745 
27729 
27749 
27753 
27763 
27849 
27946 
28031 
28068 
28153 
28226 
28311 
28449 
28578 
28664 
28756 
28807 
28892 
28952 
28943 
29004 
29065 
29157 
29276 
29331 
29383 
29517 
29629 
29693 
29710 
29753 
29854 
29944 
30016 
30099 
30148 
30211 
30266 
30297 
30272 
30380 
30469 
30495 
30588 
30641 
30685 
30734 
30791 
30812 
30841 
30831 
30880 
30963 
31037 
31067 
31132 
31199 
31269 
31310 
31366 
31455 
31499 
31577 
31623 
31652 
31700 
31777 
31876 
31948 
32029 
32051 
32094 
32185 
32227 
32261 
32261 
32323 
32426 
32518 
32524 
32548 
32558 
32565 
32602 
32668 
32771 
32851 
32872 
32869 
32891 
32906 
32893 
32887 
32958 
33023 
33011 
32985 
32990 
33024 
33056 
33071 
33063 
33042 
33059 
33047 
33103 
33102 
33068 
33133 
33136 
33160 
33243 
33312 
33292 
33295 
33318 
33364 
33329 
33278 
33271 
33259 
33252 
33267 
33282 
33262 
33221 
33202 
33188 
33110 
33028 
32902 
32824 
32739 
32610 
32537 
32467 
32310 
32151 
31976 
31781 
31634 
31436 
31271 
31110 
30912 
30679 
30435 
30282 
30177 
30001 
29826 
29682 
29547 
29470 
29380 
29255 
29172 
29078 
28978 
28857 
28779 
28716 
28640 
28632 
28610 
28583 
28570 
28545 
28581 
28595 
28579 
28588 
28535 
28488 
28469 
28473 
28529 
28564 
28505 
28470 
28508 
28518 
28531 
28543 
28624 
28736 
28821 
28837 
28862 
28926 
28984 
29098 
29164 
29190 
29203 
29263 
29307 
29400 
29455 
29488 
29585 
29657 
29673 
29653 
29727 
29806 
29836 
29897 
29914 
29879 
29813 
29756 
29697 
29622 
29589 
29491 
29374 
29258 
29163 
29070 
28991 
28916 
28872 
28821 
28785 
28737 
28660 
28582 
28525 
28508 
28488 
28488 
28499 
28509 
28533 
28558 
28557 
28544 
28520 
28541 
28597 
28654 
28671 
28670 
28664 
28636 
28630 
28661 
28704 
28697 
28710 
28780 
28798 
28810 
28835 
28895 
28912 
28906 
28981 
29041 
29045 
29084 
29118 
29179 
29319 
29404 
29429 
29424 
29418 
29452 
29472 
29487 
29512 
29581 
29644 
29681 
29709 
29731 
29716 
29701 
29705 
29702 
29726 
29742 
29723 
29670 
29647 
29619 
29613 
29579 
29511 
29468 
29411 
29358 
29287 
29192 
29079 
28937 
28763 
28589 
28450 
28361 
28285 
28191 
28055 
27866 
27689 
27541 
27389 
27193 
27054 
26985 
26943 
26841 
26705 
26597 
26541 
26539 
26513 
26484 
26466 
26414 
26427 
26427 
26403 
26395 
26428 
26447 
26498 
26504 
26547 
26615 
26686 
26816 
26873 
26867 
26925 
27057 
27121 
27145 
27149 
27213 
27335 
27403 
27447 
27550 
27619 
27692 
27775 
27851 
27945 
28022 
28052 
28116 
28273 
28443 
28557 
28629 
28638 
28667 
28743 
28893 
29044 
29079 
29097 
29140 
29204 
29290 
29395 
29484 
29573 
29604 
29606 
29556 
29556 
29604 
29625 
29616 
29666 
29741 
29760 
29807 
29886 
29988 
30063 
30078 
30151 
30230 
30300 
30352 
30363 
30342 
30311 
30322 
30364 
30441 
30559 
30702 
30759 
30822 
30920 
30949 
30964 
31030 
31093 
31136 
31129 
31124 
31168 
31223 
31200 
31180 
31234 
31292 
31300 
31317 
31367 
31450 
31542 
31603 
31600 
31682 
31720 
31740 
31735 
31736 
31757 
31828 
31884 
31933 
31889 
31893 
31965 
32032 
32069 
32153 
32197 
32129 
32207 
32292 
32265 
32229 
32247 
32297 
32347 
32410 
32508 
32588 
32593 
32617 
32648 
32735 
32805 
32888 
32894 
32871 
32860 
32863 
32834 
32896 
32903 
32908 
32949 
32951 
32979 
32990 
32938 
32911 
32918 
32899 
32885 
32906 
32901 
32865 
32818 
32813 
32806 
32754 
32673 
32608 
32545 
32416 
32282 
32183 
32064 
31888 
31701 
31549 
31386 
31168 
30913 
30681 
30512 
30369 
30187 
30001 
29874 
29716 
29515 
29341 
29147 
28949 
28755 
28577 
28460 
28352 
28202 
28065 
27983 
27956 
27964 
27883 
27790 
27668 
27577 
27519 
27534 
27493 
27425 
27381 
27368 
27438 
27498 
27521 
27498 
27519 
27499 
27526 
27625 
27677 
27729 
27768 
27817 
27817 
27817 
27848 
27968 
28058 
28100 
28190 
28316 
28396 
28493 
28595 
28636 
28685 
28755 
28828 
28893 
28999 
29043 
29047 
29078 
29140 
29220 
29250 
29264 
29300 
29366 
29442 
29500 
29565 
29578 
29574 
29610 
29625 
29650 
29671 
29684 
29748 
29776 
29803 
29830 
29892 
29970 
30055 
30141 
30181 
30188 
30208 
30284 
30386 
30450 
30492 
30566 
30606 
30676 
30757 
30777 
30799 
30886 
30978 
31008 
31044 
31082 
31117 
31133 
31170 
31199 
31217 
31274 
31312 
31369 
31487 
31570 
31579 
31562 
31597 
31655 
31663 
31649 
31659 
31675 
31688 
31705 
31753 
31856 
31956 
32022 
32059 
32073 
32066 
32025 
31960 
31977 
31987 
31967 
31950 
31973 
31988 
32008 
32058 
32104 
32126 
32142 
32124 
32090 
32134 
32206 
32201 
32203 
32208 
32248 
32278 
32268 
32263 
32323 
32366 
32370 
32399 
32386 
32380 
32388 
32321 
32299 
32272 
32257 
32227 
32194 
32131 
32062 
31979 
31883 
31831 
31747 
31615 
31505 
31383 
31210 
31070 
30923 
30746 
30601 
30462 
30307 
30124 
29968 
29750 
29592 
29545 
29513 
29353 
29120 
28984 
28890 
28792 
28683 
28618 
28549 
28450 
28319 
28252 
28241 
28154 
28092 
28074 
28141 
28124 
28078 
28031 
28024 
28020 
27952 
27921 
27911 
27923 
27908 
27913 
27995 
28044 
28059 
28109 
28170 
28211 
28319 
28385 
28387 
28418 
28453 
28514 
28572 
28623 
28718 
28763 
28761 
28761 
28812 
28896 
28942 
28964 
28932 
28925 
28988 
29077 
29157 
29223 
29321 
29400 
29484 
29543 
29585 
29672 
29774 
29863 
29897 
29924 
29939 
29912 
29952 
30012 
30085 
30141 
30135 
30182 
30232 
30345 
30462 
30535 
30605 
30626 
30665 
30699 
30713 
30721 
30719 
30840 
30955 
30989 
31006 
31080 
31163 
31255 
31328 
31364 
31355 
31332 
31307 
31370 
31404 
31407 
31381 
31382 
31378 
31401 
31450 
31466 
31435 
31463 
31496 
31512 
31487 
31456 
31507 
31520 
31546 
31537 
31583 
31655 
31752 
31800 
31757 
31739 
31759 
31743 
31699 
31685 
31695 
31722 
31741 
31759 
31776 
31804 
31746 
31742 
31762 
31803 
31782 
31820 
31865 
31865 
31864 
31890 
31922 
31908 
31949 
31984 
32051 
32080 
32045 
32040 
31996 
31956 
31921 
31878 
31809 
31729 
31619 
31505 
31420 
31334 
31200 
31084 
30996 
30913 
30771 
30607 
30495 
30337 
30219 
30069 
29881 
29711 
29563 
29444 
29308 
29158 
29028 
28932 
28800 
28678 
28597 
28493 
28432 
28337 
28218 
28075 
27979 
27985 
27941 
27962 
27957 
27948 
27982 
27970 
27928 
27920 
27971 
28052 
28112 
28125 
28132 
28093 
28117 
28185 
28288 
28357 
28431 
28433 
28510 
28613 
28655 
28739 
28846 
28908 
28979 
29079 
29123 
29104 
29098 
29157 
29162 
29190 
29276 
29300 
29298 
29301 
29324 
29399 
29491 
29554 
29604 
29658 
29743 
29798 
29890 
29972 
29966 
30007 
30087 
30135 
30183 
30236 
30258 
30274 
30297 
30265 
30292 
30283 
30273 
30394 
30454 
30465 
30493 
30528 
30570 
30669 
30676 
30680 
30708 
30700 
30725 
30705 
30759 
30830 
30917 
30947 
30941 
30978 
31084 
31173 
31188 
31201 
31228 
31208 
31219 
31274 
31323 
31379 
31487 
31533 
31514 
31450 
31424 
31422 
31425 
31455 
31476 
31556 
31652 
31680 
31746 
31792 
31814 
31817 
31852 
31874 
31817 
31773 
31800 
31823 
31791 
31805 
31865 
31909 
31951 
31919 
31887 
31907 
31944 
31930 
31958 
32009 
31984 
31967 
32005 
32029 
32065 
32030 
31993 
31968 
32001 
31944 
31906 
31949 
31922 
31920 
31927 
31941 
31946 
31937 
31894 
31823 
31778 
31661 
31557 
31455 
31291 
31134 
31051 
30999 
30847 
30680 
30498 
30385 
30289 
30145 
29996 
29834 
29662 
29491 
29318 
29162 
29027 
28889 
28744 
28578 
28449 
28316 
28187 
28072 
27984 
27954 
27889 
27837 
27785 
27771 
27737 
27755 
27754 
27743 
27793 
27808 
27789 
27809 
27857 
27892 
27865 
27800 
27783 
27810 
27839 
27866 
27896 
27964 
28052 
28119 
28127 
28136 
28150 
28163 
28235 
28262 
28304 
28361 
28469 
28608 
28713 
28730 
28761 
28838 
28866 
28903 
29039 
29161 
29301 
29363 
29295 
29304 
29324 
29412 
29574 
29651 
29710 
29756 
29830 
29899 
29948 
30035 
30107 
30136 
30108 
30136 
30179 
30203 
30191 
30190 
30275 
30364 
30461 
30486 
30506 
30534 
30593 
30672 
30746 
30809 
30841 
30896 
30931 
30939 
31015 
31089 
31118 
31129 
31146 
31128 
31143 
31168 
31216 
31303 
31357 
31366 
31388 
31386 
31418 
31450 
31459 
31460 
31445 
31488 
31521 
31566 
31662 
31740 
31780 
31788 
31834 
31871 
31854 
31867 
31946 
31987 
32009 
32011 
32015 
31979 
31992 
32036 
32054 
32159 
32232 
32244 
32228 
32190 
32196 
32200 
32222 
32275 
32295 
32289 
32283 
32326 
32349 
32269 
32223 
32236 
32252 
32269 
32302 
32337 
32307 
32293 
32301 
32336 
32371 
32381 
32378 
32352 
32307 
32243 
32138 
32112 
32044 
32010 
32020 
32013 
31969 
31859 
31709 
31527 
31357 
31216 
31047 
30865 
30707 
30517 
30362 
30180 
30023 
29875 
29645 
29447 
29228 
29070 
28920 
28766 
28618 
28455 
28361 
28259 
28164 
28138 
28025 
27899 
27831 
27752 
27660 
27620 
27594 
27647 
27672 
27649 
27688 
27701 
27727 
27725 
27730 
27811 
27917 
27969 
27953 
27974 
28045 
28114 
28105 
28169 
28243 
28320 
28383 
28466 
28560 
28583 
28618 
28683 
28725 
28746 
28815 
28864 
28960 
29076 
29131 
29144 
29252 
29382 
29424 
29478 
29530 
29623 
29705 
29809 
29815 
29876 
29939 
29986 
30067 
30136 
30158 
30230 
30320 
30453 
30503 
30486 
30482 
30534 
30627 
30653 
30683 
30744 
30783 
30811 
30860 
30892 
30924 
30992 
31035 
31058 
31039 
31053 
31108 
31192 
31255 
31310 
31327 
31391 
31479 
31533 
31526 
31488 
31532 
31656 
31695 
31729 
31738 
31763 
31840 
31931 
31963 
31948 
31919 
31963 
32048 
32098 
32113 
32171 
32267 
32316 
32288 
32250 
32301 
32357 
32407 
32457 
32483 
32433 
32441 
32477 
32481 
32523 
32512 
32488 
32460 
32488 
32516 
32547 
32545 
32565 
32568 
32568 
32580 
32554 
32558 
32525 
32528 
32534 
32531 
32506 
32515 
32528 
32530 
32490 
32403 
32379 
32407 
32386 
32327 
32324 
32333 
32337 
32352 
32377 
32286 
32203 
32113 
32032 
31962 
31930 
31872 
31757 
31693 
31660 
31614 
31560 
31554 
31481 
31386 
31339 
31302 
31205 
31097 
31022 
30959 
30931 
30870 
30749 
30617 
30472 
30405 
30375 
30332 
30278 
30174 
30101 
30055 
29946 
29856 
29780 
29726 
29635 
29594 
29582 
29548 
29520 
29452 
29363 
29280 
29231 
29197 
29198 
29235 
29263 
29255 
29279 
29268 
29212 
29174 
29138 
29112 
29026 
29037 
29155 
29209 
29230 
29222 
29213 
29184 
29208 
29282 
29325 
29307 
29304 
29312 
29279 
29217 
29190 
29219 
29261 
29338 
29431 
29485 
29519 
29601 
29692 
29754 
29855 
29936 
29933 
29892 
30007 
30116 
30108 
30108 
30191 
30314 
30411 
30468 
30478 
30491 
30535 
30555 
30606 
30680 
30699 
30731 
30788 
30797 
30841 
30878 
30897 
30927 
31003 
31024 
31026 
31018 
31050 
31082 
31065 
31077 
31100 
31155 
31216 
31201 
31208 
31230 
31260 
31331 
31356 
31394 
31442 
31496 
31495 
31466 
31461 
31505 
31622 
31629 
31649 
31656 
31692 
31711 
31657 
31603 
31632 
31639 
31633 
31622 
31625 
31659 
31664 
31607 
31568 
31587 
31638 
31653 
31605 
31567 
31552 
31526 
31412 
31317 
31305 
31196 
31082 
31013 
30957 
30880 
30761 
30674 
30617 
30546 
30502 
30438 
30435 
30406 
30412 
30398 
30322 
30256 
30215 
30248 
30225 
30158 
30074 
30000 
29974 
29982 
29964 
29975 
29974 
29974 
29977 
29967 
29979 
29954 
29910 
29888 
29888 
29908 
29936 
29986 
30041 
30051 
30045 
30063 
30102 
30075 
30043 
30053 
30065 
30080 
30069 
30091 
30146 
30180 
30178 
30195 
30280 
30304 
30296 
30306 
30377 
30445 
30474 
30479 
30464 
30470 
30492 
30544 
30564 
30547 
30565 
30595 
30672 
30754 
30782 
30811 
30823 
30840 
30945 
31015 
31080 
31071 
31121 
31191 
31204 
31179 
31218 
31231 
31227 
31228 
31242 
31286 
31335 
31317 
31346 
31483 
31562 
31559 
31604 
31609 
31601 
31612 
31629 
31654 
31689 
31704 
31735 
31748 
31751 
31789 
31807 
31848 
31859 
31831 
31830 
31878 
31914 
31940 
31968 
32004 
32006 
32014 
32013 
32016 
31958 
31930 
31935 
31993 
32041 
32035 
32027 
32022 
32013 
32107 
32137 
32157 
32178 
32227 
32228 
32165 
32136 
32166 
32191 
32185 
32285 
32364 
32339 
32306 
32286 
32305 
32356 
32460 
32480 
32452 
32409 
32422 
32442 
32437 
32388 
32394 
32418 
32439 
32427 
32444 
32443 
32421 
32457 
32489 
32513 
32559 
32546 
32525 
32491 
32536 
32612 
32612 
32564 
32577 
32615 
32684 
32716 
32692 
32674 
32724 
32712 
32651 
32666 
32692 
32713 
32689 
32697 
32695 
32674 
32638 
32660 
32634 
32576 
32588 
32561 
32508 
32488 
32494 
32485 
32536 
32510 
32462 
32472 
32474 
32503 
32463 
32430 
32469 
32434 
32358 
32317 
32278 
32254 
32273 
32290 
32262 
32287 
32320 
32390 
32410 
32379 
32368 
32410 
32395 
32363 
32361 
32354 
32364 
32345 
32293 
32241 
32203 
32187 
32210 
32238 
32270 
32248 
32240 
32280 
32316 
32313 
32315 
32292 
32297 
32292 
32314 
32331 
32340 
32344 
32337 
32301 
32291 
32265 
32268 
32229 
32143 
32145 
32178 
32189 
32190 
32210 
32178 
32165 
32150 
32189 
32265 
32270 
32311 
32303 
32224 
32218 
32170 
32090 
32054 
32004 
32014 
32075 
32109 
32149 
32149 
32145 
32126 
32010 
31974 
31941 
31900 
31863 
31867 
31898 
31935 
31913 
31886 
31900 
31944 
31957 
31953 
31932 
31900 
31956 
31972 
31948 
31899 
31888 
31855 
31841 
31836 
31804 
31764 
31706 
31676 
31641 
31629 
31661 
31690 
31703 
31715 
31665 
31586 
31569 
31594 
31599 
31624 
31608 
31554 
31555 
31596 
31615 
31571 
31593 
31580 
31503 
31448 
31405 
31400 
31376 
31357 
31336 
31275 
31234 
31233 
31274 
31357 
31328 
31294 
31370 
31429 
31454 
31472 
31474 
31463 
31430 
31400 
31407 
31451 
31489 
31435 
31397 
31397 
31405 
31439 
31547 
31612 
31549 
31483 
31484 
31494 
31490 
31485 
31420 
31414 
31441 
31477 
31550 
31538 
31535 
31536 
31501 
31492 
31494 
31498 
31458 
31424 
31480 
31505 
31484 
31507 
31545 
31575 
31550 
31512 
31488 
31512 
31529 
31535 
31505 
31528 
31541 
31495 
31526 
31564 
31526 
31505 
31479 
31428 
31407 
31446 
31453 
31451 
31495 
31483 
31422 
31400 
31428 
31441 
31434 
31378 
31396 
31485 
31482 
31444 
31486 
31540 
31553 
31545 
31565 
31582 
31532 
31518 
31528 
31583 
31565 
31525 
31552 
31600 
31635 
31615 
31597 
31635 
31689 
31727 
31754 
31754 
31748 
31689 
31711 
31810 
31845 
31806 
31835 
31898 
31906 
31875 
31792 
31716 
31683 
31691 
31715 
31710 
31726 
31770 
31748 
31723 
31793 
31772 
31743 
31766 
31755 
31771 
31746 
31741 
31743 
31713 
31695 
31741 
31760 
31778 
31727 
31665 
31648 
31647 
31653 
31645 
31653 
31637 
31614 
31665 
31670 
31661 
31689 
31689 
31620 
31550 
31531 
31582 
31628 
31605 
31545 
31506 
31512 
31497 
31493 
31492 
31436 
31457 
31519 
31497 
31472 
31456 
31420 
31421 
31426 
31413 
31361 
31348 
31333 
31373 
31416 
31401 
31344 
31310 
31346 
31421 
31405 
31333 
31373 
31447 
31452 
31463 
31490 
31476 
31496 
31510 
31506 
31488 
31429 
31425 
31413 
31377 
31323 
31318 
31325 
31403 
31469 
31468 
31485 
31472 
31405 
31389 
31344 
31348 
31403 
31470 
31527 
31516 
31482 
31479 
31499 
31501 
31547 
31592 
31600 
31574 
31541 
31526 
31502 
31448 
31392 
31465 
31507 
31511 
31528 
31563 
31586 
31572 
31525 
31483 
31536 
31570 
31547 
31580 
31590 
31560 
31519 
31519 
31580 
31608 
31596 
31602 
31631 
31622 
31601 
31585 
31636 
31679 
31745 
31742 
31723 
31728 
31740 
31721 
31670 
31617 
31615 
31624 
31556 
31522 
31562 
31547 
31515 
31500 
31494 
31506 
31519 
31576 
31552 
31533 
31502 
31454 
31480 
31503 
31520 
31542 
31555 
31519 
31471 
31431 
31429 
31403 
31403 
31395 
31461 
31494 
31439 
31449 
31509 
31523 
31481 
31489 
31542 
31593 
31571 
31512 
31478 
31416 
31436 
31461 
31487 
31469 
31386 
31383 
31422 
31377 
31391 
31365 
31364 
31351 
31339 
31316 
31332 
31387 
31359 
31276 
31250 
31246 
31271 
31295 
31356 
31407 
31429 
31407 
31360 
31271 
31254 
31291 
31286 
31260 
31256 
31241 
31257 
31269 
31193 
31162 
31174 
31083 
31031 
31051 
31053 
31091 
31081 
31005 
30952 
30953 
31036 
31084 
31157 
31207 
31183 
31172 
31238 
31230 
31186 
31203 
31245 
31249 
31283 
31300 
31322 
31271 
31228 
31225 
31237 
31247 
31291 
31296 
31318 
31317 
31318 
31387 
31453 
31439 
31378 
31387 
31446 
31457 
31467 
31519 
31447 
31320 
31298 
31335 
31363 
31357 
31353 
31365 
31405 
31448 
31482 
31424 
31371 
31414 
31413 
31420 
31431 
31439 
31490 
31468 
31458 
31480 
31463 
31418 
31396 
31353 
31345 
31326 
31386 
31437 
31421 
31418 
31488 
31507 
31453 
31429 
31439 
31390 
31365 
31403 
31463 
31485 
31478 
31437 
31400 
31379 
31382 
31442 
31489 
31490 
31411 
31367 
31366 
31330 
31250 
31280 
31242 
31186 
31177 
31200 
31220 
31221 
31241 
31258 
31318 
31385 
31398 
31427 
31447 
31417 
31328 
31322 
31296 
31349 
31383 
31395 
31421 
31396 
31346 
31277 
31264 
31264 
31286 
31297 
31281 
31260 
31227 
31198 
31185 
31204 
31220 
31237 
31238 
31198 
31196 
31278 
31341 
31309 
31292 
31286 
31239 
31202 
31229 
31256 
31234 
31198 
31174 
31177 
31178 
31168 
31179 
31178 
31175 
31213 
31267 
31301 
31317 
31350 
31343 
31368 
31371 
31412 
31393 
31376 
31354 
31349 
31358 
31384 
31389 
31397 
31417 
31424 
31353 
31315 
31327 
31331 
31282 
31240 
31220 
31220 
31183 
31168 
31198 
31169 
31184 
31219 
31258 
31242 
31262 
31291 
31303 
31347 
31379 
31352 
31339 
31335 
31325 
31348 
31309 
31315 
31362 
31379 
31397 
31382 
31389 
31408 
31416 
31422 
31388 
31395 
31432 
31484 
31491 
31461 
31483 
31452 
31428 
31385 
31445 
31515 
31478 
31447 
31441 
31414 
31401 
31418 
31387 
31332 
31304 
31273 
31267 
31262 
31275 
31232 
31185 
31145 
31129 
31116 
31120 
31101 
31080 
31130 
31158 
31160 
31119 
31080 
31054 
31012 
30992 
31016 
30975 
30961 
30998 
31024 
31075 
31107 
31106 
31094 
31079 
31073 
31072 
31050 
31044 
31004 
30998 
31025 
31001 
30973 
30984 
31033 
31052 
31041 
31020 
30961 
30995 
30989 
31003 
31005 
30985 
31034 
31088 
31068 
30999 
30992 
31018 
31001 
30977 
30984 
31012 
31059 
31103 
31095 
31053 
30976 
31011 
31078 
31097 
31058 
31045 
31051 
31061 
31061 
31080 
31058 
31005 
30976 
30931 
30894 
30890 
30936 
30927 
30926 
30947 
30959 
30947 
30956 
30885 
30876 
30966 
30976 
30965 
30989 
31021 
31073 
31044 
30997 
30984 
30994 
31004 
30971 
30917 
30875 
30864 
30904 
30944 
30982 
30972 
31012 
31017 
31027 
31073 
31119 
31109 
31071 
30983 
31001 
31064 
31072 
31046 
31072 
31071 
31060 
31082 
31074 
31058 
31094 
31063 
31046 
31077 
31115 
31102 
31127 
31093 
31055 
31043 
31044 
31020 
30999 
31034 
31045 
31055 
31048 
31049 
30975 
30895 
30937 
30940 
30932 
30946 
30922 
30894 
30961 
30992 
30955 
30942 
30972 
31035 
31035 
31025 
31005 
30994 
31012 
31015 
30989 
30995 
31006 
30965 
30947 
30974 
30978 
30981 
30940 
30904 
30876 
30831 
30838 
30866 
30864 
30930 
30917 
30861 
30823 
30834 
30886 
30868 
30865 
30892 
30898 
30939 
30877 
30812 
30774 
30774 
30755 
30762 
30799 
30791 
30757 
30675 
30611 
30665 
30648 
30628 
30698 
30732 
30780 
30766 
30741 
30687 
30675 
30701 
30658 
30691 
30729 
30780 
30763 
30734 
30751 
30787 
30762 
30701 
30743 
30804 
30809 
30819 
30817 
30776 
30753 
30713 
30710 
30738 
30790 
30808 
30787 
30715 
30704 
30720 
30725 
30693 
30652 
30609 
30580 
30585 
30611 
30611 
30641 
30637 
30665 
30670 
30653 
30667 
30685 
30659 
30621 
30589 
30571 
30565 
30528 
30524 
30512 
30594 
30656 
30662 
30629 
30623 
30591 
30566 
30515 
30507 
30606 
30639 
30640 
30661 
30682 
30693 
30688 
30696 
30698 
30683 
30688 
30720 
30704 
30636 
30544 
30475 
30467 
30492 
30525 
30543 
30569 
30638 
30676 
30681 
30678 
30691 
30702 
30721 
30745 
30716 
30671 
30669 
30650 
30656 
30599 
30604 
30674 
30717 
30749 
30740 
30694 
30653 
30658 
30618 
30590 
30625 
30684 
30650 
30577 
30593 
30580 
30551 
30593 
30655 
30637 
30561 
30539 
30500 
30483 
30510 
30541 
30598 
30645 
30680 
30670 
30597 
30560 
30615 
30657 
30660 
30631 
30607 
30624 
30608 
30562 
30583 
30565 
30570 
30525 
30500 
30547 
30563 
30544 
30551 
30556 
30562 
30545 
30528 
30569 
30593 
30599 
30563 
30538 
30512 
30501 
30492 
30509 
30524 
30559 
30556 
30541 
30546 
30537 
30526 
30552 
30517 
30468 
30451 
30519 
30530 
30493 
30471 
30449 
30428 
30478 
30485 
30432 
30424 
30440 
30451 
30459 
30491 
30537 
30515 
30531 
30578 
30623 
30667 
30690 
30678 
30683 
30690 
30618 
30565 
30543 
30542 
30527 
30456 
30444 
30447 
30439 
30424 
30454 
30462 
30427 
30416 
30388 
30398 
30394 
30371 
30430 
30486 
30511 
30505 
30507 
30479 
30439 
30449 
30499 
30468 
30462 
30523 
30587 
30615 
30617 
30597 
30630 
30631 
30583 
30528 
30561 
30631 
30622 
30571 
30490 
30493 
30517 
30565 
30651 
30638 
30613 
30613 
30596 
30580 
30617 
30649 
30731 
30754 
30692 
30622 
30638 
30679 
30698 
30687 
30694 
30745 
30742 
30773 
30795 
30730 
30639 
30635 
30660 
30624 
30597 
30599 
30632 
30590 
30602 
30664 
30722 
30700 
30665 
30676 
30722 
30763 
30724 
30714 
30701 
30690 
30661 
30688 
30727 
30662 
30652 
30683 
30701 
30706 
30698 
30678 
30695 
30719 
30749 
30704 
30685 
30705 
30690 
30696 
30738 
30825 
30894 
30870 
30835 
30756 
30700 
30680 
30673 
30708 
30729 
30735 
30701 
30635 
30624 
30641 
30654 
30651 
30635 
30666 
30752 
30761 
30705 
30700 
30684 
30655 
30569 
30553 
30539 
30569 
30603 
30634 
30687 
30656 
30625 
30625 
30609 
30608 
30680 
30684 
30659 
30641 
30602 
30538 
30507 
30531 
30548 
30506 
30578 
30654 
30678 
30682 
30676 
30648 
30616 
30617 
30602 
30590 
30603 
30583 
30589 
30631 
30657 
30629 
30576 
30499 
30478 
30538 
30567 
30556 
30518 
30483 
30448 
30457 
30472 
30463 
30535 
30619 
30630 
30617 
30569 
30561 
30585 
30652 
30688 
30674 
30688 
30696 
30681 
30679 
30713 
30673 
30664 
30718 
30727 
30742 
30766 
30763 
30731 
30739 
30716 
30727 
30690 
30671 
30653 
30620 
30652 
30710 
30734 
30751 
30780 
30746 
30718 
30730 
30720 
30690 
30722 
30742 
30707 
30745 
30787 
30786 
30732 
30706 
30737 
30687 
30611 
30556 
30584 
30636 
30635 
30613 
30617 
30609 
30664 
30648 
30631 
30618 
30614 
30625 
30680 
30673 
30674 
30673 
30636 
30575 
30549 
30546 
30562 
30535 
30536 
30547 
30615 
30633 
30671 
30696 
30704 
30706 
30704 
30687 
30639 
30618 
30639 
30621 
30588 
30604 
30665 
30684 
30691 
30665 
30678 
30683 
30684 
30705 
30774 
30798 
30749 
30699 
30688 
30683 
30735 
30792 
30776 
30766 
30737 
30659 
30618 
30668 
30746 
30719 
30667 
30659 
30659 
30640 
30576 
30592 
30603 
30565 
30530 
30489 
30409 
30432 
30545 
30575 
30582 
30628 
30618 
30513 
30440 
30522 
30602 
30623 
30617 
30536 
30395 
30367 
30402 
30419 
30444 
30446 
30433 
30475 
30568 
30589 
30552 
30566 
30577 
30579 
30592 
30599 
30637 
30618 
30561 
30540 
30492 
30421 
30394 
30438 
30489 
30541 
30558 
30592 
30638 
30640 
30631 
30628 
30653 
30656 
30656 
30662 
30688 
30713 
30732 
30731 
30748 
30729 
30775 
30770 
30710 
30689 
30655 
30610 
30606 
30657 
30704 
30708 
30682 
30634 
30655 
30642 
30608 
30574 
30590 
30603 
30605 
30623 
30591 
30594 
30572 
30519 
30446 
30454 
30467 
30476 
30463 
30471 
30521 
30571 
30539 
30487 
30518 
30564 
30570 
30515 
30500 
30518 
30508 
30463 
30475 
30518 
30561 
30556 
30520 
30469 
30509 
30516 
30474 
30463 
30466 
30477 
30494 
30481 
30496 
30454 
30473 
30533 
30566 
30579 
30575 
30585 
30585 
30598 
30559 
30526 
30515 
30519 
30511 
30488 
30490 
30567 
30569 
30574 
30537 
30518 
30580 
30657 
30656 
30611 
30615 
30582 
30561 
30588 
30577 
30571 
30582 
30576 
30610 
30663 
30660 
30630 
30616 
30571 
30528 
30516 
30526 
30586 
30568 
30582 
30576 
30591 
30569 
30558 
30553 
30543 
30564 
30573 
30631 
30674 
30730 
30738 
30657 
30630 
30626 
30598 
30632 
30663 
30627 
30559 
30547 
30546 
30522 
30506 
30521 
30548 
30546 
30541 
30497 
30473 
30490 
30511 
30516 
30530 
30568 
30617 
30623 
30641 
30681 
30699 
30681 
30671 
30605 
30600 
30647 
30724 
30717 
30727 
30704 
30650 
30596 
30602 
30645 
30691 
30773 
30737 
30672 
30663 
30634 
30634 
30619 
30609 
30669 
30731 
30727 
30680 
30638 
30597 
30596 
30642 
30597 
30563 
30676 
30705 
30697 
30678 
30630 
30654 
30683 
30631 
30564 
30573 
30604 
30655 
30636 
30666 
30657 
30544 
30494 
30526 
30584 
30620 
30642 
30615 
30612 
30590 
30573 
30555 
30555 
30538 
30552 
30550 
30570 
30576 
30551 
30525 
30446 
30430 
30519 
30583 
30584 
30564 
30520 
30493 
30490 
30474 
30489 
30502 
30522 
30504 
30501 
30522 
30514 
30497 
30520 
30494 
30451 
30491 
30466 
30439 
30486 
30534 
30506 
30521 
30531 
30549 
30566 
30524 
30504 
30531 
30547 
30512 
30488 
30455 
30506 
30531 
30476 
30467 
30496 
30497 
30480 
30509 
30547 
30554 
30518 
30482 
30491 
30504 
30475 
30583 
30560 
30551 
30610 
30586 
30509 
30526 
30520 
30511 
30552 
30534 
30505 
30481 
30498 
30519 
30595 
30637 
30557 
30495 
30489 
30472 
30483 
30482 
30445 
30452 
30483 
30471 
30414 
30453 
30516 
30573 
30603 
30619 
30628 
30605 
30616 
30598 
30584 
30562 
30591 
30589 
30585 
30594 
30614 
30618 
30640 
30637 
30615 
30665 
30677 
30656 
30667 
30659 
30685 
30720 
30711 
30701 
30696 
30669 
30610 
30585 
30567 
30619 
30677 
30663 
30603 
30610 
30634 
30658 
30660 
30653 
30679 
30687 
30690 
30657 
30624 
30619 
30566 
30515 
30514 
30516 
30487 
30462 
30452 
30402 
30363 
30384 
30342 
30297 
30279 
30281 
30264 
30257 
30306 
30329 
30329 
30328 
30382 
30375 
30365 
30378 
30372 
30377 
30298 
30221 
30164 
30166 
30206 
30264 
30285 
30255 
30207 
30231 
30243 
30262 
30316 
30319 
30276 
30254 
30283 
30292 
30283 
30236 
30192 
30168 
30174 
30204 
30251 
30213 
30179 
30179 
30223 
30241 
30295 
30315 
30330 
30333 
30343 
30336 
30314 
30365 
30424 
30413 
30401 
30413 
30445 
30492 
30493 
30488 
30540 
30577 
30625 
30624 
30583 
30563 
30613 
30621 
30569 
30569 
30608 
30641 
30703 
30736 
30714 
30697 
30675 
30680 
30695 
30682 
30677 
30719 
30709 
30643 
30613 
30647 
30686 
30684 
30691 
30742 
30778 
30763 
30703 
30713 
30746 
30751 
30788 
30780 
30805 
30848 
30889 
30843 
30841 
30806 
30772 
30777 
30798 
30790 
30796 
30812 
30856 
30830 
30861 
30912 
30917 
30937 
30897 
30892 
30901 
30943 
31002 
30928 
30896 
30909 
30897 
30836 
30890 
30977 
30995 
30931 
30910 
30903 
30926 
30950 
30951 
30952 
30947 
30955 
30903 
30848 
30860 
30904 
30930 
30948 
30981 
30977 
30958 
30974 
31004 
31005 
30918 
30920 
30980 
31023 
31010 
31000 
30963 
30870 
30787 
30771 
30750 
30728 
30719 
30710 
30684 
30638 
30620 
30644 
30594 
30546 
30476 
30397 
30371 
30381 
30309 
30250 
30202 
30150 
30079 
29998 
29897 
29827 
29833 
29837 
29838 
29838 
29846 
29834 
29808 
29784 
29752 
29695 
29620 
29557 
29528 
29449 
29399 
29409 
29417 
29430 
29455 
29408 
29400 
29367 
29333 
29343 
29332 
29339 
29344 
29321 
29276 
29230 
29140 
29134 
29142 
29095 
29162 
29165 
29133 
29180 
29233 
29195 
29225 
29238 
29221 
29266 
29290 
29267 
29327 
29352 
29315 
29310 
29304 
29323 
29321 
29334 
29349 
29370 
29405 
29455 
29477 
29521 
29570 
29599 
29589 
29595 
29664 
29702 
29714 
29714 
29766 
29871 
29910 
29909 
29899 
29905 
29882 
29879 
29887 
29892 
29966 
30060 
30084 
30067 
30152 
30217 
30215 
30207 
30221 
30230 
30201 
30210 
30336 
30424 
30548 
30602 
30593 
30588 
30566 
30564 
30640 
30660 
30654 
30700 
30659 
30720 
30860 
30959 
31010 
31003 
30994 
31003 
31058 
31073 
31070 
31078 
31132 
31228 
31328 
31363 
31372 
31381 
31380 
31353 
31344 
31383 
31420 
31421 
31474 
31580 
31608 
31605 
31635 
31639 
31641 
31705 
31743 
31767 
31807 
31849 
31907 
31902 
31875 
31847 
31825 
31868 
31927 
31968 
31961 
31930 
31926 
31887 
31889 
31932 
31934 
31933 
31935 
31896 
31853 
31760 
31726 
31705 
31749 
31790 
31772 
31769 
31776 
31765 
31708 
31665 
31623 
31587 
31532 
31521 
31503 
31409 
31359 
31345 
31339 
31314 
31307 
31333 
31287 
31232 
31218 
31167 
31154 
31132 
31135 
31185 
31248 
31252 
31162 
31146 
31233 
31243 
31272 
31277 
31199 
31184 
31173 
31170 
31195 
31212 
31252 
31260 
31256 
31252 
31263 
31280 
31316 
31341 
31380 
31392 
31486 
31530 
31506 
31483 
31474 
31475 
31482 
31457 
31441 
31483 
31523 
31536 
31537 
31498 
31546 
31649 
31732 
31802 
31822 
31783 
31769 
31769 
31721 
31722 
31736 
31699 
31693 
31671 
31646 
31693 
31742 
31754 
31774 
31830 
31869 
31920 
31943 
31964 
32041 
32060 
32028 
32010 
32023 
32005 
32013 
31998 
31995 
32015 
32068 
32120 
32109 
32058 
32085 
32138 
32164 
32178 
32232 
32261 
32264 
32252 
32202 
32276 
32382 
32403 
32363 
32334 
32368 
32395 
32381 
32444 
32498 
32545 
32562 
32538 
32579 
32621 
32580 
32554 
32555 
32595 
32614 
32600 
32613 
32589 
32563 
32505 
32481 
32504 
32510 
32537 
32628 
32666 
32689 
32672 
32578 
32504 
32454 
32442 
32463 
32524 
32592 
32591 
32578 
32520 
32554 
32599 
32606 
32542 
32537 
32527 
32444 
32417 
32404 
32384 
32357 
32333 
32316 
32320 
32315 
32222 
32139 
32085 
32060 
32006 
31939 
31877 
31818 
31800 
31780 
31758 
31712 
31634 
31553 
31501 
31441 
31381 
31354 
31334 
31273 
31216 
31191 
31155 
31148 
31171 
31114 
31072 
31067 
31122 
31187 
31230 
31244 
31268 
31265 
31252 
31235 
31219 
31279 
31340 
31321 
31330 
31387 
31366 
31331 
31367 
31395 
31414 
31482 
31495 
31489 
31529 
31534 
31520 
31509 
31524 
31504 
31458 
31476 
31468 
31521 
31570 
31588 
31601 
31639 
31703 
31725 
31744 
31765 
31776 
31778 
31803 
31821 
31833 
31909 
31962 
31980 
31939 
31916 
31962 
32017 
32029 
32077 
32073 
32054 
32029 
31983 
31998 
32023 
32017 
32023 
32089 
32078 
32098 
32167 
32181 
32204 
32261 
32273 
32299 
32329 
32394 
32432 
32374 
32341 
32321 
32270 
32319 
32370 
32348 
32384 
32406 
32382 
32359 
32367 
32371 
32336 
32403 
32404 
32408 
32438 
32467 
32509 
32500 
32483 
32513 
32525 
32502 
32520 
32549 
32554 
32568 
32579 
32555 
32588 
32535 
32506 
32523 
32543 
32525 
32507 
32513 
32496 
32502 
32537 
32662 
32776 
32756 
32747 
32777 
32809 
32814 
32807 
32721 
32666 
32626 
32605 
32581 
32573 
32550 
32511 
32447 
32402 
32382 
32341 
32289 
32238 
32235 
32171 
32077 
32025 
31996 
31926 
31874 
31833 
31738 
31743 
31653 
31564 
31524 
31485 
31432 
31425 
31435 
31428 
31409 
31369 
31366 
31433 
31482 
31443 
31379 
31314 
31263 
31250 
31274 
31362 
31457 
31503 
31523 
31540 
31556 
31599 
31631 
31565 
31566 
31641 
31703 
31775 
31776 
31759 
31767 
31798 
31870 
31969 
32048 
32102 
32129 
32185 
32235 
32264 
32299 
32342 
32408 
32452 
32512 
32558 
32592 
32659 
32685 
32710 
32777 
32790 
32820 
32857 
32895 
32947 
32987 
32963 
32957 
32935 
32937 
32978 
33045 
33148 
33249 
33282 
33338 
33391 
33433 
33438 
33503 
33539 
33537 
33528 
33525 
33549 
33607 
33567 
33531 
33540 
33549 
33577 
33660 
33700 
33721 
33714 
33711 
33734 
33704 
33659 
33704 
33768 
33794 
33771 
33768 
33806 
33906 
33936 
33910 
33903 
33923 
33959 
34029 
34079 
34054 
34035 
34041 
34005 
33994 
34011 
34015 
34029 
34064 
34070 
34114 
34114 
34075 
34073 
34090 
34083 
34016 
34004 
34084 
34095 
34025 
33991 
33945 
33929 
33907 
33888 
33916 
33979 
33974 
33981 
33985 
33992 
33973 
33975 
34010 
34068 
34085 
34102 
34109 
34119 
34107 
34054 
33989 
33965 
33903 
33857 
33755 
33633 
33524 
33452 
33356 
33215 
33078 
32992 
32871 
32777 
32749 
32707 
32658 
32609 
32576 
32525 
32417 
32319 
32226 
32072 
32012 
32006 
31973 
31895 
31849 
31850 
31834 
31788 
31769 
31735 
31681 
31652 
31634 
31635 
31628 
31621 
31694 
31713 
31731 
31795 
31897 
31944 
31963 
32031 
32054 
32054 
32064 
32061 
32112 
32136 
32167 
32239 
32299 
32306 
32401 
32432 
32442 
32477 
32526 
32605 
32650 
32692 
32708 
32751 
32799 
32811 
32804 
32851 
32922 
32961 
33027 
33114 
33152 
33158 
33175 
33155 
33172 
33255 
33257 
33222 
33254 
33346 
33471 
33519 
33500 
33514 
33557 
33592 
33666 
33782 
33852 
33889 
33931 
33925 
33852 
33854 
33917 
33932 
33936 
33957 
34001 
34019 
34011 
34073 
34139 
34168 
34189 
34177 
34204 
34280 
34306 
34302 
34300 
34288 
34308 
34339 
34362 
34379 
34430 
34477 
34546 
34583 
34537 
34531 
34578 
34649 
34649 
34608 
34612 
34701 
34732 
34708 
34646 
34566 
34504 
34514 
34541 
34551 
34548 
34590 
34626 
34618 
34581 
34556 
34523 
34504 
34509 
34532 
34553 
34610 
34600 
34573 
34539 
34494 
34445 
34455 
34499 
34513 
34511 
34470 
34382 
34397 
34402 
34379 
34424 
34466 
34441 
34432 
34399 
34366 
34320 
34288 
34220 
34127 
34062 
34037 
33950 
33821 
33707 
33666 
33595 
33496 
33365 
