-1194 
-1492 
-1780 
-1511 
-1208 
-1453 
-1808 
-1605 
-1243 
-1386 
-1779 
-1683 
-1282 
-1323 
-1714 
-1736 
-1333 
-1254 
-1650 
-1765 
-1348 
-1183 
-1551 
-1769 
-1431 
-1164 
-1483 
-1794 
-1519 
-1179 
-1396 
-1766 
-1576 
-1176 
-1326 
-1728 
-1640 
-1202 
-1234 
-1642 
-1653 
-1245 
-1158 
-1525 
-1668 
-1279 
-1109 
-1468 
-1693 
-1333 
-1052 
-1378 
-1696 
-1425 
-1056 
-1276 
-1640 
-1457 
-1049 
-1179 
-1604 
-1527 
-1104 
-1116 
-1539 
-1579 
-1172 
-1080 
-1456 
-1598 
-1215 
-1014 
-1338 
-1570 
-1247 
-979 
-1286 
-1617 
-1340 
-968 
-1158 
-1522 
-1348 
-939 
-1045 
-1444 
-1394 
-987 
-1009 
-1432 
-1485 
-1074 
-971 
-1357 
-1524 
-1146 
-949 
-1282 
-1510 
-1183 
-917 
-1220 
-1554 
-1285 
-890 
-1032 
-1313 
-1025 
-473 
-388 
-584 
-403 
54 
-7 
-660 
-1033 
-860 
-876 
-1323 
-1484 
-1061 
-833 
-1163 
-1396 
-1054 
-737 
-1007 
-1336 
-1093 
-733 
-922 
-1302 
-1121 
-723 
-824 
-1236 
-1181 
-771 
-768 
-1167 
-1233 
-807 
-704 
-1071 
-1207 
-823 
-624 
-969 
-1231 
-901 
-581 
-858 
-1195 
-944 
-558 
-740 
-1103 
-943 
-538 
-618 
-1017 
-927 
-490 
-458 
-840 
-893 
-467 
-322 
-671 
-821 
-450 
-206 
-522 
-754 
-411 
-86 
-363 
-681 
-419 
-51 
-270 
-671 
-517 
-138 
-275 
-709 
-738 
-346 
-381 
-841 
-924 
-527 
-418 
-820 
-1024 
-668 
-436 
-770 
-1049 
-758 
-483 
-760 
-1110 
-902 
-538 
-720 
-1115 
-1000 
-596 
-680 
-1090 
-1081 
-657 
-621 
-1000 
-1092 
-688 
-562 
-941 
-1127 
-752 
-507 
-828 
-1085 
-800 
-478 
-747 
-1110 
-910 
-516 
-670 
-1039 
-922 
-505 
-579 
-992 
-976 
-546 
-522 
-921 
-1002 
-613 
-475 
-861 
-1059 
-704 
-460 
-783 
-1073 
-791 
-465 
-698 
-1037 
-850 
-474 
-594 
-1009 
-883 
-452 
-534 
-947 
-954 
-546 
-488 
-885 
-1018 
-632 
-457 
-816 
-1030 
-657 
-383 
-709 
-1010 
-715 
-358 
-592 
-975 
-776 
-388 
-526 
-917 
-843 
-458 
-497 
-874 
-888 
-480 
-426 
-835 
-929 
-529 
-356 
-711 
-930 
-574 
-314 
-603 
-903 
-626 
-308 
-541 
-896 
-713 
-323 
-438 
-833 
-756 
-339 
-376 
-803 
-807 
-373 
-284 
-683 
-792 
-378 
-193 
-539 
-757 
-417 
-172 
-478 
-797 
-538 
-192 
-414 
-782 
-604 
-190 
-327 
-739 
-663 
-246 
-277 
-699 
-741 
-291 
-136 
-456 
-470 
75 
492 
372 
274 
650 
825 
222 
-420 
-361 
-94 
-327 
-651 
-430 
-19 
-152 
-560 
-492 
-79 
-99 
-503 
-535 
-143 
-72 
-461 
-589 
-212 
-22 
-368 
-610 
-276 
18 
-254 
-560 
-321 
37 
-156 
-529 
-344 
104 
16 
-396 
-358 
67 
85 
-296 
-347 
84 
219 
-176 
-324 
71 
292 
-31 
-273 
74 
370 
97 
-217 
76 
462 
303 
-46 
102 
522 
463 
79 
146 
583 
597 
183 
122 
531 
635 
233 
17 
359 
536 
169 
-116 
141 
406 
119 
-284 
-102 
253 
93 
-280 
-216 
170 
70 
-346 
-313 
106 
122 
-318 
-422 
-43 
71 
-309 
-502 
-144 
82 
-242 
-534 
-246 
56 
-194 
-542 
-339 
32 
-139 
-528 
-415 
-22 
-97 
-502 
-484 
-74 
-32 
-412 
-509 
-125 
10 
-375 
-612 
-294 
-52 
-381 
-680 
-397 
-59 
-317 
-680 
-476 
-98 
-258 
-664 
-567 
-174 
-246 
-643 
-640 
-226 
-176 
-588 
-718 
-330 
-189 
-570 
-782 
-451 
-212 
-555 
-879 
-591 
-269 
-530 
-898 
-708 
-349 
-500 
-886 
-804 
-382 
-441 
-852 
-881 
-477 
-418 
-825 
-977 
-592 
-425 
-804 
-1044 
-702 
-460 
-789 
-1096 
-853 
-539 
-763 
-1143 
-983 
-609 
-742 
-1113 
-1065 
-680 
-713 
-1100 
-1141 
-759 
-686 
-1074 
-1232 
-859 
-665 
-1003 
-1279 
-957 
-675 
-970 
-1303 
-1079 
-758 
-967 
-1345 
-1168 
-770 
-885 
-1281 
-1232 
-818 
-826 
-1215 
-1269 
-893 
-812 
-1234 
-1429 
-1069 
-882 
-1228 
-1480 
-1186 
-903 
-1176 
-1491 
-1244 
-894 
-1128 
-1509 
-1376 
-988 
-1051 
-1381 
-1219 
-664 
-484 
-624 
-489 
-8 
53 
-552 
-1089 
-1012 
-956 
-1364 
-1614 
-1259 
-941 
-1194 
-1566 
-1371 
-1023 
-1215 
-1607 
-1483 
-1057 
-1169 
-1604 
-1591 
-1189 
-1164 
-1560 
-1653 
-1285 
-1179 
-1534 
-1705 
-1349 
-1127 
-1441 
-1697 
-1406 
-1092 
-1341 
-1693 
-1496 
-1141 
-1309 
-1655 
-1530 
-1143 
-1223 
-1602 
-1579 
-1146 
-1109 
-1521 
-1612 
-1210 
-1063 
-1434 
-1584 
-1190 
-946 
-1252 
-1520 
-1203 
-866 
-1097 
-1446 
-1213 
-810 
-959 
-1342 
-1223 
-809 
-888 
-1332 
-1367 
-978 
-984 
-1429 
-1572 
-1187 
-1081 
-1507 
-1763 
-1435 
-1230 
-1557 
-1858 
-1597 
-1304 
-1565 
-1926 
-1747 
-1375 
-1521 
-1926 
-1864 
-1478 
-1536 
-1956 
-1991 
-1591 
-1517 
-1918 
-2087 
-1722 
-1565 
-1933 
-2177 
-1828 
-1559 
-1886 
-2217 
-1940 
-1594 
-1810 
-2186 
-2017 
-1642 
-1784 
-2185 
-2103 
-1675 
-1712 
-2124 
-2153 
-1757 
-1693 
-2107 
-2269 
-1918 
-1760 
-2135 
-2371 
-2029 
-1745 
-2020 
-2330 
-2093 
-1743 
-1952 
-2356 
-2184 
-1783 
-1907 
-2308 
-2255 
-1835 
-1859 
-2256 
-2301 
-1894 
-1799 
-2195 
-2351 
-1988 
-1789 
-2125 
-2378 
-2044 
-1751 
-2055 
-2402 
-2166 
-1794 
-1987 
-2359 
-2204 
-1823 
-1933 
-2351 
-2322 
-1918 
-1933 
-2341 
-2403 
-1998 
-1903 
-2311 
-2482 
-2105 
-1910 
-2249 
-2526 
-2215 
-1906 
-2190 
-2529 
-2289 
-1920 
-2134 
-2511 
-2369 
-1969 
-2076 
-2477 
-2448 
-2047 
-2027 
-2429 
-2506 
-2087 
-1960 
-2366 
-2553 
-2188 
-1972 
-2298 
-2564 
-2243 
-1915 
-2171 
-2518 
-2303 
-1928 
-2104 
-2463 
-2318 
-1908 
-1974 
-2370 
-2352 
-1954 
-1951 
-2384 
-2470 
-2069 
-1948 
-2308 
-2469 
-2123 
-1892 
-2216 
-2495 
-2180 
-1856 
-2109 
-2446 
-2209 
-1758 
-1830 
-2104 
-1815 
-1184 
-1045 
-1352 
-1347 
-1082 
-1348 
-2061 
-2382 
-2038 
-1905 
-2254 
-2440 
-2067 
-1802 
-2111 
-2397 
-2098 
-1761 
-2010 
-2364 
-2176 
-1789 
-1936 
-2335 
-2219 
-1798 
-1837 
-2252 
-2273 
-1854 
-1813 
-2224 
-2338 
-1927 
-1768 
-2142 
-2355 
-1977 
-1714 
-2022 
-2311 
-2015 
-1677 
-1906 
-2226 
-2016 
-1609 
-1734 
-2109 
-2020 
-1570 
-1580 
-1968 
-1972 
-1549 
-1466 
-1816 
-1912 
-1492 
-1290 
-1622 
-1829 
-1461 
-1170 
-1449 
-1712 
-1409 
-1060 
-1264 
-1619 
-1439 
-1046 
-1210 
-1656 
-1630 
-1245 
-1289 
-1727 
-1815 
-1428 
-1366 
-1783 
-1949 
-1580 
-1405 
-1772 
-2012 
-1666 
-1402 
-1701 
-2046 
-1800 
-1455 
-1661 
-2037 
-1892 
-1512 
-1627 
-2028 
-1953 
-1551 
-1559 
-1954 
-2012 
-1596 
-1507 
-1898 
-2062 
-1670 
-1447 
-1773 
-2013 
-1686 
-1392 
-1676 
-2002 
-1754 
-1384 
-1556 
-1930 
-1771 
-1372 
-1471 
-1873 
-1850 
-1428 
-1389 
-1827 
-1887 
-1454 
-1336 
-1730 
-1900 
-1522 
-1307 
-1659 
-1914 
-1602 
-1288 
-1543 
-1867 
-1647 
-1281 
-1457 
-1820 
-1671 
-1272 
-1361 
-1761 
-1737 
-1310 
-1283 
-1684 
-1735 
-1334 
-1232 
-1617 
-1807 
-1430 
-1168 
-1485 
-1771 
-1478 
-1157 
-1390 
-1724 
-1513 
-1135 
-1319 
-1707 
-1563 
-1124 
-1180 
-1578 
-1568 
-1149 
-1107 
-1512 
-1619 
-1221 
-1085 
-1452 
-1667 
-1295 
-1037 
-1379 
-1668 
-1363 
-1043 
-1291 
-1626 
-1410 
-1021 
-1177 
-1563 
-1483 
-1070 
-1109 
-1521 
-1527 
-1093 
-1033 
-1424 
-1520 
-1120 
-958 
-1319 
-1518 
-1152 
-889 
-1202 
-1521 
-1246 
-893 
-1110 
-1443 
-1251 
-856 
-1000 
-1414 
-1328 
-896 
-908 
-1296 
-1309 
-888 
-797 
-1186 
-1323 
-938 
-761 
-1150 
-1390 
-1051 
-778 
-1080 
-1376 
-1114 
-778 
-1003 
-1359 
-1179 
-787 
-890 
-1284 
-1243 
-819 
-763 
-1060 
-983 
-417 
-132 
-288 
-248 
230 
368 
-228 
-792 
-736 
-597 
-927 
-1245 
-966 
-578 
-758 
-1130 
-986 
-578 
-690 
-1111 
-1058 
-618 
-602 
-1025 
-1087 
-683 
-569 
-944 
-1113 
-728 
-503 
-843 
-1097 
-779 
-483 
-748 
-1068 
-839 
-471 
-629 
-1000 
-849 
-439 
-536 
-952 
-899 
-448 
-420 
-830 
-892 
-458 
-309 
-658 
-801 
-403 
-172 
-492 
-739 
-419 
-86 
-316 
-634 
-388 
3 
-161 
-530 
-382 
62 
17 
-371 
-346 
78 
113 
-309 
-421 
-31 
68 
-339 
-568 
-242 
-41 
-406 
-729 
-451 
-138 
-432 
-818 
-630 
-259 
-423 
-823 
-717 
-319 
-388 
-793 
-777 
-401 
-392 
-798 
-903 
-511 
-360 
-717 
-927 
-608 
-372 
-701 
-991 
-690 
-362 
-607 
-951 
-777 
-391 
-530 
-929 
-842 
-444 
-480 
-868 
-857 
-473 
-428 
-821 
-961 
-577 
-407 
-770 
-1004 
-654 
-404 
-728 
-1044 
-772 
-417 
-650 
-1021 
-834 
-447 
-572 
-958 
-870 
-471 
-523 
-952 
-969 
-555 
-490 
-871 
-1070 
-694 
-511 
-887 
-1153 
-827 
-551 
-848 
-1184 
-934 
-580 
-768 
-1148 
-988 
-563 
-665 
-1075 
-1058 
-647 
-647 
-1029 
-1082 
-706 
-587 
-965 
-1134 
-775 
-584 
-921 
-1185 
-866 
-592 
-878 
-1208 
-980 
-652 
-853 
-1216 
-1084 
-698 
-826 
-1241 
-1193 
-781 
-765 
-1155 
-1247 
-860 
-736 
-1122 
-1332 
-970 
-760 
-1114 
-1366 
-1040 
-768 
-1063 
-1410 
-1178 
-826 
-1009 
-1393 
-1274 
-874 
-968 
-1381 
-1343 
-947 
-929 
-1326 
-1405 
-1006 
-879 
-1231 
-1438 
-1071 
-827 
-1166 
-1452 
-1123 
-791 
-1078 
-1453 
-1259 
-911 
-1100 
-1505 
-1383 
-948 
-1032 
-1482 
-1491 
-1089 
-1038 
-1431 
-1528 
-1124 
-1005 
-1406 
-1573 
-1174 
-807 
-996 
-1140 
-660 
-119 
-242 
-565 
-488 
-404 
-878 
-1491 
-1500 
-1109 
-1135 
-1529 
-1526 
-1097 
-1029 
-1436 
-1589 
-1203 
-1044 
-1411 
-1628 
-1290 
-1027 
-1341 
-1668 
-1391 
-1027 
-1241 
-1622 
-1465 
-1074 
-1207 
-1573 
-1492 
-1093 
-1122 
-1533 
-1573 
-1170 
-1089 
-1482 
-1618 
-1225 
-1061 
-1453 
-1684 
-1337 
-1075 
-1361 
-1664 
-1388 
-1010 
-1191 
-1532 
-1352 
-942 
-1033 
-1383 
-1302 
-872 
-840 
-1233 
-1262 
-835 
-745 
-1133 
-1263 
-832 
-620 
-994 
-1264 
-959 
-685 
-990 
-1353 
-1151 
-833 
-1088 
-1509 
-1378 
-1029 
-1146 
-1593 
-1589 
-1178 
-1174 
-1604 
-1695 
-1283 
-1185 
-1619 
-1822 
-1466 
-1254 
-1576 
-1846 
-1546 
-1255 
-1538 
-1900 
-1650 
-1290 
-1478 
-1852 
-1724 
-1325 
-1410 
-1790 
-1734 
-1338 
-1320 
-1737 
-1827 
-1407 
-1275 
-1656 
-1851 
-1494 
-1268 
-1592 
-1864 
-1605 
-1296 
-1559 
-1913 
-1708 
-1359 
-1538 
-1934 
-1833 
-1448 
-1511 
-1901 
-1886 
-1475 
-1423 
-1810 
-1937 
-1543 
-1400 
-1779 
-1991 
-1659 
-1423 
-1758 
-2040 
-1757 
-1426 
-1657 
-2017 
-1812 
-1447 
-1623 
-2008 
-1902 
-1489 
-1535 
-1963 
-2021 
-1674 
-1603 
-1953 
-2057 
-1661 
-1482 
-1827 
-2051 
-1690 
-1405 
-1730 
-2046 
-1754 
-1395 
-1619 
-1981 
-1781 
-1408 
-1564 
-1950 
-1832 
-1410 
-1455 
-1881 
-1914 
-1493 
-1419 
-1804 
-1931 
-1552 
-1361 
-1725 
-1954 
-1638 
-1360 
-1644 
-1951 
-1687 
-1355 
-1559 
-1907 
-1697 
-1295 
-1425 
-1813 
-1737 
-1319 
-1330 
-1736 
-1767 
-1343 
-1236 
-1589 
-1733 
-1363 
-1201 
-1582 
-1813 
-1492 
-1223 
-1526 
-1858 
-1622 
-1283 
-1503 
-1858 
-1698 
-1337 
-1457 
-1852 
-1805 
-1368 
-1337 
-1683 
-1646 
-1097 
-821 
-1024 
-993 
-516 
-291 
-743 
-1282 
-1256 
-1146 
-1506 
-1863 
-1618 
-1214 
-1351 
-1721 
-1602 
-1214 
-1287 
-1672 
-1656 
-1237 
-1219 
-1630 
-1693 
-1270 
-1128 
-1536 
-1719 
-1338 
-1075 
-1395 
-1677 
-1369 
-1034 
-1300 
-1646 
-1413 
-1027 
-1186 
-1580 
-1458 
-1039 
-1129 
-1542 
-1531 
-1121 
-1078 
-1459 
-1544 
-1131 
-964 
-1345 
-1540 
-1159 
-896 
-1193 
-1431 
-1109 
-765 
-973 
-1288 
-1047 
-635 
-774 
-1138 
-1016 
-598 
-631 
-1024 
-1016 
-582 
-538 
-957 
-1092 
-735 
-613 
-1030 
-1285 
-975 
-753 
-1080 
-1405 
-1166 
-857 
-1102 
-1475 
-1319 
-921 
-1069 
-1471 
-1379 
-982 
-1053 
-1477 
-1498 
-1072 
-1008 
-1418 
-1550 
-1185 
-1016 
-1353 
-1597 
-1264 
-996 
-1311 
-1629 
-1349 
-989 
-1187 
-1531 
-1390 
-987 
-1113 
-1522 
-1463 
-1044 
-1053 
-1454 
-1482 
-1067 
-953 
-1360 
-1523 
-1136 
-934 
-1273 
-1531 
-1205 
-910 
-1197 
-1510 
-1278 
-952 
-1163 
-1535 
-1383 
-977 
-1070 
-1470 
-1424 
-1017 
-1004 
-1408 
-1475 
-1070 
-970 
-1356 
-1520 
-1141 
-931 
-1281 
-1530 
-1204 
-885 
-1137 
-1487 
-1246 
-873 
-1069 
-1453 
-1315 
-896 
-980 
-1382 
-1352 
-928 
-871 
-1270 
-1334 
-919 
-820 
-1244 
-1436 
-1056 
-830 
-1160 
-1426 
-1112 
-793 
-1050 
-1398 
-1188 
-818 
-1000 
-1391 
-1268 
-842 
-879 
-1294 
-1288 
-866 
-830 
-1244 
-1350 
-943 
-807 
-1177 
-1360 
-991 
-750 
-1073 
-1367 
-1048 
-701 
-934 
-1279 
-1062 
-652 
-821 
-1229 
-1124 
-718 
-800 
-1239 
-1249 
-823 
-766 
-1164 
-1286 
-894 
-734 
-1104 
-1331 
-980 
-681 
-982 
-1284 
-932 
-502 
-629 
-860 
-466 
155 
168 
-185 
-166 
10 
-369 
-1032 
-1183 
-811 
-714 
-1099 
-1215 
-823 
-658 
-1012 
-1240 
-896 
-601 
-889 
-1229 
-954 
-605 
-816 
-1199 
-1047 
-645 
-725 
-1133 
-1084 
-652 
-653 
-1069 
-1094 
-650 
-556 
-945 
-1097 
-709 
-500 
-828 
-1069 
-749 
-462 
-728 
-1042 
-791 
-406 
-584 
-956 
-799 
-377 
-457 
-875 
-815 
-367 
-351 
-719 
-746 
-317 
-180 
-549 
-706 
-325 
-67 
-370 
-623 
-291 
20 
-231 
-566 
-362 
-13 
-206 
-637 
-565 
-191 
-309 
-755 
-766 
-382 
-382 
-808 
-906 
-509 
-374 
-756 
-980 
-647 
-413 
-728 
-1001 
-707 
-414 
-685 
-1028 
-816 
-439 
-607 
-995 
-879 
-487 
-563 
-968 
-971 
-543 
-491 
-902 
-1003 
-601 
-445 
-807 
-1010 
-681 
-448 
-771 
-1068 
-785 
-450 
-682 
-1020 
-843 
-442 
-573 
-966 
-878 
-461 
-521 
-948 
-971 
-536 
-456 
-855 
-1014 
-639 
-465 
-817 
-1018 
-679 
-406 
-722 
-1049 
-760 
-400 
-637 
-1024 
-839 
-453 
-573 
-972 
-892 
-469 
-513 
-925 
-953 
-529 
-436 
-851 
-983 
-579 
-379 
-749 
-980 
-638 
-359 
-649 
-954 
-700 
-356 
-587 
-963 
-792 
-407 
-530 
-948 
-891 
-481 
-474 
-866 
-915 
-506 
-404 
-795 
-968 
-574 
-356 
-694 
-967 
-621 
-314 
-602 
-957 
-719 
-360 
-560 
-938 
-775 
-370 
-474 
-876 
-833 
-417 
-402 
-821 
-886 
-472 
-344 
-702 
-843 
-438 
-204 
-537 
-809 
-481 
-163 
-411 
-766 
-535 
-162 
-346 
-730 
-606 
-185 
-274 
-706 
-687 
-253 
-222 
-677 
-802 
-393 
-263 
-655 
-812 
-381 
-53 
-248 
-349 
174 
721 
576 
234 
330 
413 
-101 
-696 
-638 
-230 
-252 
-661 
-611 
-176 
-133 
-559 
-661 
-260 
-113 
-501 
-706 
-346 
-73 
-398 
-705 
-414 
-85 
-360 
-719 
-501 
-97 
-244 
-657 
-559 
-122 
-164 
-576 
-583 
-154 
-83 
-494 
-616 
-200 
-20 
-393 
-626 
-257 
18 
-298 
-624 
-335 
40 
-218 
-608 
-447 
-51 
-163 
-543 
-401 
56 
50 
-336 
-318 
154 
309 
-50 
-173 
272 
491 
163 
-70 
272 
547 
238 
-126 
105 
416 
151 
-281 
-146 
235 
113 
-311 
-281 
126 
98 
-342 
-400 
25 
142 
-259 
-430 
-57 
149 
-212 
-468 
-143 
155 
-140 
-486 
-240 
129 
-77 
-470 
-303 
98 
-5 
-423 
-377 
50 
66 
-375 
-460 
-26 
123 
-284 
-490 
-100 
140 
-181 
-467 
-147 
169 
-100 
-466 
-225 
132 
-57 
-455 
-321 
93 
1 
-432 
-416 
8 
49 
-373 
-468 
-35 
105 
-299 
-526 
-147 
96 
-241 
-543 
-234 
101 
-160 
-533 
-317 
78 
-78 
-477 
-334 
116 
66 
-329 
-365 
57 
124 
-296 
-402 
40 
199 
-162 
-373 
-27 
237 
-91 
-416 
-124 
200 
-38 
-404 
-204 
184 
40 
-371 
-280 
143 
128 
-292 
-323 
99 
166 
-238 
-362 
37 
229 
-140 
-377 
-16 
268 
-44 
-370 
-73 
306 
84 
-293 
-111 
275 
166 
-236 
-171 
256 
259 
-116 
-130 
288 
382 
2 
-156 
232 
427 
51 
-221 
84 
391 
103 
-232 
33 
387 
173 
-197 
-26 
375 
280 
-135 
-78 
376 
422 
41 
51 
594 
859 
646 
666 
1164 
1397 
928 
378 
393 
512 
152 
-243 
29 
453 
273 
-102 
53 
454 
392 
-19 
13 
473 
509 
101 
32 
466 
613 
227 
28 
411 
672 
341 
43 
345 
686 
443 
82 
315 
731 
558 
135 
246 
684 
651 
234 
250 
677 
731 
332 
232 
681 
869 
500 
313 
697 
981 
682 
409 
738 
1100 
882 
541 
762 
1187 
1074 
679 
790 
1218 
1191 
777 
784 
1233 
1314 
878 
712 
1090 
1226 
829 
557 
857 
1071 
742 
403 
655 
978 
742 
364 
547 
946 
791 
349 
422 
845 
808 
365 
328 
757 
853 
421 
222 
598 
781 
419 
193 
538 
835 
537 
204 
456 
822 
618 
228 
415 
841 
751 
351 
434 
891 
906 
477 
427 
867 
1001 
614 
449 
818 
1031 
672 
389 
691 
1016 
761 
414 
638 
1009 
811 
409 
571 
997 
913 
509 
517 
948 
973 
551 
465 
887 
1015 
621 
454 
850 
1100 
734 
437 
769 
1091 
816 
452 
677 
1073 
911 
504 
631 
1052 
971 
528 
555 
995 
1021 
608 
541 
965 
1087 
695 
485 
842 
1097 
786 
474 
754 
1096 
857 
470 
689 
1092 
947 
551 
668 
1072 
1011 
586 
583 
1028 
1101 
673 
544 
941 
1126 
752 
536 
891 
1154 
823 
505 
799 
1143 
915 
553 
758 
1151 
998 
588 
679 
1126 
1130 
709 
657 
1088 
1185 
783 
651 
1054 
1262 
901 
643 
993 
1282 
952 
579 
843 
1191 
948 
559 
730 
1139 
1027 
599 
650 
1075 
1066 
641 
601 
1055 
1188 
835 
744 
1235 
1576 
1415 
1367 
1866 
2239 
1871 
1315 
1264 
1391 
1072 
621 
786 
1250 
1154 
710 
749 
1187 
1180 
733 
663 
1095 
1208 
826 
661 
1050 
1278 
920 
656 
986 
1293 
1020 
662 
901 
1302 
1127 
706 
867 
1302 
1224 
814 
847 
1284 
1285 
857 
762 
1187 
1328 
957 
779 
1163 
1419 
1102 
840 
1171 
1519 
1272 
950 
1218 
1627 
1470 
1073 
1216 
1655 
1603 
1191 
1212 
1673 
1752 
1346 
1249 
1676 
1843 
1427 
1179 
1517 
1750 
1391 
1056 
1323 
1633 
1353 
957 
1132 
1508 
1339 
908 
1006 
1416 
1366 
941 
913 
1323 
1393 
973 
828 
1205 
1377 
972 
706 
1059 
1364 
1021 
695 
971 
1324 
1074 
678 
858 
1279 
1172 
754 
806 
1242 
1233 
799 
771 
1202 
1293 
897 
743 
1163 
1390 
1004 
757 
1096 
1376 
1080 
754 
1004 
1369 
1170 
775 
934 
1332 
1236 
814 
864 
1284 
1278 
866 
782 
1215 
1347 
978 
774 
1128 
1356 
1001 
731 
1066 
1399 
1118 
765 
1003 
1393 
1225 
851 
1004 
1423 
1346 
929 
959 
1406 
1443 
1030 
937 
1354 
1471 
1051 
852 
1245 
1479 
1127 
844 
1153 
1489 
1240 
872 
1106 
1489 
1298 
906 
1053 
1502 
1449 
1015 
1050 
1491 
1519 
1082 
967 
1395 
1568 
1161 
921 
1286 
1538 
1189 
864 
1160 
1515 
1275 
889 
1109 
1487 
1353 
968 
1063 
1493 
1485 
1088 
1097 
1547 
1620 
1208 
1085 
1473 
1638 
1249 
1005 
1346 
1618 
1295 
962 
1236 
1586 
1373 
981 
1135 
1528 
1393 
1002 
1132 
1632 
1728 
1462 
1608 
2259 
2477 
2088 
1839 
1968 
1844 
1248 
893 
1203 
1516 
1262 
959 
1223 
1582 
1379 
996 
1171 
1586 
1471 
1037 
1083 
1489 
1481 
1048 
996 
1425 
1522 
1119 
954 
1343 
1553 
1203 
960 
1273 
1589 
1301 
949 
1222 
1612 
1425 
1045 
1184 
1582 
1470 
1038 
1101 
1573 
1549 
1106 
1015 
1450 
1600 
1201 
1006 
1425 
1698 
1363 
1089 
1427 
1781 
1523 
1195 
1460 
1872 
1710 
1328 
1483 
1879 
1806 
1349 
1331 
1762 
1762 
1299 
1122 
1487 
1603 
1151 
900 
1223 
1434 
1080 
767 
1059 
1376 
1114 
721 
891 
1266 
1103 
673 
748 
1155 
1089 
662 
646 
1054 
1094 
643 
499 
881 
1043 
647 
395 
749 
1016 
683 
378 
667 
1032 
783 
377 
547 
952 
821 
397 
470 
896 
862 
432 
392 
811 
900 
482 
331 
724 
914 
534 
314 
670 
931 
645 
326 
586 
947 
716 
316 
481 
871 
743 
341 
389 
779 
760 
322 
269 
693 
792 
385 
222 
622 
865 
508 
238 
545 
830 
556 
228 
490 
853 
647 
236 
374 
790 
687 
270 
306 
750 
753 
322 
243 
655 
781 
385 
193 
569 
789 
427 
140 
436 
758 
515 
153 
373 
744 
570 
169 
281 
703 
623 
212 
230 
654 
680 
276 
194 
612 
755 
324 
99 
463 
696 
361 
76 
389 
726 
437 
61 
271 
632 
461 
52 
187 
627 
586 
229 
335 
890 
1089 
860 
899 
1386 
1507 
929 
417 
533 
656 
288 
-18 
321 
695 
453 
92 
290 
696 
548 
133 
221 
648 
617 
168 
124 
547 
611 
190 
41 
440 
647 
280 
35 
401 
679 
358 
24 
300 
683 
470 
75 
238 
667 
532 
118 
203 
660 
649 
219 
173 
619 
737 
351 
212 
613 
834 
507 
285 
639 
960 
696 
377 
667 
1056 
881 
483 
647 
1100 
1022 
601 
642 
1056 
1054 
608 
525 
910 
979 
538 
325 
646 
819 
428 
118 
418 
693 
375 
7 
229 
610 
394 
-49 
59 
489 
400 
-61 
-35 
394 
413 
-46 
-160 
267 
418 
35 
-167 
187 
436 
98 
-198 
126 
457 
181 
-185 
51 
447 
276 
-124 
-5 
415 
358 
-64 
-65 
347 
387 
-28 
-131 
278 
444 
65 
-163 
216 
479 
146 
-146 
155 
506 
262 
-112 
95 
510 
370 
-28 
56 
479 
438 
-15 
-52 
368 
452 
57 
-75 
320 
498 
99 
-136 
230 
513 
207 
-114 
141 
498 
294 
-78 
105 
517 
357 
-82 
-26 
399 
353 
-91 
-142 
277 
384 
-35 
-207 
172 
375 
14 
-226 
136 
390 
91 
-242 
17 
403 
202 
-193 
-57 
342 
252 
-155 
-116 
282 
275 
-156 
-223 
178 
278 
-105 
-264 
118 
342 
-29 
-325 
10 
321 
51 
-293 
-39 
338 
141 
-240 
-87 
355 
283 
-167 
-144 
291 
321 
-129 
-240 
148 
286 
-80 
-285 
73 
324 
0 
-299 
2 
320 
55 
-306 
-93 
305 
167 
-181 
32 
571 
655 
420 
606 
1148 
1194 
636 
263 
360 
300 
-173 
-402 
-4 
296 
3 
-282 
-3 
331 
78 
-290 
-82 
313 
159 
-263 
-169 
258 
230 
-201 
-217 
192 
234 
-175 
-293 
121 
320 
-45 
-282 
68 
342 
31 
-282 
10 
371 
135 
-242 
-55 
344 
225 
-183 
-100 
344 
326 
-103 
-134 
306 
413 
14 
-121 
304 
505 
169 
-63 
288 
616 
335 
6 
279 
680 
493 
107 
239 
654 
554 
113 
118 
527 
486 
-6 
-114 
240 
308 
-120 
-357 
-46 
148 
-208 
-484 
-199 
98 
-199 
-560 
-335 
28 
-179 
-620 
-486 
-67 
-134 
-577 
-571 
-125 
-136 
-568 
-655 
-229 
-110 
-500 
-699 
-325 
-76 
-391 
-689 
-391 
-58 
-314 
-663 
-437 
-44 
-210 
-630 
-498 
-57 
-114 
-572 
-573 
-139 
-126 
-547 
-650 
-236 
-59 
-433 
-637 
-274 
-9 
-338 
-673 
-390 
-49 
-299 
-607 
1106 
2434 
1796 
1049 
917 
1186 
999 
447 
320 
667 
661 
185 
6 
369 
509 
87 
-194 
123 
382 
56 
-316 
-60 
271 
43 
-325 
-167 
192 
63 
-391 
-327 
105 
84 
-358 
-410 
5 
98 
-309 
-470 
-92 
94 
-286 
-544 
-220 
59 
-260 
-603 
-358 
-6 
-199 
-603 
-464 
-73 
-194 
-623 
-588 
-163 
-154 
-594 
-667 
-253 
-146 
-548 
-733 
-374 
-170 
-520 
-790 
-466 
-168 
-451 
-814 
-602 
-257 
-432 
-841 
-745 
-355 
-447 
-866 
-839 
-430 
-410 
-816 
-904 
-477 
-334 
-732 
-916 
-533 
-282 
-615 
-938 
-629 
-318 
-622 
-995 
-782 
-386 
-581 
-1010 
-917 
-505 
-562 
-989 
-991 
-568 
-533 
-963 
-1083 
-667 
-446 
-762 
-882 
-436 
-34 
-186 
-391 
-77 
161 
-356 
-1040 
-1078 
-798 
-955 
-1342 
-1237 
-794 
-825 
-1279 
-1332 
-915 
-828 
-1258 
-1402 
-1012 
-830 
-1191 
-1432 
-1094 
-800 
-1104 
-1454 
-1211 
-852 
-1054 
-1456 
-1285 
-858 
-969 
-1407 
-1347 
-927 
-953 
-1379 
-1404 
-969 
-858 
-1263 
-1421 
-1034 
-833 
-1201 
-1456 
-1117 
-808 
-1079 
-1404 
-1165 
-800 
-985 
-1377 
-1217 
-764 
-825 
-1243 
-1210 
-760 
-736 
-1152 
-1201 
-756 
-639 
-1039 
-1229 
-851 
-1645 
-3558 
-3509 
-2855 
-2319 
-2447 
-2721 
-2419 
-1985 
-2133 
-2523 
-2379 
-1949 
-2009 
-2412 
-2376 
-1928 
-1893 
-2290 
-2399 
-1986 
-1809 
-2176 
-2385 
-2021 
-1774 
-2101 
-2379 
-2060 
-1710 
-1963 
-2311 
-2080 
-1694 
-1835 
-2223 
-2119 
-1688 
-1757 
-2193 
-2204 
-1750 
-1655 
-2070 
-2204 
-1789 
-1637 
-2017 
-2233 
-1856 
-1615 
-1926 
-2227 
-1937 
-1572 
-1801 
-2196 
-2003 
-1588 
-1713 
-2122 
-2017 
-1597 
-1492 
-268 
423 
353 
114 
-510 
-857 
-592 
-502 
-940 
-1260 
-969 
-707 
-1072 
-1452 
-1197 
-871 
-1133 
-1557 
-1435 
-1041 
-1158 
-1575 
-1543 
-1143 
-1167 
-1609 
-1674 
-1251 
-1156 
-1560 
-1736 
-1368 
-1147 
-1487 
-1770 
-1451 
-1147 
-1462 
-1819 
-1556 
-1177 
-1394 
-1813 
-1661 
-1245 
-1343 
-1774 
-1745 
-1303 
-1288 
-1728 
-1813 
-1405 
-1296 
-1678 
-1859 
-1497 
-1273 
-1609 
-1885 
-1553 
-1236 
-1525 
-1882 
-1661 
-1271 
-1462 
-1893 
-1783 
-1350 
-1419 
-1843 
-1827 
-1399 
-1358 
-1777 
-1878 
-1466 
-1307 
-1693 
-1894 
-1499 
-1237 
-1573 
-1885 
-1566 
-1218 
-1497 
-1888 
-1687 
-1296 
-1475 
-1912 
-1826 
-1405 
-1451 
-1886 
-1906 
-1481 
-1426 
-1864 
-2003 
-1585 
-1386 
-1717 
-1897 
-1444 
-1029 
-1210 
-1350 
-888 
-437 
-688 
-1231 
-1322 
-1186 
-1496 
-1971 
-1912 
-1450 
-1435 
-1848 
-1881 
-1456 
-1376 
-1824 
-1976 
-1587 
-1427 
-1827 
-2069 
-1706 
-1428 
-1723 
-2027 
-1750 
-1373 
-1575 
-1958 
-1790 
-1362 
-1455 
-1869 
-1814 
-1370 
-1346 
-1749 
-1803 
-1365 
-1229 
-1631 
-1797 
-1375 
-1123 
-1464 
-1723 
-1392 
-1097 
-1383 
-1721 
-1462 
-1078 
-1252 
-1618 
-1457 
-1002 
-1080 
-1490 
-1441 
-983 
-943 
-1364 
-1426 
-969 
-820 
-1233 
-1422 
-1015 
-918 
-2974 
-4012 
-3231 
-2624 
-2712 
-2933 
-2604 
-2149 
-2273 
-2642 
-2491 
-2035 
-2077 
-2485 
-2458 
-2002 
-1942 
-2355 
-2447 
-2001 
-1825 
-2215 
-2419 
-2032 
-1790 
-2126 
-2417 
-2100 
-1765 
-2022 
-2400 
-2207 
-1816 
-1973 
-2377 
-2262 
-1813 
-1834 
-2246 
-2273 
-1837 
-1733 
-2141 
-2262 
-1846 
-1662 
-2027 
-2263 
-1916 
-1638 
-1949 
-2255 
-1983 
-1636 
-1863 
-2269 
-2093 
-1692 
-1652 
-311 
311 
247 
-68 
-706 
-935 
-651 
-656 
-1125 
-1336 
-1001 
-867 
-1267 
-1566 
-1249 
-966 
-1264 
-1601 
-1385 
-1034 
-1247 
-1656 
-1504 
-1104 
-1225 
-1635 
-1601 
-1182 
-1164 
-1597 
-1670 
-1245 
-1148 
-1568 
-1758 
-1381 
-1160 
-1491 
-1773 
-1491 
-1195 
-1471 
-1808 
-1587 
-1239 
-1450 
-1831 
-1680 
-1257 
-1348 
-1767 
-1739 
-1323 
-1295 
-1720 
-1826 
-1384 
-1240 
-1633 
-1806 
-1449 
-1208 
-1528 
-1825 
-1529 
-1211 
-1453 
-1824 
-1601 
-1194 
-1333 
-1738 
-1651 
-1232 
-1297 
-1713 
-1700 
-1284 
-1232 
-1630 
-1725 
-1328 
-1185 
-1545 
-1755 
-1392 
-1113 
-1423 
-1693 
-1377 
-1046 
-1257 
-1663 
-1519 
-1142 
-1283 
-1699 
-1619 
-1185 
-1210 
-1642 
-1691 
-1274 
-1211 
-1615 
-1764 
-1391 
-1204 
-1525 
-1714 
-1303 
-900 
-1036 
-1171 
-714 
-230 
-418 
-915 
-1017 
-935 
-1273 
-1760 
-1715 
-1292 
-1293 
-1697 
-1761 
-1348 
-1242 
-1636 
-1817 
-1449 
-1237 
-1587 
-1822 
-1491 
-1222 
-1501 
-1793 
-1551 
-1208 
-1391 
-1773 
-1628 
-1204 
-1290 
-1717 
-1687 
-1254 
-1243 
-1636 
-1719 
-1307 
-1172 
-1553 
-1736 
-1363 
-1114 
-1424 
-1679 
-1356 
-1034 
-1264 
-1570 
-1330 
-944 
-1108 
-1478 
-1328 
-884 
-953 
-1331 
-1294 
-849 
-787 
-1188 
-1276 
-866 
-716 
-1073 
-1283 
-2136 
-3201 
-3093 
-3031 
-2507 
-2044 
-2179 
-2471 
-2227 
-1802 
-1899 
-2264 
-2200 
-1793 
-1824 
-2213 
-2190 
-1780 
-1742 
-2130 
-2244 
-1848 
-1659 
-2039 
-2271 
-1917 
-1652 
-1953 
-2244 
-1950 
-1621 
-1842 
-2196 
-2024 
-1611 
-1712 
-2111 
-2012 
-1577 
-1590 
-1986 
-2001 
-1616 
-1529 
-1913 
-2037 
-1643 
-1428 
-1782 
-2042 
-1687 
-1395 
-1672 
-1975 
-1715 
-1357 
-1574 
-1946 
-1782 
-1375 
-427 
653 
324 
363 
96 
-512 
-709 
-388 
-390 
-837 
-1051 
-751 
-603 
-1003 
-1289 
-1013 
-782 
-1119 
-1501 
-1291 
-942 
-1133 
-1524 
-1407 
-1014 
-1113 
-1514 
-1462 
-1049 
-1031 
-1422 
-1516 
-1111 
-988 
-1374 
-1561 
-1200 
-961 
-1278 
-1557 
-1257 
-958 
-1212 
-1556 
-1347 
-988 
-1155 
-1537 
-1437 
-1051 
-1113 
-1528 
-1533 
-1104 
-1070 
-1476 
-1581 
-1181 
-1025 
-1403 
-1619 
-1258 
-1003 
-1333 
-1660 
-1366 
-1035 
-1271 
-1619 
-1408 
-1062 
-1227 
-1602 
-1497 
-1096 
-1092 
-1517 
-1572 
-1130 
-1067 
-1465 
-1559 
-1151 
-968 
-1330 
-1561 
-1235 
-997 
-1335 
-1681 
-1427 
-1082 
-1297 
-1666 
-1512 
-1133 
-1290 
-1694 
-1610 
-1217 
-1259 
-1654 
-1670 
-1250 
-1133 
-1454 
-1479 
-972 
-627 
-776 
-882 
-508 
-287 
-793 
-1423 
-1424 
-1197 
-1437 
-1798 
-1600 
-1170 
-1264 
-1671 
-1626 
-1236 
-1244 
-1660 
-1721 
-1309 
-1222 
-1619 
-1798 
-1435 
-1229 
-1573 
-1849 
-1498 
-1192 
-1484 
-1817 
-1579 
-1234 
-1511 
-1977 
-1834 
-1395 
-1474 
-1897 
-1819 
-1369 
-1326 
-1745 
-1793 
-1348 
-1199 
-1586 
-1778 
-1393 
-1159 
-1504 
-1776 
-1441 
-1119 
-1376 
-1709 
-1451 
-1063 
-1234 
-1614 
-1469 
-1042 
-1116 
-1535 
-1543 
-1473 
-3284 
-3823 
-3449 
-2738 
-2391 
-2645 
-2767 
-2344 
-2084 
-2408 
-2695 
-2405 
-2085 
-2354 
-2724 
-2525 
-2141 
-2313 
-2727 
-2602 
-2174 
-2238 
-2673 
-2688 
-2267 
-2218 
-2641 
-2756 
-2348 
-2175 
-2550 
-2761 
-2389 
-2128 
-2444 
-2769 
-2476 
-2125 
-2354 
-2733 
-2526 
-2119 
-2252 
-2663 
-2565 
-2117 
-2143 
-2554 
-2568 
-2136 
-2037 
-2429 
-2566 
-2174 
-1991 
-2354 
-2601 
-2254 
-1958 
-2269 
-2597 
-2307 
-1939 
-2146 
-2537 
-1647 
564 
236 
-616 
-850 
-615 
-786 
-1365 
-1538 
-1201 
-1175 
-1666 
-1915 
-1551 
-1337 
-1738 
-2052 
-1736 
-1443 
-1766 
-2147 
-1904 
-1533 
-1736 
-2181 
-2041 
-1646 
-1790 
-2236 
-2201 
-1772 
-1785 
-2238 
-2316 
-1881 
-1764 
-2203 
-2434 
-2038 
-1811 
-2198 
-2504 
-2174 
-1839 
-2130 
-2506 
-2286 
-1901 
-2091 
-2508 
-2380 
-1947 
-2024 
-2472 
-2453 
-2005 
-1967 
-2425 
-2537 
-2084 
-1916 
-2310 
-2520 
-2106 
-1834 
-2205 
-2518 
-2190 
-1849 
-2125 
-2542 
-2348 
-1942 
-2114 
-2554 
-2467 
-2020 
-2073 
-2523 
-2523 
-2071 
-2022 
-2503 
-2649 
-2220 
-2032 
-2389 
-2553 
-2083 
-1677 
-1863 
-2015 
-1535 
-1075 
-1352 
-1944 
-2048 
-1865 
-2137 
-2635 
-2543 
-2030 
-2005 
-2421 
-2473 
-2032 
-1968 
-2404 
-2589 
-2168 
-1975 
-2391 
-2634 
-2280 
-1997 
-2348 
-2706 
-2413 
-2053 
-2317 
-2764 
-2700 
-2429 
-2654 
-3128 
-2981 
-2449 
-2468 
-3019 
-3200 
-2749 
-2583 
-2959 
-3078 
-2623 
-2387 
-2756 
-3022 
-2617 
-2236 
-2490 
-2793 
-2461 
-1996 
-2146 
-2525 
-2290 
-1788 
-1836 
-2263 
-2182 
-1668 
-1641 
-2083 
-2149 
-1694 
-1571 
-2002 
-2197 
-1808 
-1580 
-1979 
-2850 
-4402 
-4029 
-3963 
-4117 
-3720 
-3195 
-3280 
-3650 
-3446 
-2920 
-2973 
-3425 
-3392 
-2910 
-2850 
-3301 
-3396 
-2934 
-2746 
-3127 
-3310 
-2877 
-2585 
-2923 
-3220 
-2889 
-2510 
-2774 
-3161 
-2915 
-2494 
-2660 
-3106 
-2989 
-2558 
-2635 
-3108 
-3140 
-2696 
-2647 
-3090 
-3200 
-2775 
-2627 
-3063 
-3309 
-2899 
-2596 
-2961 
-3304 
-2988 
-2601 
-2891 
-3322 
-3100 
-2639 
-2791 
-3134 
-1439 
-149 
-661 
-1449 
-1690 
-1346 
-1381 
-1927 
-2141 
-1745 
-1584 
-2044 
-2343 
-1990 
-1689 
-2039 
-2414 
-2128 
-1705 
-1946 
-2385 
-2183 
-1714 
-1819 
-2256 
-2175 
-1660 
-1631 
-2059 
-2085 
-1572 
-1414 
-1801 
-1918 
-1432 
-1140 
-1463 
-1693 
-1275 
-908 
-1172 
-1504 
-1193 
-736 
-914 
-1312 
-1155 
-734 
-867 
-1351 
-1311 
-862 
-869 
-1357 
-1471 
-1054 
-943 
-1405 
-1649 
-1297 
-1080 
-1477 
-1791 
-1509 
-1204 
-1508 
-1925 
-1691 
-1317 
-1542 
-1976 
-1857 
-1438 
-1516 
-1929 
-1933 
-1521 
-1501 
-1941 
-2057 
-1651 
-1504 
-1883 
-2073 
-1698 
-1450 
-1800 
-2078 
-1741 
-1422 
-1698 
-2061 
-1839 
-1435 
-1544 
-1844 
-1639 
-1097 
-985 
-1146 
-969 
-494 
-462 
-1010 
-1416 
-1305 
-1307 
-1682 
-1873 
-1558 
-1316 
-1603 
-1897 
-1677 
-1399 
-1642 
-2007 
-1892 
-1590 
-1727 
-2042 
-1979 
-1635 
-1648 
-1945 
-1910 
-1524 
-1443 
-1702 
-1750 
-1374 
-1145 
-1331 
-1388 
-1025 
-789 
-967 
-1117 
-882 
-624 
-799 
-1060 
-939 
-640 
-724 
-988 
-947 
-664 
-707 
-1016 
-1062 
-809 
-785 
-1108 
-1289 
-1103 
-1098 
-1493 
-1815 
-1720 
-1685 
-2034 
-2393 
-2322 
-3298 
-4891 
-4789 
-4317 
-3771 
-3691 
-3833 
-3694 
-3297 
-3226 
-3474 
-3470 
-3135 
-3020 
-3271 
-3388 
-3121 
-2956 
-3192 
-3389 
-3208 
-3024 
-3243 
-3503 
-3313 
-3038 
-3178 
-3456 
-3375 
-3064 
-3146 
-3481 
-3482 
-3174 
-3166 
-3470 
-3556 
-3233 
-3097 
-3382 
-3531 
-3260 
-3073 
-3307 
-3525 
-3298 
-3040 
-3248 
-3587 
-3463 
-3140 
-3276 
-3612 
-3565 
-3265 
-3365 
-3735 
-3703 
-3250 
-3134 
-3462 
-3571 
-3186 
-2871 
-1507 
-935 
-1032 
-1063 
-1503 
-1926 
-1847 
-1621 
-1899 
-2311 
-2236 
-1921 
-2080 
-2508 
-2517 
-2131 
-2164 
-2611 
-2695 
-2303 
-2209 
-2592 
-2747 
-2400 
-2221 
-2577 
-2855 
-2530 
-2222 
-2498 
-2816 
-2577 
-2210 
-2381 
-2721 
-2613 
-2227 
-2319 
-2713 
-2677 
-2293 
-2314 
-2716 
-2809 
-2451 
-2363 
-2749 
-3024 
-2790 
-2686 
-3072 
-3337 
-2983 
-2629 
-2837 
-3103 
-2823 
-2442 
-2569 
-2926 
-2775 
-2329 
-2365 
-2687 
-2569 
-2073 
-1928 
-2191 
-2144 
-1565 
-1199 
-1294 
-1361 
-996 
-853 
-1405 
-2013 
-1960 
-1742 
-2000 
-2308 
-2080 
-1713 
-1861 
-2260 
-2198 
-1847 
-1921 
-2313 
-2335 
-1975 
-1939 
-2280 
-2381 
-2059 
-1935 
-2232 
-2406 
-2088 
-1849 
-2135 
-2390 
-2154 
-1874 
-2093 
-2392 
-2264 
-1960 
-2085 
-2402 
-2323 
-1972 
-2003 
-2337 
-2358 
-2015 
-1978 
-2298 
-2409 
-2112 
-1973 
-2239 
-2412 
-2125 
-1878 
-2104 
-2317 
-2064 
-1733 
-1901 
-2171 
-1998 
-1655 
-1738 
-2047 
-2002 
-1663 
-1665 
-2013 
-2072 
-1754 
-2335 
-4505 
-4525 
-3840 
-3433 
-3564 
-3669 
-3304 
-3001 
-3218 
-3473 
-3235 
-2926 
-3076 
-3359 
-3215 
-2856 
-2929 
-3267 
-3232 
-2862 
-2837 
-3175 
-3234 
-2877 
-2753 
-3061 
-3201 
-2858 
-2657 
-2942 
-3163 
-2886 
-2611 
-2821 
-3092 
-2864 
-2532 
-2702 
-3041 
-2917 
-2548 
-2607 
-2940 
-2931 
-2579 
-2548 
-2882 
-2959 
-2594 
-2468 
-2778 
-2926 
-2587 
-2365 
-2654 
-2884 
-2590 
-2279 
-2490 
-2786 
-1812 
256 
-114 
-850 
-1006 
-833 
-1033 
-1498 
-1583 
-1272 
-1299 
-1707 
-1876 
-1600 
-1519 
-1865 
-2095 
-1843 
-1681 
-2016 
-2318 
-2104 
-1843 
-2077 
-2405 
-2260 
-1936 
-2065 
-2446 
-2398 
-2068 
-2121 
-2499 
-2545 
-2189 
-2117 
-2478 
-2620 
-2264 
-2087 
-2410 
-2590 
-2270 
-2025 
-2307 
-2602 
-2361 
-2008 
-2192 
-2513 
-2354 
-1994 
-2098 
-2454 
-2388 
-2010 
-2031 
-2381 
-2418 
-2073 
-1993 
-2341 
-2478 
-2125 
-1952 
-2275 
-2498 
-2192 
-1939 
-2197 
-2492 
-2274 
-1943 
-2096 
-2377 
-2149 
-1649 
-1577 
-1761 
-1523 
-1025 
-1025 
-1547 
-1896 
-1829 
-1920 
-2333 
-2502 
-2164 
-1952 
-2223 
-2480 
-2225 
-1975 
-2228 
-2521 
-2324 
-2011 
-2190 
-2530 
-2402 
-2047 
-2108 
-2453 
-2434 
-2080 
-2069 
-2397 
-2456 
-2085 
-1959 
-2340 
-2497 
-2190 
-2000 
-2268 
-2503 
-2245 
-1971 
-2187 
-2471 
-2280 
-1978 
-2151 
-2468 
-2341 
-1995 
-2043 
-2374 
-2350 
-1986 
-1935 
-2225 
-2308 
-1978 
-1831 
-2103 
-2241 
-1951 
-1771 
-2020 
-2241 
-1992 
-1702 
-1900 
-2184 
-2000 
-1678 
-1839 
-2201 
-2151 
-1863 
-1947 
-2327 
-2402 
-2294 
-4044 
-4936 
-4635 
-4033 
-3690 
-3871 
-3992 
-3632 
-3327 
-3540 
-3745 
-3482 
-3163 
-3337 
-3606 
-3440 
-3109 
-3179 
-3485 
-3391 
-3021 
-3006 
-3323 
-3340 
-2961 
-2874 
-3206 
-3310 
-2963 
-2777 
-3044 
-3221 
-2946 
-2698 
-2941 
-3202 
-2978 
-2689 
-2854 
-3154 
-3025 
-2688 
-2795 
-3146 
-3108 
-2775 
-2772 
-3109 
-3159 
-2788 
-2679 
-2990 
-3107 
-2755 
-2555 
-2846 
-3089 
-2822 
-2136 
-506 
-728 
-955 
-932 
-1296 
-1775 
-1794 
-1567 
-1723 
-2151 
-2175 
-1867 
-1922 
-2295 
-2390 
-2105 
-2051 
-2373 
-2571 
-2293 
-2130 
-2426 
-2686 
-2450 
-2194 
-2416 
-2711 
-2559 
-2262 
-2400 
-2746 
-2689 
-2350 
-2414 
-2751 
-2784 
-2470 
-2443 
-2772 
-2862 
-2533 
-2389 
-2704 
-2888 
-2624 
-2414 
-2613 
-2845 
-2688 
-2445 
-2562 
-2820 
-2746 
-2486 
-2545 
-2817 
-2784 
-2498 
-2527 
-2815 
-2827 
-2502 
-2440 
-2741 
-2844 
-2538 
-2423 
-2729 
-2907 
-2639 
-2427 
-2678 
-2948 
-2752 
-2474 
-2646 
-2951 
-2797 
-2482 
-2612 
-2942 
-2915 
-2580 
-2535 
-2759 
-2692 
-2248 
-2017 
-2125 
-2076 
-1727 
-1630 
-2096 
-2590 
-2570 
-2482 
-2772 
-3017 
-2780 
-2449 
-2610 
-2926 
-2810 
-2488 
-2572 
-2889 
-2842 
-2495 
-2479 
-2792 
-2833 
-2479 
-2395 
-2684 
-2827 
-2532 
-2368 
-2623 
-2811 
-2549 
-2342 
-2567 
-2837 
-2666 
-2355 
-2487 
-2796 
-2702 
-2385 
-2447 
-2754 
-2748 
-2425 
-2364 
-2678 
-2757 
-2428 
-2305 
-2565 
-2717 
-2416 
-2205 
-2439 
-2650 
-2392 
-2114 
-2296 
-2542 
-2358 
-2035 
-2147 
-2441 
-2335 
-2001 
-2047 
-2351 
-2320 
-1965 
-1985 
-2325 
-2413 
-2130 
-2088 
-2446 
-2688 
-3675 
-4814 
-4714 
-4650 
-4197 
-3787 
-3895 
-4082 
-3829 
-3463 
-3537 
-3808 
-3687 
-3325 
-3337 
-3647 
-3619 
-3269 
-3214 
-3504 
-3576 
-3224 
-3057 
-3328 
-3509 
-3216 
-2980 
-3202 
-3452 
-3229 
-2925 
-3116 
-3401 
-3225 
-2872 
-2974 
-3291 
-3220 
-2864 
-2875 
-3209 
-3225 
-2848 
-2785 
-3123 
-3224 
-2896 
-2744 
-3045 
-3241 
-2966 
-2719 
-2948 
-3192 
-2963 
-2655 
-2846 
-3155 
-2996 
-2685 
-2789 
-3102 
-3040 
-2180 
-313 
-675 
-1117 
-1043 
-1153 
-1648 
-1910 
-1660 
-1580 
-1978 
-2258 
-2027 
-1837 
-2149 
-2470 
-2294 
-2017 
-2226 
-2574 
-2459 
-2115 
-2221 
-2604 
-2589 
-2236 
-2228 
-2583 
-2652 
-2299 
-2209 
-2553 
-2704 
-2395 
-2238 
-2519 
-2733 
-2510 
-2262 
-2490 
-2745 
-2575 
-2296 
-2446 
-2747 
-2660 
-2356 
-2405 
-2697 
-2723 
-2422 
-2364 
-2569 
-2687 
-2549 
-2452 
-2570 
-2691 
-2570 
-2494 
-2617 
-2727 
-2643 
-2523 
-2619 
-2759 
-2770 
-2787 
-2946 
-3158 
-3136 
-2890 
-2840 
-3032 
-3126 
-2965 
-2880 
-3024 
-3088 
-2954 
-2929 
-3170 
-3310 
-3084 
-2879 
-3010 
-3146 
-2946 
-2692 
-2793 
-3022 
-2882 
-2626 
-2830 
-3199 
-3101 
-2677 
-2580 
-2761 
-2620 
-2102 
-1832 
-1930 
-1927 
-1619 
-1649 
-2248 
-2823 
-2928 
-2951 
-3233 
-3389 
-3066 
-2710 
-2832 
-3092 
-2932 
-2588 
-2688 
-3006 
-2924 
-2559 
-2552 
-2855 
-2861 
-2496 
-2410 
-2707 
-2844 
-2540 
-2375 
-2623 
-2819 
-2585 
-2336 
-2513 
-2757 
-2599 
-2314 
-2462 
-2773 
-2660 
-2343 
-2430 
-2742 
-3000 
-4558 
-4917 
-4744 
-4512 
-3981 
-3699 
-3821 
-3872 
-3501 
-3218 
-3383 
-3527 
-3242 
-2930 
-3050 
-3287 
-3131 
-2803 
-2871 
-3129 
-3000 
-2673 
-2709 
-2995 
-2952 
-2607 
-2612 
-2950 
-3043 
-2739 
-2690 
-3049 
-3230 
-2959 
-2804 
-3118 
-3377 
-3140 
-2897 
-3121 
-3412 
-3268 
-3002 
-3143 
-3470 
-3409 
-3094 
-3147 
-3449 
-3455 
-3145 
-3122 
-3541 
-3859 
-3692 
-3549 
-3778 
-3880 
-3547 
-3275 
-3453 
-3638 
-3393 
-3098 
-3242 
-3497 
-3341 
-3026 
-3104 
-3377 
-3304 
-2984 
-3011 
-3312 
-3335 
-2999 
-2940 
-3253 
-3334 
-3006 
-2858 
-3114 
-3282 
-3014 
-2792 
-3023 
-3263 
-3069 
-2774 
-2899 
-3173 
-3074 
-2777 
-2891 
-3201 
-3121 
-2766 
-2793 
-3139 
-3159 
-2829 
-2778 
-3093 
-3190 
-2871 
-2736 
-3013 
-3194 
-2931 
-2723 
-2964 
-3206 
-2965 
-2673 
-2869 
-3168 
-3025 
-2733 
-2853 
-3167 
-3101 
-2756 
-2774 
-3090 
-3109 
-2780 
-2741 
-3062 
-3181 
-2868 
-2721 
-3016 
-3196 
-2921 
-2717 
-2961 
-3208 
-3000 
-2716 
-2896 
-3199 
-3070 
-2742 
-2824 
-3155 
-3120 
-2747 
-2765 
-3112 
-3140 
-2799 
-2706 
-3025 
-3160 
-2868 
-2706 
-2966 
-3168 
-2909 
-2677 
-2916 
-3188 
-2986 
-2684 
-2854 
-3154 
-3032 
-2692 
-2776 
-3115 
-3103 
-2743 
-2732 
-3040 
-3079 
-2723 
-2617 
-2896 
-3026 
-2729 
-2570 
-2857 
-3083 
-2854 
-2619 
-2848 
-3118 
-2950 
-2654 
-2802 
-3105 
-2987 
-2639 
-2714 
-3026 
-2998 
-2642 
-2599 
-2882 
-2881 
-2468 
-2236 
-2397 
-2361 
-1863 
-1548 
-1801 
-2147 
-2198 
-2265 
-2687 
-3076 
-2957 
-2659 
-2762 
-3060 
-2955 
-2597 
-2631 
-2943 
-2924 
-2559 
-2520 
-2841 
-2935 
-2601 
-2471 
-2767 
-2941 
-2668 
-2473 
-2737 
-2970 
-2736 
-2503 
-2716 
-3015 
-2862 
-2544 
-2659 
-2952 
-2880 
-2551 
-2581 
-2884 
-2883 
-2548 
-2489 
-2798 
-2889 
-2576 
-2440 
-2727 
-2898 
-2604 
-2385 
-2636 
-2837 
-2600 
-2301 
-2449 
-2695 
-2529 
-2212 
-2306 
-2597 
-2518 
-2161 
-2147 
-2446 
-2464 
-2124 
-2050 
-2354 
-2460 
-2148 
-2008 
-2328 
-2560 
-2360 
-2205 
-2500 
-2818 
-2683 
-2464 
-2682 
-3039 
-2944 
-2656 
-2760 
-3080 
-3052 
-2708 
-2709 
-3043 
-3084 
-2769 
-2687 
-2988 
-3100 
-2803 
-2656 
-2926 
-3144 
-2873 
-2636 
-2870 
-3127 
-2936 
-2638 
-2799 
-3096 
-2955 
-2611 
-2701 
-3011 
-2959 
-2618 
-2610 
-2923 
-2958 
-2616 
-2523 
-2835 
-2999 
-2709 
-2548 
-2845 
-3091 
-2823 
-2567 
-2760 
-2997 
-2798 
-2498 
-2660 
-2956 
-2844 
-2494 
-2518 
-2841 
-2828 
-2464 
-2446 
-2799 
-2879 
-2554 
-2460 
-2772 
-2942 
-2656 
-2487 
-2778 
-3024 
-2811 
-2585 
-2803 
-3085 
-2917 
-2595 
-2717 
-3021 
-2901 
-2557 
-2609 
-2946 
-2943 
-2589 
-2526 
-2837 
-2922 
-2561 
-2406 
-2680 
-2859 
-2586 
-2393 
-2664 
-2916 
-2684 
-2415 
-2610 
-2919 
-2771 
-2465 
-2601 
-2923 
-2849 
-2529 
-2595 
-2931 
-2940 
-2618 
-2584 
-2912 
-3007 
-2679 
-2542 
-2865 
-3059 
-2764 
-2522 
-2766 
-3021 
-2801 
-2515 
-2699 
-2994 
-2835 
-2513 
-2623 
-2953 
-2890 
-2554 
-2572 
-2898 
-2940 
-2596 
-2534 
-2870 
-2987 
-2666 
-2518 
-2818 
-3003 
-2732 
-2465 
-2620 
-2775 
-2444 
-2028 
-2032 
-2187 
-2011 
-1728 
-2012 
-2646 
-2832 
-2607 
-2657 
-2981 
-2984 
-2609 
-2487 
-2798 
-2935 
-2612 
-2452 
-2740 
-2951 
-2699 
-2472 
-2698 
-2969 
-2790 
-2520 
-2664 
-2938 
-2828 
-2506 
-2612 
-2931 
-2920 
-2579 
-2564 
-2882 
-2929 
-2585 
-2489 
-2783 
-2922 
-2630 
-2448 
-2711 
-2913 
-2655 
-2398 
-2612 
-2896 
-2716 
-2394 
-2528 
-2845 
-2728 
-2356 
-2410 
-2715 
-2673 
-2288 
-2235 
-2535 
-2601 
-2273 
-2153 
-2449 
-2599 
-2265 
-2049 
-2313 
-2525 
-2284 
-2051 
-2298 
-2599 
-2432 
-2152 
-2317 
-2679 
-2641 
-2343 
-2425 
-2799 
-2856 
-2536 
-2531 
-2895 
-3000 
-2666 
-2546 
-2880 
-3086 
-2813 
-2612 
-2870 
-3110 
-2866 
-2576 
-2788 
-3091 
-2934 
-2603 
-2712 
-3020 
-2945 
-2600 
-2622 
-2958 
-2970 
-2611 
-2548 
-2881 
-2993 
-2720 
-2715 
-3121 
-3313 
-2987 
-2715 
-2914 
-3134 
-2897 
-2618 
-2782 
-3072 
-2919 
-2588 
-2675 
-2987 
-2924 
-2555 
-2557 
-2877 
-2919 
-2577 
-2487 
-2772 
-2873 
-2536 
-2364 
-2639 
-2834 
-2363 
-300 
-54 
-792 
-892 
-830 
-1176 
-1613 
-1601 
-1373 
-1554 
-1966 
-1987 
-1703 
-1782 
-2168 
-2236 
-1973 
-1948 
-2293 
-2454 
-2178 
-2030 
-2329 
-2563 
-2329 
-2258 
-2910 
-3598 
-3538 
-3149 
-3211 
-3428 
-3235 
-2826 
-2837 
-3108 
-3029 
-2639 
-2595 
-2887 
-2919 
-2579 
-2444 
-2724 
-2846 
-2517 
-2316 
-2580 
-2803 
-2549 
-2313 
-2537 
-2820 
-2650 
-2340 
-2483 
-2790 
-2664 
-2301 
-2343 
-2630 
-2575 
-2201 
-2133 
-2447 
-2506 
-2181 
-2104 
-2430 
-2594 
-2310 
-2136 
-2444 
-2707 
-2473 
-2225 
-2471 
-2780 
-2602 
-2282 
-2412 
-2720 
-2610 
-2203 
-2177 
-2394 
-2250 
-1722 
-1467 
-1603 
-1613 
-1335 
-1404 
-2013 
-2447 
-2286 
-2149 
-2418 
-2657 
-2416 
-2165 
-2403 
-2716 
-2556 
-2214 
-2357 
-2719 
-2653 
-2295 
-2337 
-2682 
-2686 
-2293 
-2202 
-2517 
-2613 
-2253 
-2113 
-2418 
-2606 
-2293 
-2047 
-2310 
-2577 
-2346 
-2056 
-2262 
-2564 
-2404 
-2063 
-2189 
-2540 
-2467 
-2096 
-2108 
-2470 
-2482 
-2103 
-2009 
-2320 
-2428 
-2067 
-1876 
-2149 
-2300 
-1963 
-1696 
-1915 
-2154 
-1892 
-1563 
-1751 
-2054 
-1897 
-1533 
-1655 
-2035 
-3041 
-4375 
-4117 
-4185 
-4068 
-3552 
-3330 
-3590 
-3658 
-3271 
-3042 
-3304 
-3506 
-3180 
-2884 
-3088 
-3331 
-3093 
-2758 
-2915 
-3219 
-3067 
-2675 
-2726 
-3065 
-3005 
-2638 
-2670 
-3054 
-3118 
-2752 
-2667 
-3004 
-3130 
-2760 
-2550 
-2852 
-3083 
-2792 
-2502 
-2716 
-2974 
-2739 
-2373 
-2531 
-2845 
-2712 
-2327 
-2394 
-2754 
-2735 
-2370 
-2364 
-2736 
-2815 
-2438 
-2330 
-2682 
-2839 
-2491 
-2289 
-2594 
-2829 
-2540 
-2260 
-2516 
-2817 
-2618 
-2263 
-2238 
-781 
-39 
-144 
-533 
-1130 
-1316 
-1113 
-1230 
-1716 
-1930 
-1660 
-1607 
-1974 
-2191 
-1891 
-1716 
-2030 
-2282 
-2041 
-1801 
-2080 
-2389 
-2193 
-1878 
-2045 
-2409 
-2346 
-2001 
-2039 
-2410 
-2428 
-2075 
-2028 
-2370 
-2455 
-2085 
-1942 
-2249 
-2419 
-2126 
-1917 
-2203 
-2481 
-2220 
-1920 
-2136 
-2457 
-2304 
-1976 
-2124 
-2480 
-2403 
-2009 
-2046 
-2409 
-2420 
-2075 
-2040 
-2392 
-2500 
-2184 
-2064 
-2378 
-2581 
-2305 
-2087 
-2367 
-2621 
-2380 
-2069 
-2275 
-2596 
-2441 
-2114 
-2192 
-2452 
-2272 
-1749 
-1626 
-1814 
-1645 
-1173 
-1136 
-1609 
-2032 
-1956 
-1950 
-2324 
-2541 
-2244 
-1974 
-2206 
-2474 
-2241 
-1931 
-2115 
-2445 
-2296 
-1947 
-2053 
-2395 
-2368 
-2010 
-2041 
-2373 
-2406 
-2059 
-1985 
-2333 
-2443 
-2112 
-1991 
-2327 
-2555 
-2300 
-2082 
-2362 
-2665 
-2449 
-2142 
-2316 
-2661 
-2534 
-2216 
-2307 
-2640 
-2611 
-2239 
-2236 
-2580 
-2632 
-2274 
-2192 
-2505 
-2619 
-2262 
-2052 
-2308 
-2533 
-2247 
-2011 
-2333 
-2588 
-2316 
-1953 
-2106 
-2407 
-2241 
-1855 
-1960 
-2326 
-2316 
-1987 
-2085 
-3896 
-5241 
-4515 
-4128 
-4258 
-4263 
-3843 
-3579 
-3832 
-4016 
-3696 
-3398 
-3604 
-3868 
-3636 
-3261 
-3407 
-3722 
-3587 
-3217 
-3284 
-3633 
-3613 
-3204 
-3169 
-3512 
-3567 
-3184 
-3048 
-3385 
-3565 
-3222 
-3010 
-3291 
-3521 
-3247 
-2956 
-3172 
-3463 
-3246 
-2886 
-3031 
-3373 
-3245 
-2870 
-2923 
-3262 
-3255 
-2886 
-2859 
-3197 
-3282 
-2939 
-2800 
-3127 
-3292 
-2972 
-2772 
-3054 
-3281 
-3008 
-2744 
-2971 
-3292 
-3114 
-2767 
-2900 
-2874 
-842 
-285 
-768 
-1422 
-1660 
-1476 
-1559 
-2011 
-2183 
-1930 
-1901 
-2307 
-2543 
-2298 
-2141 
-2460 
-2761 
-2562 
-2305 
-2554 
-2900 
-2758 
-2436 
-2599 
-2961 
-2893 
-2524 
-2575 
-2924 
-2931 
-2562 
-2520 
-2862 
-2979 
-2665 
-2542 
-2882 
-3128 
-2895 
-2742 
-3020 
-3282 
-3059 
-2786 
-3013 
-3317 
-3155 
-2836 
-2967 
-3301 
-3234 
-2864 
-2876 
-3165 
-3102 
-2579 
-2339 
-2511 
-2469 
-1999 
-1818 
-2266 
-2738 
-2727 
-2674 
-3040 
-3371 
-3156 
-2841 
-3037 
-3374 
-3219 
-2875 
-3010 
-3371 
-3312 
-2921 
-2929 
-3298 
-3333 
-2952 
-2863 
-3188 
-3295 
-2941 
-2775 
-3095 
-3314 
-3005 
-2755 
-3021 
-3298 
-3069 
-2763 
-2954 
-3285 
-3153 
-2790 
-2903 
-3286 
-3219 
-2800 
-2810 
-3186 
-3235 
-2820 
-2707 
-3046 
-3155 
-2761 
-2543 
-2843 
-3067 
-2750 
-2447 
-2682 
-2989 
-2747 
-2380 
-2552 
-2885 
-2748 
-2366 
-2453 
-2847 
-2819 
-2438 
-3402 
-5519 
-5334 
-4631 
-4310 
-4514 
-4550 
-4124 
-3890 
-4161 
-4364 
-4049 
-3735 
-3966 
-4266 
-4022 
-3658 
-3840 
-4202 
-4064 
-3671 
-3754 
-4117 
-4091 
-3688 
-3669 
-4050 
-4128 
-3724 
-3598 
-3956 
-4128 
-3767 
-3533 
-3876 
-4142 
-3846 
-3525 
-3757 
-4045 
-3810 
-3465 
-3626 
-3983 
-3865 
-3459 
-3517 
-3902 
-3857 
-3425 
-3380 
-3755 
-3820 
-3408 
-3283 
-3640 
-3813 
-3455 
-3223 
-3537 
-3806 
-3519 
-3208 
-3443 
-3767 
-3574 
-3220 
-3410 
-3786 
-3680 
-3301 
-3376 
-3783 
-3784 
-3370 
-3340 
-3726 
-3826 
-3435 
-3285 
-3623 
-3805 
-3467 
-3237 
-3526 
-3801 
-3517 
-3193 
-3395 
-3717 
-3546 
-3201 
-3321 
-3670 
-3565 
-3183 
-3229 
-3597 
-3599 
-3197 
-3147 
-3544 
-3672 
-3314 
-3203 
-3569 
-3762 
-3426 
-3178 
-3455 
-3727 
-3456 
-3154 
-3369 
-3697 
-3517 
-3148 
-3273 
-3607 
-3454 
-2956 
-2864 
-3076 
-2896 
-2351 
-2233 
-2660 
-2966 
-2892 
-2984 
-3432 
-3669 
-3378 
-3093 
-3352 
-3630 
-3380 
-3062 
-3292 
-3650 
-3504 
-3144 
-3269 
-3626 
-3557 
-3159 
-3202 
-3583 
-3599 
-3198 
-3147 
-3512 
-3638 
-3271 
-3099 
-3412 
-3618 
-3308 
-3026 
-3277 
-3552 
-3306 
-2981 
-3168 
-3509 
-3338 
-2961 
-3071 
-3404 
-3315 
-2906 
-2907 
-3291 
-3330 
-2929 
-2845 
-3183 
-3313 
-2960 
-2754 
-3039 
-3225 
-2902 
-2617 
-2848 
-3127 
-2895 
-2583 
-2766 
-3103 
-2978 
-2630 
-2780 
-3183 
-3176 
-2818 
-2860 
-3273 
-3357 
-3029 
-3005 
-3390 
-3563 
-3296 
-3164 
-3504 
-3738 
-3467 
-3229 
-3488 
-3774 
-3567 
-3266 
-3415 
-3726 
-3585 
-3220 
-3314 
-3653 
-3610 
-3245 
-3236 
-3573 
-3617 
-3240 
-3150 
-3512 
-3662 
-3336 
-3154 
-3452 
-3672 
-3428 
-3179 
-3428 
-3714 
-3515 
-3202 
-3358 
-3688 
-3590 
-3238 
-3326 
-3668 
-3625 
-3240 
-3211 
-3556 
-3632 
-3290 
-3180 
-3510 
-3680 
-3376 
-3162 
-3193 
-1539 
-857 
-1028 
-1544 
-2069 
-2055 
-1865 
-2128 
-2559 
-2537 
-2273 
-2411 
-2796 
-2816 
-2495 
-2512 
-2878 
-2964 
-2635 
-2519 
-2839 
-3022 
-2763 
-2606 
-2947 
-3234 
-2984 
-2717 
-2963 
-3293 
-3115 
-2796 
-2957 
-3302 
-3201 
-2854 
-2927 
-3282 
-3293 
-2933 
-2890 
-3182 
-3177 
-2705 
-2450 
-2587 
-2563 
-2125 
-1865 
-2215 
-2703 
-2766 
-2726 
-3072 
-3437 
-3249 
-2882 
-3013 
-3342 
-3276 
-2947 
-3027 
-3398 
-3420 
-3060 
-3031 
-3406 
-3521 
-3159 
-3036 
-3359 
-3554 
-3240 
-3012 
-3271 
-3508 
-3242 
-2921 
-3110 
-3418 
-3227 
-2848 
-2991 
-3314 
-3196 
-2830 
-2857 
-3216 
-3207 
-2821 
-2768 
-3125 
-3214 
-2818 
-2668 
-3002 
-3222 
-2896 
-2656 
-2926 
-3184 
-2941 
-2669 
-2886 
-3173 
-2999 
-2622 
-2739 
-3077 
-2989 
-2601 
-2622 
-2987 
-3021 
-2710 
-4109 
-5662 
-5397 
-4769 
-4434 
-4623 
-4734 
-4362 
-4049 
-4272 
-4547 
-4284 
-3949 
-4114 
-4411 
-4251 
-3878 
-3969 
-4301 
-4205 
-3809 
-3826 
-4163 
-4153 
-3761 
-3684 
-4002 
-4101 
-3743 
-3588 
-3907 
-4130 
-3826 
-3582 
-3847 
-4144 
-3931 
-3624 
-3824 
-4139 
-4000 
-3655 
-3764 
-4118 
-4052 
-3661 
-3686 
-4041 
-4066 
-3688 
-3607 
-3950 
-4062 
-3682 
-3513 
-3834 
-4032 
-3711 
-3440 
-3705 
-3964 
-3713 
-3369 
-3569 
-3793 
-1999 
-800 
-1368 
-2076 
-2271 
-2066 
-2232 
-2723 
-2851 
-2536 
-2509 
-2947 
-3151 
-2823 
-2660 
-2999 
-3245 
-2945 
-2686 
-2976 
-3290 
-3079 
-2757 
-2973 
-3364 
-3283 
-2943 
-3090 
-3479 
-3444 
-3079 
-3104 
-3489 
-3563 
-3190 
-3115 
-3499 
-3644 
-3273 
-3092 
-3433 
-3661 
-3293 
-2908 
-3046 
-3203 
-2766 
-2228 
-2325 
-2697 
-2695 
-2652 
-3064 
-3615 
-3649 
-3283 
-3258 
-3586 
-3624 
-3267 
-3174 
-3572 
-3726 
-3380 
-3206 
-3539 
-3793 
-3508 
-3225 
-3485 
-3795 
-3554 
-3201 
-3409 
-3799 
-3671 
-3265 
-3326 
-3674 
-3630 
-3239 
-3225 
-3607 
-3659 
-3264 
-3165 
-3527 
-3690 
-3326 
-3103 
-3398 
-3625 
-3327 
-3040 
-3279 
-3598 
-3394 
-3051 
-3229 
-3576 
-3417 
-3003 
-3077 
-3418 
-3361 
-2952 
-2911 
-3227 
-3279 
-2893 
-2769 
-3160 
-3355 
-3031 
-2849 
-3195 
-3508 
-3290 
-3647 
-5880 
-6207 
-5678 
-5133 
-5147 
-5419 
-5244 
-4834 
-4870 
-5189 
-5161 
-4770 
-4734 
-5074 
-5163 
-4766 
-4604 
-4906 
-5049 
-4699 
-4491 
-4809 
-5054 
-4781 
-4478 
-4692 
-4975 
-4748 
-4368 
-4477 
-4815 
-4700 
-4294 
-4324 
-4672 
-4728 
-4387 
-4375 
-4741 
-4886 
-4559 
-4466 
-4810 
-4997 
-4682 
-4464 
-4741 
-4947 
-4629 
-4280 
-4442 
-4745 
-4535 
-4164 
-4320 
-4640 
-4463 
-2521 
-1516 
-2341 
-2644 
-2460 
-2581 
-3076 
-3292 
-2986 
-2904 
-3283 
-3518 
-3257 
-3085 
-3439 
-3751 
-3599 
-3485 
-3846 
-4249 
-4085 
-3711 
-3823 
-4187 
-4185 
-4113 
-4427 
-4960 
-5198 
-4935 
-4860 
-5098 
-5011 
-4469 
-4138 
-4287 
-4347 
-3949 
-3641 
-3853 
-4099 
-3883 
-3634 
-3875 
-4205 
-4053 
-3701 
-3847 
-4204 
-4138 
-3787 
-3840 
-4220 
-4269 
-3938 
-3876 
-4207 
-4273 
-3847 
-3588 
-3762 
-3800 
-3311 
-2904 
-3066 
-3326 
-3193 
-3142 
-3576 
-4014 
-3903 
-3573 
-3681 
-4009 
-3925 
-3559 
-3632 
-4047 
-4076 
-3693 
-3631 
-3938 
-4038 
-3684 
-3532 
-3843 
-4021 
-3688 
-3436 
-3679 
-3948 
-3732 
-3422 
-3615 
-3924 
-3748 
-3375 
-3485 
-3829 
-3783 
-3419 
-3459 
-3809 
-3831 
-3471 
-3426 
-3757 
-3850 
-3520 
-3359 
-3666 
-3858 
-3546 
-3284 
-3521 
-3787 
-3533 
-3215 
-3411 
-3727 
-3567 
-3189 
-3292 
-3650 
-3570 
-3200 
-3218 
-3812 
-5723 
-5814 
-5283 
-5341 
-5303 
-4850 
-4564 
-4808 
-4977 
-4662 
-4387 
-4624 
-4886 
-4656 
-4310 
-4461 
-4780 
-4634 
-4278 
-4364 
-4701 
-4654 
-4274 
-4283 
-4629 
-4721 
-4358 
-4260 
-4618 
-4767 
-4418 
-4244 
-4554 
-4746 
-4425 
-4169 
-4406 
-4694 
-4453 
-4101 
-4307 
-4653 
-4526 
-4135 
-4209 
-4558 
-4526 
-4138 
-4100 
-4453 
-4483 
-4066 
-3943 
-4276 
-4397 
-4029 
-3818 
-4087 
-3065 
-1365 
-1485 
-2070 
-2618 
-2621 
-2439 
-2740 
-3182 
-3130 
-2868 
-3036 
-3442 
-3474 
-3199 
-3253 
-3639 
-3732 
-3386 
-3311 
-3669 
-3835 
-3505 
-3286 
-3622 
-3894 
-3651 
-3391 
-3653 
-3973 
-3780 
-3438 
-3605 
-3940 
-3839 
-3491 
-3572 
-3926 
-3914 
-3598 
-3612 
-3965 
-4050 
-3710 
-3609 
-3943 
-4111 
-3783 
-3578 
-3890 
-4134 
-3870 
-3604 
-3826 
-4108 
-3947 
-3651 
-3819 
-4112 
-3916 
-3439 
-3381 
-3565 
-3349 
-2838 
-2777 
-3199 
-3507 
-3460 
-3574 
-4002 
-4199 
-3882 
-3656 
-3918 
-4150 
-3902 
-3622 
-3839 
-4134 
-3946 
-3621 
-3750 
-4063 
-3978 
-3618 
-3684 
-4018 
-3996 
-3636 
-3610 
-3952 
-4039 
-3701 
-3560 
-3880 
-4058 
-3750 
-3581 
-3881 
-4146 
-3898 
-3635 
-3863 
-4172 
-4000 
-3678 
-3807 
-4145 
-4068 
-3737 
-3797 
-4131 
-4097 
-3718 
-3644 
-3934 
-3965 
-3610 
-3450 
-3752 
-3889 
-3556 
-3338 
-3587 
-3833 
-3603 
-3317 
-3533 
-3838 
-3668 
-4095 
-6112 
-6294 
-5865 
-5297 
-5187 
-5410 
-5336 
-4921 
-4835 
-5145 
-5218 
-4861 
-4695 
-4949 
-5122 
-4813 
-4582 
-4834 
-5059 
-4780 
-4501 
-4719 
-5038 
-4903 
-4593 
-4707 
-5000 
-4907 
-4576 
-4606 
-4923 
-4922 
-4575 
-4502 
-4811 
-4901 
-4586 
-4429 
-4685 
-4843 
-4529 
-4308 
-4544 
-4759 
-4527 
-4245 
-4408 
-4680 
-4564 
-4253 
-4354 
-4657 
-4569 
-4207 
-4234 
-4555 
-4565 
-4215 
-4158 
-4480 
-4588 
-4250 
-3451 
-1860 
-2167 
-2261 
-2325 
-2783 
-3179 
-3077 
-2903 
-3181 
-3532 
-3419 
-3163 
-3358 
-3709 
-3669 
-3359 
-3438 
-3801 
-3839 
-3535 
-3527 
-3898 
-4031 
-3733 
-3614 
-3927 
-4132 
-3868 
-3658 
-3911 
-4146 
-3918 
-3658 
-3847 
-4133 
-3965 
-3646 
-3765 
-4088 
-4005 
-3678 
-3711 
-4042 
-4066 
-3720 
-3655 
-3988 
-4108 
-3769 
-3622 
-3909 
-4074 
-3775 
-3533 
-3775 
-4015 
-3780 
-3513 
-3723 
-4047 
-3911 
-3607 
-3743 
-4110 
-4075 
-3730 
-3774 
-4165 
-4210 
-3887 
-3844 
-4212 
-4341 
-4015 
-3856 
-4113 
-4238 
-3814 
-3399 
-3454 
-3521 
-3181 
-2873 
-3206 
-3809 
-3942 
-3737 
-3907 
-4283 
-4193 
-3798 
-3833 
-4202 
-4246 
-3865 
-3780 
-4140 
-4275 
-3928 
-3751 
-4092 
-4305 
-4017 
-3804 
-4109 
-4452 
-4283 
-3997 
-4189 
-4522 
-4358 
-3962 
-4038 
-4377 
-4303 
-3918 
-3910 
-4257 
-4287 
-3912 
-3841 
-4189 
-4296 
-3935 
-3772 
-4094 
-4294 
-3986 
-3710 
-3969 
-4252 
-4010 
-3683 
-3869 
-4188 
-4012 
-3623 
-3692 
-4046 
-3977 
-3598 
-3577 
-3911 
-3953 
-3576 
-3468 
-4606 
-6583 
-6045 
-5506 
-5618 
-5692 
-5278 
-4919 
-5112 
-5372 
-5106 
-4745 
-4900 
-5243 
-5088 
-4696 
-4788 
-5152 
-5104 
-4722 
-4709 
-5067 
-5077 
-4688 
-4585 
-4928 
-5035 
-4666 
-4471 
-4798 
-5023 
-4735 
-4463 
-4715 
-4999 
-4756 
-4411 
-4580 
-4936 
-4786 
-4406 
-4494 
-4874 
-4811 
-4384 
-4364 
-4736 
-4804 
-4421 
-4307 
-4676 
-4855 
-4499 
-4299 
-4624 
-4872 
-4565 
-4248 
-3293 
-2137 
-2281 
-2298 
-2706 
-3253 
-3227 
-2979 
-3163 
-3614 
-3618 
-3254 
-3285 
-3722 
-3843 
-3483 
-3401 
-3811 
-4010 
-3663 
-3459 
-3826 
-4097 
-3799 
-3532 
-3826 
-4175 
-3959 
-3594 
-3771 
-4162 
-4039 
-3650 
-3746 
-4162 
-4125 
-3689 
-3667 
-4067 
-4160 
-3772 
-3640 
-4022 
-4221 
-3859 
-3647 
-4029 
-4324 
-3999 
-3681 
-3983 
-4344 
-4111 
-3736 
-3914 
-4311 
-4184 
-3764 
-3837 
-4266 
-4253 
-3809 
-3765 
-4188 
-4281 
-3834 
-3679 
-4085 
-4268 
-3879 
-3634 
-3974 
-4242 
-3918 
-3612 
-3892 
-4273 
-4065 
-3679 
-3886 
-4306 
-4174 
-3730 
-3825 
-4293 
-4270 
-3813 
-3798 
-4259 
-4360 
-3900 
-3678 
-4002 
-4098 
-3548 
-3093 
-3242 
-3416 
-3069 
-2824 
-3371 
-4059 
-3998 
-3688 
-3924 
-4375 
-4225 
-3736 
-3812 
-4275 
-4270 
-3816 
-3781 
-4236 
-4351 
-3910 
-3745 
-4177 
-4403 
-4004 
-3747 
-4109 
-4409 
-4078 
-3737 
-4025 
-4420 
-4171 
-3743 
-3899 
-4328 
-4217 
-3766 
-3829 
-4290 
-4294 
-3822 
-3746 
-4186 
-4297 
-3859 
-3681 
-4081 
-4318 
-3908 
-3639 
-3974 
-4296 
-3974 
-3596 
-3841 
-4229 
-4000 
-3576 
-3731 
-4155 
-4020 
-3533 
-3569 
-4014 
-4011 
-3544 
-4109 
-6471 
-6526 
-5690 
-5270 
-5540 
-5665 
-5204 
-4869 
-5195 
-5486 
-5148 
-4767 
-5009 
-5412 
-5198 
-4765 
-4920 
-5350 
-5235 
-4769 
-4804 
-5234 
-5244 
-4757 
-4655 
-5085 
-5194 
-4760 
-4555 
-4936 
-5186 
-4785 
-4473 
-4804 
-5138 
-4837 
-4454 
-4702 
-5105 
-4896 
-4459 
-4583 
-5010 
-4905 
-4405 
-4421 
-4861 
-4903 
-4441 
-4324 
-4737 
-4872 
-4458 
-4262 
-4662 
-4913 
-4512 
-4201 
-4528 
-4875 
-4571 
-4119 
-2821 
-2156 
-2406 
-2318 
-2690 
-3297 
-3359 
-3015 
-3114 
-3622 
-3693 
-3270 
-3237 
-3711 
-3888 
-3493 
-3322 
-3717 
-3976 
-3655 
-3395 
-3724 
-4073 
-3819 
-3493 
-3749 
-4155 
-4015 
-3627 
-3787 
-4233 
-4173 
-3732 
-3764 
-4209 
-4263 
-3856 
-3771 
-4155 
-4295 
-3926 
-3753 
-4119 
-4369 
-4039 
-3774 
-4048 
-4354 
-4090 
-3752 
-3953 
-4325 
-4189 
-3786 
-3904 
-4288 
-4236 
-3856 
-3873 
-4258 
-4282 
-3887 
-3792 
-4138 
-4265 
-3901 
-3728 
-4043 
-4260 
-3971 
-3730 
-4019 
-4330 
-4090 
-3773 
-3956 
-4273 
-4110 
-3742 
-3849 
-4227 
-4196 
-3831 
-3840 
-4185 
-4204 
-3796 
-3649 
-3883 
-3877 
-3404 
-3034 
-3132 
-3230 
-2978 
-2916 
-3459 
-3988 
-3928 
-3700 
-3878 
-4169 
-4048 
-3722 
-3802 
-4141 
-4110 
-3789 
-3804 
-4134 
-4167 
-3832 
-3767 
-4083 
-4195 
-3903 
-3744 
-4017 
-4210 
-3968 
-3750 
-3960 
-4189 
-3996 
-3729 
-3862 
-4145 
-4044 
-3740 
-3827 
-4124 
-4096 
-3772 
-3757 
-4066 
-4116 
-3813 
-3741 
-4027 
-4150 
-3862 
-3686 
-3926 
-4119 
-3841 
-3600 
-3820 
-4073 
-3879 
-3555 
-3687 
-3995 
-3888 
-3557 
-3634 
-3962 
-3919 
-3890 
-5811 
-6448 
-6129 
-5574 
-5313 
-5522 
-5615 
-5287 
-5089 
-5326 
-5517 
-5247 
-4998 
-5209 
-5463 
-5279 
-4974 
-5121 
-5412 
-5297 
-4946 
-4990 
-5341 
-5346 
-5003 
-4958 
-5283 
-5367 
-5039 
-4921 
-5217 
-5388 
-5091 
-4887 
-5156 
-5398 
-5134 
-4870 
-5097 
-5384 
-5201 
-4850 
-4967 
-5288 
-5184 
-4813 
-4836 
-5181 
-5176 
-4785 
-4736 
-5076 
-5148 
-4781 
-4651 
-4955 
-5133 
-4825 
-4493 
-3130 
-2461 
-2647 
-2672 
-3129 
-3597 
-3548 
-3310 
-3541 
-3962 
-3926 
-3602 
-3695 
-4100 
-4135 
-3784 
-3765 
-4157 
-4302 
-3968 
-3832 
-4173 
-4384 
-4096 
-3898 
-4195 
-4489 
-4268 
-3974 
-4199 
-4549 
-4386 
-4066 
-4204 
-4550 
-4482 
-4132 
-4174 
-4519 
-4513 
-4121 
-4068 
-4420 
-4533 
-4191 
-4056 
-4362 
-4571 
-4296 
-4052 
-4329 
-4592 
-4373 
-4108 
-4317 
-4625 
-4473 
-4150 
-4298 
-4661 
-4604 
-4214 
-4229 
-4589 
-4626 
-4282 
-4218 
-4554 
-4646 
-4307 
-4183 
-4495 
-4676 
-4355 
-4101 
-4352 
-4595 
-4306 
-3942 
-4162 
-4495 
-4380 
-4105 
-4279 
-4659 
-4612 
-4278 
-4307 
-4661 
-4679 
-4300 
-4237 
-4596 
-4709 
-4382 
-4243 
-4554 
-4729 
-4384 
-4063 
-4200 
-4315 
-3876 
-3338 
-3400 
-3707 
-3657 
-3566 
-4003 
-4562 
-4589 
-4267 
-4297 
-4631 
-4651 
-4312 
-4256 
-4608 
-4756 
-4424 
-4245 
-4546 
-4744 
-4436 
-4189 
-4447 
-4722 
-4477 
-4157 
-4334 
-4667 
-4525 
-4151 
-4223 
-4596 
-4522 
-4135 
-4146 
-4485 
-4529 
-4161 
-4068 
-4385 
-4495 
-4147 
-3952 
-4243 
-4443 
-4164 
-3915 
-4134 
-4371 
-4127 
-3807 
-4007 
-4295 
-4129 
-3762 
-3800 
-4112 
-4058 
-3683 
-3686 
-3985 
-3995 
-3637 
-3553 
-3848 
-4773 
-6297 
-5959 
-5880 
-5810 
-5399 
-5062 
-5217 
-5402 
-5180 
-4890 
-5014 
-5273 
-5122 
-4830 
-4925 
-5205 
-5145 
-4832 
-4841 
-5113 
-5139 
-4829 
-4765 
-5035 
-5094 
-4802 
-4693 
-4947 
-5092 
-4871 
-4690 
-4854 
-5051 
-4863 
-4640 
-4773 
-4987 
-4844 
-4591 
-4685 
-4914 
-4845 
-4584 
-4608 
-4852 
-4844 
-4593 
-4568 
-4794 
-4867 
-4619 
-4527 
-4755 
-4883 
-4699 
-4569 
-4766 
-4911 
-4740 
-4562 
-4704 
-4735 
-2836 
-1925 
-2458 
-2991 
-3144 
-3050 
-3224 
-3604 
-3692 
-3519 
-3564 
-3889 
-4007 
-3787 
-3720 
-4000 
-4175 
-3980 
-3850 
-4067 
-4288 
-4141 
-3940 
-4115 
-4401 
-4304 
-4044 
-4145 
-4440 
-4424 
-4170 
-4220 
-4533 
-4574 
-4269 
-4205 
-4486 
-4600 
-4349 
-4210 
-4476 
-4665 
-4421 
-4212 
-4446 
-4697 
-4492 
-4221 
-4394 
-4706 
-4604 
-4273 
-4363 
-4722 
-4672 
-4310 
-4339 
-4712 
-4750 
-4383 
-4284 
-4647 
-4808 
-4485 
-4291 
-4612 
-4878 
-4601 
-4319 
-4568 
-4894 
-4645 
-4263 
-4443 
-4833 
-4685 
-4280 
-4404 
-4877 
-4865 
-4421 
-4404 
-4901 
-5016 
-4554 
-4389 
-4851 
-5124 
-4699 
-4444 
-4819 
-5137 
-4795 
-4417 
-4698 
-5046 
-4665 
-4104 
-4158 
-4421 
-4102 
-3519 
-3645 
-4354 
-4648 
-4373 
-4446 
-4987 
-5117 
-4604 
-4401 
-4844 
-5074 
-4615 
-4315 
-4714 
-5070 
-4680 
-4283 
-4576 
-4989 
-4703 
-4184 
-4355 
-4831 
-4688 
-4141 
-4184 
-4659 
-4619 
-4094 
-4028 
-4506 
-4622 
-4135 
-3960 
-4428 
-4659 
-4228 
-3929 
-4321 
-4677 
-4300 
-3905 
-4191 
-4619 
-4357 
-3891 
-4075 
-4554 
-4411 
-3878 
-3926 
-4392 
-4380 
-3859 
-3786 
-4251 
-4359 
-3868 
-3653 
-4071 
-4305 
-3864 
-3554 
-3937 
-4366 
-5526 
-6277 
-6157 
-6277 
-5824 
-5234 
-5341 
-5764 
-5607 
-5093 
-5135 
-5616 
-5615 
-5101 
-5019 
-5496 
-5625 
-5124 
-4925 
-5359 
-5612 
-5198 
-4908 
-5291 
-5637 
-5304 
-4927 
-5224 
-5631 
-5363 
-4915 
-5081 
-5541 
-5414 
-4923 
-4963 
-5433 
-5431 
-4922 
-4840 
-5290 
-5422 
-4950 
-4746 
-5159 
-5400 
-5006 
-4683 
-5021 
-5359 
-5039 
-4636 
-4899 
-5323 
-5084 
-4630 
-4804 
-5279 
-5187 
-4678 
-4746 
-5238 
-5261 
-4756 
-4673 
-5143 
-5293 
-4838 
-4628 
-5060 
-5320 
-4910 
-4591 
-4931 
-5307 
-5001 
-4597 
-4847 
-5246 
-5030 
-4599 
-4784 
-5256 
-5162 
-4696 
-4740 
-5221 
-5248 
-4750 
-4660 
-5125 
-5292 
-4854 
-4633 
-5044 
-5326 
-4932 
-4621 
-4977 
-5345 
-5025 
-4621 
-4882 
-5314 
-5120 
-4681 
-4844 
-5319 
-5235 
-4755 
-4804 
-5289 
-5347 
-4872 
-4775 
-5223 
-5389 
-4976 
-4776 
-5200 
-5478 
-5079 
-4749 
-5070 
-5427 
-5102 
-4669 
-4889 
-5322 
-5158 
-4701 
-4842 
-5312 
-5258 
-4790 
-4817 
-5287 
-5348 
-4893 
-4794 
-5244 
-5422 
-4978 
-4762 
-5155 
-5438 
-5072 
-4723 
-4988 
-5249 
-4826 
-4262 
-4292 
-4550 
-4301 
-3870 
-4171 
-4966 
-5163 
-4837 
-4915 
-5395 
-5435 
-4938 
-4805 
-5249 
-5427 
-4997 
-4783 
-5183 
-5466 
-5101 
-4779 
-5080 
-5435 
-5158 
-4744 
-4971 
-5400 
-5238 
-4784 
-4898 
-5371 
-5311 
-4841 
-4837 
-5289 
-5347 
-4876 
-4748 
-5176 
-5326 
-4874 
-4629 
-4987 
-5263 
-4911 
-4581 
-4886 
-5262 
-4992 
-4564 
-4763 
-5164 
-4991 
-4518 
-4584 
-4977 
-4914 
-4439 
-4418 
-4862 
-4930 
-4445 
-4300 
-4731 
-4915 
-4476 
-4233 
-4606 
-4904 
-4562 
-4270 
-4616 
-5023 
-4817 
-4466 
-4734 
-5203 
-5109 
-4707 
-4841 
-5352 
-5355 
-4915 
-4916 
-5375 
-5472 
-5021 
-4897 
-5341 
-5534 
-5128 
-4896 
-5287 
-5599 
-5233 
-4887 
-5212 
-5615 
-5367 
-4981 
-5192 
-5611 
-5450 
-4984 
-5096 
-5558 
-5494 
-4996 
-4963 
-5406 
-5497 
-5046 
-4874 
-5278 
-5474 
-5056 
-4808 
-5163 
-5460 
-5108 
-4758 
-5056 
-5441 
-5184 
-4763 
-4954 
-5401 
-5254 
-4084 
-2311 
-2922 
-3293 
-3094 
-3255 
-3874 
-4085 
-3715 
-3645 
-4167 
-4445 
-4102 
-3899 
-4319 
-4670 
-4353 
-4008 
-4325 
-4757 
-4506 
-4098 
-4311 
-4773 
-4669 
-4227 
-4311 
-4798 
-4806 
-4334 
-4290 
-4789 
-4935 
-4515 
-4382 
-4832 
-5074 
-4681 
-4429 
-4811 
-5159 
-4848 
-4499 
-4785 
-5202 
-4985 
-4557 
-4768 
-5236 
-5102 
-4618 
-4714 
-5222 
-5228 
-4743 
-4723 
-5239 
-5383 
-4949 
-4788 
-5199 
-5398 
-4933 
-4636 
-4981 
-5276 
-4907 
-4506 
-4760 
-5131 
-4854 
-4379 
-4548 
-4986 
-4860 
-4390 
-4447 
-4943 
-4938 
-4448 
-4391 
-4856 
-4981 
-4529 
-4355 
-4801 
-5051 
-4662 
-4380 
-4735 
-5080 
-4738 
-4315 
-4498 
-4799 
-4401 
-3734 
-3706 
-4031 
-3887 
-3522 
-3856 
-4669 
-4893 
-4505 
-4469 
-4926 
-5047 
-4580 
-4409 
-4859 
-5121 
-4747 
-4466 
-4846 
-5204 
-4904 
-4533 
-4782 
-5223 
-5006 
-4549 
-4731 
-5206 
-5111 
-4632 
-4668 
-5135 
-5148 
-4654 
-4587 
-5070 
-5215 
-4750 
-4567 
-5012 
-5292 
-4905 
-4599 
-4956 
-5318 
-4982 
-4583 
-4851 
-5282 
-5041 
-4565 
-4708 
-5182 
-5062 
-4544 
-4571 
-5052 
-5045 
-4502 
-4373 
-4825 
-4962 
-4532 
-4317 
-4723 
-4978 
-4554 
-4217 
-5058 
-7431 
-7225 
-6420 
-6447 
-6745 
-6400 
-5846 
-5929 
-6353 
-6222 
-5710 
-5735 
-6196 
-6205 
-5692 
-5568 
-6032 
-6191 
-5698 
-5498 
-5929 
-6193 
-5774 
-5422 
-5751 
-6138 
-5847 
-5435 
-5689 
-6122 
-5920 
-5462 
-5587 
-6040 
-5954 
-5445 
-5443 
-5920 
-5963 
-5458 
-5316 
-5789 
-5963 
-5486 
-5256 
-5656 
-5904 
-5505 
-5197 
-5531 
-5907 
-5589 
-5205 
-5462 
-5908 
-5727 
-5266 
-5405 
-5877 
-5828 
-5331 
-4988 
-3524 
-3296 
-3222 
-3397 
-4083 
-4427 
-4112 
-3987 
-4501 
-4859 
-4553 
-4301 
-4697 
-5152 
-4901 
-4509 
-4762 
-5240 
-5081 
-4625 
-4771 
-5293 
-5265 
-4765 
-4756 
-5259 
-5341 
-4855 
-4711 
-5164 
-5384 
-4957 
-4706 
-5130 
-5478 
-5124 
-4783 
-5117 
-5555 
-5304 
-4864 
-5086 
-5550 
-5406 
-4927 
-5030 
-5511 
-5449 
-4953 
-4921 
-5440 
-5530 
-5038 
-4895 
-5363 
-5569 
-5138 
-4889 
-5293 
-5622 
-5253 
-4900 
-5245 
-5672 
-5399 
-4969 
-5204 
-5658 
-5503 
-5032 
-5123 
-5615 
-5602 
-5080 
-5015 
-5505 
-5613 
-5132 
-4987 
-5437 
-5665 
-5248 
-4999 
-5403 
-5726 
-5350 
-4990 
-5320 
-5736 
-5480 
-5059 
-5284 
-5749 
-5586 
-5076 
-5117 
-5504 
-5349 
-4679 
-4410 
-4670 
-4644 
-4175 
-4180 
-4926 
-5446 
-5210 
-5020 
-5423 
-5734 
-5354 
-4983 
-5313 
-5738 
-5489 
-5030 
-5221 
-5690 
-5550 
-5083 
-5175 
-5650 
-5621 
-5146 
-5110 
-5566 
-5682 
-5236 
-5071 
-5519 
-5755 
-5316 
-5029 
-5419 
-5747 
-5384 
-4999 
-5301 
-5721 
-5480 
-5022 
-5189 
-5646 
-5507 
-5007 
-5060 
-5534 
-5523 
-5017 
-4936 
-5420 
-5542 
-5054 
-4840 
-5258 
-5473 
-5046 
-4726 
-5067 
-5395 
-5028 
-4617 
-4877 
-5294 
-5055 
-4592 
-4838 
-6800 
-7872 
-6990 
-6768 
-7079 
-6964 
-6373 
-6245 
-6702 
-6810 
-6305 
-6125 
-6571 
-6799 
-6359 
-6019 
-6389 
-6747 
-6409 
-6008 
-6286 
-6712 
-6466 
-5987 
-6130 
-6598 
-6493 
-5984 
-6013 
-6508 
-6520 
-6006 
-5912 
-6378 
-6516 
-6035 
-5810 
-6212 
-6459 
-6042 
-5712 
-6066 
-6431 
-6092 
-5655 
-5903 
-6329 
-6106 
-5617 
-5756 
-6260 
-6155 
-5668 
-5692 
-6162 
-6164 
-5653 
-5556 
-5818 
-4131 
-3059 
-3282 
-4023 
-4516 
-4275 
-4083 
-4534 
-5000 
-4753 
-4387 
-4678 
-5180 
-5056 
-4648 
-4839 
-5364 
-5339 
-4875 
-4920 
-5442 
-5497 
-5024 
-4927 
-5421 
-5590 
-5137 
-4922 
-5342 
-5625 
-5234 
-4912 
-5279 
-5670 
-5368 
-4971 
-5233 
-5670 
-5469 
-5012 
-5177 
-5673 
-5600 
-5116 
-5146 
-5646 
-5703 
-5212 
-5084 
-5550 
-5720 
-5274 
-5055 
-5464 
-5749 
-5368 
-5044 
-5375 
-5746 
-5461 
-5066 
-5329 
-5760 
-5571 
-5126 
-5273 
-5744 
-5658 
-5191 
-5256 
-5742 
-5794 
-5318 
-5198 
-5642 
-5797 
-5357 
-5136 
-5526 
-5813 
-5443 
-5103 
-5427 
-5788 
-5502 
-5069 
-5294 
-5734 
-5539 
-5057 
-5188 
-5671 
-5627 
-5166 
-5200 
-5705 
-5770 
-5264 
-5149 
-5643 
-5855 
-5410 
-5174 
-5567 
-5874 
-5500 
-5167 
-5502 
-5893 
-5566 
-5069 
-5196 
-5501 
-5155 
-4474 
-4401 
-4794 
-4779 
-4486 
-4781 
-5524 
-5743 
-5325 
-5209 
-5651 
-5833 
-5367 
-5113 
-5521 
-5844 
-5477 
-5160 
-5464 
-5863 
-5588 
-5172 
-5391 
-5862 
-5706 
-5216 
-5310 
-5803 
-5774 
-5280 
-5254 
-5730 
-5823 
-5337 
-5178 
-5622 
-5834 
-5403 
-5135 
-5510 
-5831 
-5480 
-5118 
-5416 
-5798 
-5528 
-5083 
-5272 
-5735 
-5613 
-5127 
-5197 
-5678 
-5637 
-5122 
-5050 
-5493 
-5587 
-5083 
-4903 
-5329 
-5534 
-5074 
-4772 
-5129 
-5456 
-5097 
-5149 
-7436 
-8029 
-7387 
-6701 
-6741 
-7122 
-6935 
-6407 
-6461 
-6938 
-6896 
-6392 
-6332 
-6806 
-6929 
-6464 
-6267 
-6682 
-6897 
-6457 
-6149 
-6519 
-6830 
-6468 
-6087 
-6370 
-6765 
-6524 
-6084 
-6263 
-6714 
-6578 
-6088 
-6132 
-6604 
-6603 
-6087 
-6005 
-6505 
-6632 
-6141 
-5928 
-6346 
-6568 
-6124 
-5825 
-6165 
-6499 
-6150 
-5755 
-6039 
-6448 
-6204 
-5765 
-5933 
-6406 
-6297 
-5566 
-3726 
-3718 
-4158 
-3970 
-4140 
-4763 
-5038 
-4670 
-4560 
-5073 
-5395 
-5043 
-4788 
-5198 
-5574 
-5265 
-4941 
-5269 
-5732 
-5530 
-5106 
-5310 
-5804 
-5710 
-5240 
-5317 
-5820 
-5848 
-5362 
-5300 
-5767 
-5927 
-5508 
-5318 
-5733 
-5989 
-5608 
-5297 
-5654 
-6018 
-5709 
-5325 
-5611 
-6053 
-5842 
-5393 
-5550 
-6020 
-5934 
-5470 
-5526 
-5990 
-6009 
-5561 
-5484 
-5948 
-6099 
-5643 
-5449 
-5885 
-6178 
-5804 
-5485 
-5817 
-6202 
-5898 
-5499 
-5754 
-6197 
-6021 
-5574 
-5734 
-6217 
-6137 
-5647 
-5659 
-6136 
-6184 
-5692 
-5586 
-6061 
-6231 
-5797 
-5557 
-5966 
-6247 
-5836 
-5523 
-5900 
-6283 
-5974 
-5565 
-5816 
-6271 
-6082 
-5624 
-5760 
-6214 
-6158 
-5669 
-5664 
-6138 
-6183 
-5683 
-5571 
-6016 
-6188 
-5769 
-5563 
-5983 
-6301 
-5942 
-5607 
-5925 
-6317 
-6060 
-5652 
-5878 
-6334 
-6174 
-5733 
-5865 
-6331 
-6272 
-5809 
-5789 
-6194 
-6167 
-5576 
-5295 
-5550 
-5523 
-4947 
-4658 
-5155 
-5727 
-5674 
-5541 
-5944 
-6362 
-6073 
-5638 
-5851 
-6280 
-6121 
-5681 
-5799 
-6282 
-6249 
-5770 
-5775 
-6260 
-6347 
-5867 
-5730 
-6183 
-6374 
-5928 
-5662 
-6051 
-6368 
-6013 
-5661 
-5957 
-6365 
-6104 
-5675 
-5888 
-6343 
-6195 
-5718 
-5805 
-6294 
-6261 
-5739 
-5717 
-6191 
-6273 
-5794 
-5634 
-6055 
-6229 
-5781 
-5529 
-5904 
-6191 
-5808 
-5425 
-5699 
-6079 
-5800 
-5365 
-5567 
-6021 
-5871 
-5397 
-6625 
-8651 
-8289 
-7470 
-7228 
-7541 
-7510 
-6993 
-6784 
-7175 
-7377 
-6945 
-6666 
-7034 
-7347 
-6996 
-6663 
-6975 
-7367 
-7104 
-6671 
-6866 
-7306 
-7159 
-6661 
-6718 
-7167 
-7138 
-6658 
-6618 
-7066 
-7165 
-6697 
-6532 
-6957 
-7175 
-6740 
-6473 
-6834 
-7139 
-6812 
-6447 
-6732 
-7145 
-6891 
-6425 
-6593 
-7018 
-6862 
-6378 
-6437 
-6885 
-6845 
-6342 
-6303 
-6773 
-6870 
-6406 
-6222 
-5502 
-4173 
-4087 
-4166 
-4788 
-5309 
-5132 
-4883 
-5264 
-5756 
-5577 
-5190 
-5427 
-5936 
-5857 
-5420 
-5532 
-6038 
-6047 
-5588 
-5590 
-6095 
-6257 
-5818 
-5635 
-6079 
-6338 
-5935 
-5666 
-6033 
-6374 
-6024 
-5649 
-5925 
-6343 
-6133 
-5687 
-5864 
-6329 
-6219 
-5710 
-5769 
-6275 
-6276 
-5791 
-5727 
-6202 
-6342 
-5868 
-5682 
-6150 
-6408 
-5980 
-5667 
-6025 
-6377 
-6034 
-5636 
-5937 
-6360 
-6106 
-5637 
-5824 
-6286 
-6186 
-5701 
-5746 
-6232 
-6234 
-5746 
-5685 
-6172 
-6323 
-5874 
-5677 
-6108 
-6388 
-5978 
-5674 
-6031 
-6385 
-6065 
-5685 
-5939 
-6372 
-6171 
-5732 
-5885 
-6379 
-6289 
-5759 
-5779 
-6294 
-6348 
-5862 
-5786 
-6265 
-6433 
-5959 
-5735 
-6153 
-6438 
-6039 
-5720 
-6098 
-6488 
-6157 
-5735 
-5985 
-6439 
-6274 
-5797 
-5933 
-6417 
-6330 
-5809 
-5801 
-6297 
-6353 
-5870 
-5749 
-6209 
-6390 
-5959 
-5750 
-6193 
-6506 
-6101 
-5755 
-6115 
-6499 
-6181 
-5776 
-6035 
-6483 
-6281 
-5800 
-5958 
-6462 
-6356 
-5789 
-5705 
-6073 
-5959 
-5245 
-4894 
-5229 
-5406 
-5062 
-5083 
-5818 
-6320 
-6017 
-5672 
-5989 
-6385 
-6081 
-5666 
-5913 
-6384 
-6201 
-5729 
-5845 
-6347 
-6288 
-5796 
-5790 
-6272 
-6346 
-5849 
-5714 
-6171 
-6361 
-5920 
-5662 
-6092 
-6398 
-5978 
-5623 
-5953 
-6334 
-6045 
-5600 
-5825 
-6303 
-6127 
-5640 
-5751 
-6239 
-6200 
-5720 
-5714 
-6194 
-6257 
-5758 
-5633 
-6073 
-6239 
-5780 
-5524 
-5890 
-6192 
-5832 
-5475 
-5769 
-6160 
-5868 
-5419 
-5654 
-7475 
-8611 
-7743 
-7508 
-7755 
-7617 
-7052 
-6958 
-7359 
-7381 
-6885 
-6714 
-7130 
-7314 
-6855 
-6586 
-6955 
-7250 
-6852 
-6463 
-6734 
-7112 
-6797 
-6304 
-6455 
-6863 
-6716 
-6262 
-6368 
-6862 
-6856 
-6377 
-6336 
-6813 
-6913 
-6438 
-6286 
-6708 
-6916 
-6469 
-6184 
-6567 
-6894 
-6519 
-6146 
-6478 
-6898 
-6652 
-6220 
-6434 
-6888 
-6750 
-6290 
-6362 
-6834 
-6832 
-6358 
-6299 
-6769 
-6889 
-6432 
-5996 
-4530 
-4265 
-4253 
-4237 
-4832 
-5337 
-5099 
-4814 
-5168 
-5617 
-5396 
-4964 
-5172 
-5684 
-5612 
-5215 
-5361 
-5917 
-5957 
-5498 
-5482 
-5984 
-6113 
-5719 
-5605 
-6081 
-6335 
-5924 
-5666 
-6076 
-6452 
-6145 
-5788 
-6085 
-6523 
-6280 
-5821 
-5999 
-6479 
-6379 
-5914 
-5990 
-6466 
-6439 
-5922 
-5846 
-6309 
-6423 
-5927 
-5732 
-6173 
-6439 
-6022 
-5721 
-6072 
-6403 
-6059 
-5667 
-5968 
-6386 
-6114 
-5643 
-5855 
-6341 
-6233 
-5746 
-5814 
-6333 
-6354 
-5870 
-5816 
-6286 
-6440 
-5985 
-5790 
-6236 
-6494 
-6056 
-5735 
-6121 
-6492 
-6146 
-5744 
-6026 
-6444 
-6216 
-5752 
-5931 
-6442 
-6346 
-5832 
-5850 
-6348 
-6383 
-5881 
-5805 
-6294 
-6466 
-6019 
-5833 
-6281 
-6574 
-6163 
-5835 
-6201 
-6563 
-6251 
-5824 
-6087 
-6535 
-6301 
-5814 
-5959 
-6443 
-6345 
-5819 
-5800 
-6286 
-6357 
-5829 
-5748 
-6281 
-6478 
-6016 
-5812 
-6283 
-6597 
-6211 
-5878 
-6240 
-6648 
-6349 
-5964 
-6267 
-6795 
-6683 
-6292 
-6455 
-6898 
-6714 
-6090 
-5968 
-6302 
-6199 
-5601 
-5564 
-6341 
-6878 
-6624 
-6481 
-6968 
-7303 
-6873 
-6487 
-6866 
-7298 
-6967 
-6510 
-6762 
-7250 
-7014 
-6488 
-6641 
-7170 
-7123 
-6607 
-6606 
-7132 
-7250 
-6800 
-6689 
-7252 
-7543 
-7130 
-6933 
-7409 
-7765 
-7410 
-7088 
-7448 
-7865 
-7558 
-7098 
-7285 
-7731 
-7535 
-7040 
-7152 
-7616 
-7538 
-6997 
-6926 
-7373 
-7411 
-6906 
-6751 
-7209 
-7419 
-6986 
-6719 
-7112 
-7426 
-7071 
-6672 
-6937 
-7300 
-7011 
-6581 
-6760 
-7181 
-7014 
-6551 
-6684 
-7162 
-7141 
-7337 
-9309 
-9777 
-9553 
-8928 
-8678 
-9012 
-9188 
-8797 
-8550 
-8880 
-9161 
-8824 
-8493 
-8739 
-9078 
-8858 
-8511 
-8784 
-9248 
-9116 
-8679 
-8652 
-8807 
-8659 
-8283 
-8280 
-8612 
-8619 
-8155 
-7950 
-8269 
-8387 
-8024 
-7810 
-8110 
-8333 
-8078 
-7790 
-7884 
-8092 
-7871 
-7504 
-7701 
-8180 
-8132 
-7860 
-7940 
-8255 
-8311 
-8092 
-8115 
-8463 
-8737 
-8630 
-8469 
-8583 
-8519 
-8111 
-7889 
-8088 
-8202 
-8046 
-8034 
-8399 
-8834 
-8872 
-8663 
-8598 
-8602 
-8434 
-8184 
-8319 
-8728 
-8868 
-8841 
-9144 
-9595 
-9759 
-9667 
-9620 
-9623 
-9319 
-8892 
-8664 
-8710 
-8773 
-8679 
-8614 
-8722 
-8829 
-8705 
-8503 
-8461 
-8517 
-8284 
-7886 
-7523 
-5920 
-4931 
-5253 
-5598 
-6070 
-6563 
-7056 
-7567 
-8029 
-8375 
-8616 
-8859 
-9162 
-9508 
-9934 
-10513 
-11101 
-11470 
-11681 
-11997 
-12403 
-12692 
-12929 
-13291 
-13723 
-14080 
-14230 
-14411 
-14446 
-14264 
-14050 
-13828 
-13736 
-13557 
-13144 
-12568 
-12133 
-11927 
-11780 
-11625 
-11517 
-11467 
-11418 
-11376 
-11422 
-11403 
-11311 
-11198 
-11262 
-11455 
-11598 
-11683 
-11868 
-12202 
-12543 
-12864 
-13313 
-13861 
-14376 
-14888 
-15439 
-16040 
-16628 
-17169 
-17702 
-18252 
-18784 
-19249 
-19666 
-20115 
-20572 
-20934 
-21222 
-21508 
-21759 
-21890 
-21897 
-21879 
-21833 
-21698 
-21439 
-21156 
-20906 
-20606 
-20249 
-19843 
-19506 
-19195 
-18821 
-18416 
-18052 
-17678 
-17173 
-16649 
-16234 
-15853 
-15401 
-14997 
-14852 
-14923 
-14944 
-14837 
-14798 
-14751 
-14639 
-15969 
-16741 
-16236 
-15687 
-15126 
-14777 
-14576 
-14248 
-13798 
-13514 
-13393 
-13084 
-12591 
-12268 
-12161 
-11887 
-11414 
-11106 
-11066 
-10908 
-10462 
-10080 
-10061 
-9966 
-9520 
-9074 
-9023 
-8993 
-8590 
-8121 
-8073 
-8147 
-7786 
-7202 
-7002 
-6953 
-6428 
-5460 
-4719 
-3822 
-2011 
-765 
-534 
-320 
1019 
2542 
3351 
3655 
4128 
4727 
5124 
5210 
5325 
5703 
6033 
6096 
6117 
6423 
6712 
6822 
6870 
7114 
7390 
7411 
7297 
7400 
7601 
7609 
7499 
7496 
7610 
7658 
7539 
7562 
7707 
7763 
7678 
7677 
7842 
7987 
7962 
7994 
8129 
8270 
8278 
8253 
8391 
8511 
8535 
8529 
8670 
8850 
8892 
8830 
8911 
9073 
9107 
9007 
9054 
9192 
9252 
9152 
9119 
9232 
9325 
9247 
9194 
9300 
9437 
9336 
9246 
9357 
9480 
9433 
9320 
9337 
9493 
9471 
9364 
9355 
9451 
9546 
9421 
9411 
9531 
9557 
9445 
9412 
9568 
9646 
9632 
9763 
9755 
9787 
9713 
9600 
9676 
9803 
9750 
9658 
9689 
9827 
9847 
9723 
9728 
9861 
9867 
9761 
9784 
9923 
9969 
9886 
9853 
9966 
10067 
9997 
9937 
10043 
10160 
10103 
10005 
10113 
10257 
10233 
10130 
10218 
10366 
10366 
10276 
10311 
10504 
10537 
10449 
10464 
10596 
10640 
10582 
10558 
10653 
10728 
10692 
10656 
10725 
10851 
10829 
10764 
10843 
10948 
10929 
10822 
10893 
11045 
11064 
10999 
10993 
11098 
11161 
11056 
11089 
11221 
11263 
11167 
11183 
11276 
11387 
11319 
11276 
11370 
11486 
11416 
11358 
11446 
11581 
11547 
11465 
11475 
11618 
11671 
11540 
11560 
11719 
11735 
11643 
11647 
11785 
11899 
11847 
11821 
11956 
12053 
12004 
11959 
12014 
12074 
12030 
11921 
12007 
12131 
12127 
12028 
12054 
12191 
12196 
12097 
12138 
12295 
12324 
12202 
12233 
12372 
12482 
12529 
12681 
12991 
13334 
13575 
13792 
13977 
14010 
13616 
12953 
12473 
12428 
12438 
12445 
12605 
12854 
12916 
12807 
12848 
12993 
13029 
12924 
12930 
13048 
13137 
13063 
13049 
13177 
13276 
13208 
13155 
13279 
13413 
13364 
13327 
13400 
13526 
13532 
13464 
13523 
13655 
13700 
13603 
13625 
13781 
13850 
13769 
13773 
13939 
14029 
13945 
13952 
14115 
14272 
14199 
14181 
14286 
14407 
14423 
14405 
14507 
14654 
14689 
14623 
14687 
14874 
14936 
14873 
14929 
15091 
15160 
15076 
15045 
15223 
15294 
15197 
15143 
15217 
15273 
15124 
14869 
14880 
15069 
15003 
14904 
14991 
15094 
15078 
14968 
15038 
15198 
15221 
15125 
15134 
15271 
15330 
15231 
15232 
15401 
15484 
15405 
15354 
15490 
15598 
15529 
15485 
15549 
15649 
15640 
15569 
15651 
15796 
15761 
15677 
15739 
15838 
15832 
15759 
15800 
15933 
15946 
15862 
15867 
15987 
16044 
15969 
15932 
16066 
16159 
16108 
16022 
16110 
16223 
16185 
16120 
16191 
16291 
16278 
16203 
16221 
16350 
16361 
16310 
16348 
16449 
16474 
16395 
16390 
16516 
16612 
16549 
16478 
16559 
16661 
16632 
16572 
16651 
16749 
16729 
16635 
16702 
16845 
16831 
16718 
16772 
16912 
16936 
16842 
16848 
16974 
17002 
16917 
16934 
17044 
17121 
17009 
16973 
17101 
17206 
17167 
17080 
17169 
17278 
17239 
17166 
17243 
17381 
17371 
17259 
17299 
17450 
17476 
17373 
17373 
17511 
17574 
17491 
17460 
17592 
17726 
17776 
17748 
17773 
17825 
17738 
17687 
17765 
17858 
17821 
17739 
17824 
17950 
17939 
17856 
17887 
18036 
18063 
17948 
17934 
18082 
18152 
18076 
18066 
18184 
18243 
18186 
18114 
18241 
18362 
18352 
18307 
18370 
18528 
18525 
18408 
18471 
18564 
18519 
18375 
18421 
18547 
18574 
18477 
18489 
18615 
18683 
18597 
18573 
18693 
18757 
18655 
18591 
18750 
18931 
18998 
19094 
19399 
19758 
20038 
20135 
20184 
20186 
19774 
19067 
18678 
18712 
18772 
18749 
18890 
19064 
19169 
19094 
19033 
19128 
19196 
19105 
19067 
19207 
19322 
19270 
19213 
19265 
19384 
19377 
19275 
19348 
19495 
19483 
19371 
19395 
19548 
19581 
19505 
19502 
19608 
19682 
19638 
19607 
19700 
19768 
19724 
19675 
19796 
19925 
19872 
19798 
19889 
20013 
20053 
19960 
19998 
20149 
20171 
20110 
20140 
20308 
20380 
20342 
20316 
20432 
20525 
20471 
20452 
20535 
20652 
20609 
20525 
20564 
20625 
20550 
20423 
20284 
20314 
20284 
20171 
20192 
20299 
20257 
20104 
20095 
20180 
20187 
20089 
20133 
20214 
20230 
20164 
20117 
20197 
20265 
20219 
20154 
20232 
20318 
20303 
20221 
20253 
20376 
20334 
20292 
20357 
20459 
20453 
20325 
20314 
20447 
20495 
20396 
20379 
20483 
20577 
20493 
20434 
20522 
20598 
20508 
20460 
20542 
20649 
20611 
20532 
20634 
20695 
20639 
20555 
20589 
20721 
20722 
20646 
20691 
20769 
20784 
20712 
20696 
20784 
20835 
20734 
20705 
20801 
20895 
20817 
20741 
20807 
20932 
20882 
20790 
20855 
20958 
20955 
20851 
20890 
20992 
21004 
20896 
20924 
21015 
21070 
20980 
20938 
21041 
21087 
20996 
20979 
21072 
21269 
21320 
21186 
21219 
21262 
21207 
21101 
21128 
21273 
21228 
21137 
21183 
21272 
21270 
21196 
21194 
21305 
21351 
21274 
21265 
21336 
21386 
21303 
21255 
21354 
21444 
21391 
21316 
21387 
21481 
21416 
21334 
21404 
21543 
21500 
21411 
21424 
21525 
21568 
21470 
21435 
21556 
21609 
21518 
21495 
21570 
21660 
21582 
21534 
21582 
21686 
21634 
21568 
21670 
21780 
21736 
21665 
21738 
21883 
21849 
21719 
21728 
21814 
21782 
21676 
21677 
21801 
21817 
21673 
21648 
21773 
21839 
21745 
21662 
21761 
21881 
21816 
21750 
21886 
22120 
22241 
22347 
22627 
23055 
23285 
23243 
23106 
22855 
22260 
21685 
21551 
21691 
21811 
21854 
21908 
22009 
22067 
22009 
21959 
22020 
22075 
22024 
21959 
22023 
22170 
22105 
21996 
22071 
22217 
22192 
22070 
22088 
22199 
22254 
22150 
22125 
22279 
22319 
22239 
22208 
22305 
22374 
22306 
22270 
22358 
22464 
22402 
22342 
22414 
22509 
22480 
22399 
22464 
22619 
22626 
22537 
22580 
22713 
22760 
22700 
22708 
22821 
22881 
22815 
22791 
22897 
23005 
22942 
22907 
23006 
23077 
23007 
22948 
22976 
23026 
22941 
22787 
22750 
22821 
22780 
22603 
22572 
22658 
22620 
22474 
22443 
22528 
22539 
22446 
22385 
22480 
22540 
22441 
22385 
22449 
22535 
22461 
22374 
22449 
22543 
22479 
22375 
22410 
22506 
22494 
22380 
22392 
22518 
22498 
22375 
22361 
22451 
22484 
22360 
22309 
22302 
22225 
22199 
22155 
22241 
22322 
22235 
22161 
22193 
22252 
22196 
22073 
22074 
22144 
22090 
21950 
21909 
21968 
21949 
21798 
21708 
21769 
21779 
21667 
21564 
21472 
21282 
21081 
21065 
21179 
21293 
21295 
21281 
21342 
21377 
21367 
21330 
21363 
21396 
21405 
21307 
21298 
21316 
21309 
21228 
21225 
21270 
21251 
21200 
21198 
21235 
21225 
21155 
21126 
21152 
21169 
21110 
21084 
21116 
21135 
21096 
21049 
21064 
21067 
21082 
21055 
21001 
21042 
21030 
20952 
20942 
20986 
20952 
20914 
20886 
20921 
20934 
20845 
20782 
20836 
20868 
20815 
20776 
20795 
20800 
20754 
20690 
20689 
20718 
20668 
20611 
20606 
20642 
20612 
20556 
20568 
20566 
20535 
20442 
20403 
20469 
20470 
20425 
20384 
20360 
20345 
20296 
20295 
20296 
20313 
20292 
20297 
20327 
20314 
20278 
20239 
20194 
20155 
20082 
20062 
20029 
20029 
20003 
20017 
20018 
19976 
19973 
19976 
19938 
19928 
19909 
19902 
19926 
20017 
20146 
20261 
20443 
20691 
21035 
21226 
21170 
20972 
20538 
19932 
19549 
19426 
19499 
19632 
19841 
19768 
19678 
19680 
19704 
19719 
19660 
19619 
19636 
19697 
19672 
19620 
19630 
19636 
19639 
19624 
19573 
19612 
19645 
19590 
19559 
19566 
19568 
19567 
19556 
19556 
19586 
19585 
19571 
19593 
19592 
19582 
19553 
19548 
19609 
19618 
19578 
19558 
19557 
19608 
19685 
19645 
19652 
19701 
19609 
19643 
19713 
19699 
19666 
19705 
19793 
19862 
19708 
19693 
19840 
19930 
20061 
20098 
19572 
19616 
19642 
19511 
19456 
19485 
19455 
19410 
19306 
19240 
19232 
19111 
19038 
19084 
19079 
18998 
18933 
18888 
18916 
18915 
18873 
18876 
18935 
18923 
18795 
18715 
18722 
18661 
18617 
18716 
18750 
18776 
18775 
18662 
18628 
18646 
18633 
18653 
18696 
18734 
18719 
18680 
18691 
18725 
18692 
18647 
18677 
18730 
18698 
18611 
18607 
18694 
18636 
18568 
18576 
18617 
18568 
18525 
18538 
18539 
18478 
18417 
18394 
18434 
18435 
18373 
18324 
18348 
18387 
18381 
18300 
18297 
18375 
18366 
18296 
18266 
18276 
18277 
18223 
18245 
18255 
18277 
18219 
18196 
18197 
18228 
18206 
18134 
18163 
18212 
18207 
18188 
18062 
18129 
18176 
18054 
18051 
18105 
18108 
18051 
17991 
18049 
18024 
17990 
17972 
18009 
17998 
17908 
17902 
17960 
17948 
17899 
17869 
17888 
17924 
17921 
17863 
17883 
17917 
17849 
17783 
17850 
17904 
17794 
17792 
17768 
17768 
17769 
17735 
17726 
17750 
17768 
17734 
17691 
17768 
17738 
17650 
17648 
17676 
17701 
17656 
17594 
17632 
17651 
17611 
17605 
17640 
17713 
17697 
17623 
17638 
17673 
17666 
17591 
17577 
17572 
17573 
17533 
17468 
17498 
17552 
17527 
17420 
17406 
17432 
17358 
17336 
17362 
17345 
17327 
17354 
17470 
17627 
17777 
17921 
18227 
18540 
18530 
18359 
18032 
17583 
17094 
16818 
16798 
16928 
17016 
17080 
17127 
17156 
17167 
17153 
17147 
17077 
17135 
17101 
17054 
17098 
17094 
17064 
17040 
17042 
17058 
17049 
16993 
17022 
17076 
17073 
17024 
17016 
17019 
17042 
17029 
16982 
17024 
17017 
16987 
17014 
17109 
17037 
17015 
16961 
16973 
17039 
17061 
16982 
17007 
17096 
17101 
17044 
17089 
17151 
17160 
17124 
17134 
17203 
17223 
17183 
17165 
17254 
17291 
17214 
17176 
17282 
17287 
17218 
17134 
17114 
17148 
17044 
16904 
16883 
16854 
16743 
16682 
16586 
16590 
16580 
16536 
16477 
16456 
16471 
16422 
16387 
16405 
16420 
16360 
16319 
16375 
16412 
16338 
16277 
16374 
16382 
16293 
16238 
16278 
16343 
16319 
16246 
16245 
16269 
16273 
16237 
16213 
16229 
16257 
16244 
16272 
16229 
16131 
16155 
16144 
16156 
16178 
16157 
16104 
16106 
16143 
16135 
16076 
16079 
16152 
16123 
16009 
16010 
16071 
16055 
16006 
15985 
16012 
16049 
16013 
15986 
16002 
15979 
15933 
15885 
15892 
15971 
15948 
15882 
15904 
15929 
15904 
15849 
15863 
15893 
15885 
15794 
15802 
15854 
15837 
15811 
15810 
15881 
15846 
15741 
15733 
15771 
15807 
15771 
15732 
15745 
15765 
15754 
15723 
15659 
15713 
15754 
15662 
15630 
15695 
15681 
15643 
15686 
15752 
15694 
15613 
15594 
15616 
15621 
15590 
15587 
15615 
15546 
15517 
15456 
15495 
15520 
15502 
15438 
15463 
15549 
15482 
15420 
15413 
15445 
15480 
15425 
15373 
15392 
15428 
15372 
15342 
15362 
15388 
15367 
15312 
15320 
15413 
15429 
15314 
15271 
15349 
15327 
15236 
15243 
15295 
15345 
15318 
15355 
15362 
15304 
15291 
15280 
15340 
15357 
15255 
15181 
15211 
15218 
15123 
15091 
15167 
15203 
15141 
15076 
15101 
15141 
15079 
15001 
15003 
15065 
15130 
15200 
15269 
15472 
15717 
15905 
16172 
16352 
16310 
16024 
15556 
15011 
14728 
14628 
14676 
14812 
14953 
14956 
14894 
14863 
14877 
14942 
14874 
14831 
14888 
14856 
14790 
14788 
14828 
14885 
14780 
14714 
14789 
14841 
14794 
14741 
14789 
14831 
14809 
14797 
14797 
14807 
14768 
14744 
14772 
14816 
14822 
14732 
14745 
14811 
14845 
14815 
14788 
14802 
14838 
14810 
14815 
14831 
14912 
14840 
14812 
14891 
14968 
14940 
14922 
15005 
15056 
15007 
14963 
14994 
15064 
15068 
15012 
15046 
15081 
15101 
14973 
14804 
14848 
14829 
14689 
14652 
14655 
14614 
14565 
14462 
14433 
14445 
14447 
14357 
14345 
14365 
14348 
14291 
14308 
14347 
14283 
14251 
14289 
14351 
14330 
14274 
14302 
14239 
14253 
14223 
14199 
14253 
14308 
14222 
14200 
14223 
14238 
14232 
14220 
14235 
14234 
14198 
14175 
14223 
14235 
14246 
14203 
14226 
14247 
14242 
14146 
14138 
14256 
14227 
14144 
14135 
14162 
14184 
14208 
14135 
14181 
14222 
14196 
14142 
14181 
14236 
14135 
14105 
14115 
14191 
14197 
14153 
14139 
14197 
14203 
14184 
14140 
14179 
14218 
14178 
14179 
14186 
14233 
14208 
14112 
14137 
14229 
14195 
14136 
14163 
14248 
14279 
14162 
14155 
14243 
14203 
14178 
14197 
14180 
14212 
14178 
14156 
14199 
14232 
14182 
14150 
14208 
14238 
14191 
14153 
14203 
14234 
14205 
14161 
14213 
14264 
14268 
14202 
14171 
14198 
14204 
14134 
14171 
14215 
14252 
14225 
14169 
14217 
14248 
14241 
14184 
14207 
14201 
14258 
14152 
14180 
14263 
14215 
14115 
14159 
14246 
14194 
14139 
14171 
14210 
14189 
14146 
14172 
14262 
14239 
14194 
14185 
14274 
14291 
14240 
14204 
14294 
14314 
14240 
14214 
14216 
14271 
14153 
14071 
14142 
14198 
14163 
14137 
14155 
14134 
14169 
14144 
14131 
14143 
14111 
14089 
14176 
14310 
14455 
14598 
14843 
15077 
15327 
15396 
15239 
14983 
14483 
13992 
13763 
13766 
13884 
13978 
14024 
14084 
14137 
14160 
14095 
14037 
14088 
14110 
14051 
14056 
14080 
14138 
14074 
13974 
14055 
14104 
14059 
14011 
14065 
14092 
14047 
14005 
14026 
14105 
14110 
14039 
14055 
14038 
14042 
14017 
14005 
14059 
14075 
14018 
14008 
14078 
14127 
14109 
14107 
14054 
14116 
14105 
14078 
14109 
14168 
14175 
14133 
14145 
14225 
14251 
14212 
14207 
14258 
14290 
14218 
14214 
14289 
14322 
14251 
14184 
14181 
14144 
14032 
13931 
13893 
13919 
13882 
13735 
13676 
13680 
13595 
13541 
13526 
13522 
13503 
13432 
13401 
13454 
13472 
13382 
13355 
13406 
13392 
13323 
13287 
13342 
13347 
13292 
13251 
13274 
13353 
13271 
13204 
13214 
13252 
13267 
13245 
13179 
13184 
13217 
13132 
13119 
13180 
13140 
13104 
13074 
13120 
13117 
13057 
13005 
13064 
13113 
13004 
12956 
13011 
13026 
12979 
12932 
12960 
12965 
12962 
12919 
12851 
12896 
12915 
12837 
12849 
12914 
12885 
12745 
12764 
12869 
12835 
12705 
12691 
12754 
12785 
12706 
12672 
12704 
12715 
12713 
12646 
12613 
12677 
12648 
12568 
12559 
12643 
12607 
12558 
12565 
12602 
12599 
12598 
12506 
12470 
12544 
12471 
12428 
12524 
12518 
12452 
12409 
12420 
12472 
12419 
12367 
12406 
12452 
12377 
12348 
12396 
12515 
12380 
12277 
12306 
12369 
12405 
12315 
12235 
12339 
12373 
12268 
12222 
12291 
12284 
12256 
12211 
12239 
12295 
12246 
12189 
12237 
12280 
12233 
12114 
12143 
12244 
12275 
12164 
12101 
12196 
12207 
12168 
12142 
12134 
12125 
12046 
11987 
12040 
12078 
11991 
11917 
11966 
11992 
11967 
11907 
11944 
11911 
11858 
11839 
11825 
11912 
11977 
12022 
12212 
12406 
12627 
12793 
13044 
13129 
13016 
12567 
12011 
11625 
11501 
11519 
11554 
11689 
11819 
11799 
11714 
11726 
11793 
11748 
11689 
11724 
11745 
11731 
11680 
11675 
11748 
11729 
11696 
11717 
11712 
11729 
11685 
11671 
11708 
11725 
11653 
11622 
11740 
11787 
11699 
11673 
11703 
11756 
11758 
11693 
11698 
11779 
11739 
11708 
11741 
11806 
11813 
11766 
11786 
11847 
11871 
11865 
11938 
11930 
11953 
11956 
11913 
11974 
12041 
12031 
12008 
12020 
12096 
12081 
12024 
12069 
12087 
12046 
11931 
11884 
11881 
11813 
11730 
11658 
11630 
11638 
11591 
11473 
11455 
11458 
11422 
11414 
11398 
11408 
11376 
11311 
11352 
11408 
11391 
11314 
11325 
11364 
11341 
11274 
11273 
11375 
11368 
11266 
11230 
11321 
11352 
11288 
11291 
11344 
11326 
11272 
11230 
11280 
11332 
11338 
11214 
11223 
11273 
11293 
11243 
11241 
11273 
11290 
11233 
11205 
11261 
11294 
11247 
11180 
11228 
11270 
11210 
11170 
11186 
11265 
11228 
11188 
11161 
11219 
11214 
11167 
11122 
11173 
11170 
11088 
11117 
11175 
11198 
11162 
11134 
11173 
11176 
11105 
11076 
11152 
11200 
11111 
11129 
11121 
11144 
11076 
11016 
11098 
11149 
11138 
11079 
11097 
11094 
11097 
11102 
11084 
11110 
11085 
11035 
11050 
11096 
11115 
11029 
11010 
11099 
11111 
11039 
10999 
11104 
11148 
11050 
10981 
11024 
11082 
11107 
11068 
10982 
11056 
11094 
11004 
10985 
11055 
11058 
11043 
11007 
11025 
11059 
10976 
10974 
11030 
11070 
11026 
10987 
11020 
11088 
11039 
10968 
11005 
11071 
11017 
10951 
11014 
11061 
11018 
10985 
11002 
11041 
11046 
11035 
10990 
10985 
11061 
10980 
10951 
11031 
11097 
11090 
11039 
11073 
11142 
11103 
11051 
11164 
11091 
11007 
10922 
10960 
11033 
11002 
10923 
10980 
11034 
11025 
10943 
10906 
10986 
11004 
10939 
10928 
11028 
11152 
11237 
11328 
11642 
12034 
12268 
12330 
12418 
12239 
11758 
11128 
10799 
10766 
10834 
10871 
10917 
11054 
11051 
10968 
10965 
11030 
11037 
10984 
10962 
11024 
11048 
10993 
10920 
10975 
11066 
11042 
11007 
11028 
11092 
11046 
10949 
11005 
11098 
11101 
11007 
10993 
11071 
11146 
11096 
11028 
11088 
11131 
11108 
11093 
11168 
11167 
11113 
11099 
11183 
11264 
11265 
11161 
11228 
11296 
11303 
11287 
11349 
11407 
11405 
11384 
11408 
11502 
11542 
11544 
11470 
11514 
11623 
11569 
11490 
11540 
11557 
11487 
11310 
11330 
11357 
11239 
11123 
11114 
11155 
11064 
11003 
11015 
11003 
10987 
10909 
10891 
10934 
10952 
10889 
10878 
10942 
10952 
10886 
10844 
10889 
10954 
10884 
10832 
10883 
10926 
10874 
10867 
10916 
10889 
10895 
10842 
10846 
10901 
10897 
10843 
10816 
10895 
10952 
10851 
10811 
10876 
10889 
10860 
10844 
10867 
10939 
10810 
10780 
10844 
10875 
10844 
10849 
10827 
10870 
10837 
10776 
10781 
10893 
10875 
10777 
10785 
10856 
10904 
10855 
10802 
10771 
10820 
10774 
10758 
10844 
10892 
10785 
10749 
10825 
10856 
10804 
10778 
10775 
10824 
10821 
10738 
10760 
10827 
10846 
10810 
10736 
10734 
10776 
10757 
10760 
10811 
10811 
10722 
10708 
10723 
10796 
10807 
10751 
10773 
10833 
10773 
10715 
10737 
10804 
10816 
10718 
10707 
10769 
10771 
10701 
10719 
10799 
10834 
10726 
10656 
10739 
10821 
10698 
10638 
10710 
10776 
10748 
10684 
10730 
10810 
10770 
10719 
10708 
10749 
10760 
10639 
10651 
10766 
10765 
10690 
10703 
10772 
10746 
10692 
10663 
10715 
10751 
10715 
10660 
10709 
10794 
10739 
10678 
10693 
10748 
10764 
10745 
10688 
10722 
10730 
10661 
10697 
10779 
10807 
10786 
10720 
10790 
10832 
10816 
10740 
10746 
10745 
10662 
10620 
10706 
10748 
10686 
10623 
10681 
10757 
10668 
10611 
10601 
10658 
10731 
10726 
10708 
10808 
10994 
11137 
11305 
11627 
11961 
11988 
11879 
11660 
11167 
10628 
10373 
10404 
10497 
10566 
10619 
10729 
10765 
10765 
10665 
10700 
10784 
10758 
10650 
10669 
10766 
10814 
10716 
10664 
10763 
10788 
10769 
10720 
10758 
10816 
10772 
10736 
10794 
10853 
10845 
10816 
10768 
10899 
10921 
10770 
10812 
10889 
10876 
10838 
10875 
11000 
10993 
10901 
10899 
10986 
11050 
11017 
10983 
11067 
11153 
11147 
11103 
11138 
11210 
11204 
11177 
11240 
11304 
11321 
11298 
11332 
11393 
11340 
11302 
11312 
11298 
11279 
11168 
11044 
11079 
11038 
10922 
10897 
10881 
10838 
10790 
10681 
10675 
10728 
10704 
10640 
10683 
10705 
10675 
10614 
10603 
10640 
10647 
10578 
10577 
10658 
10707 
10608 
10545 
10614 
10671 
10630 
10589 
10660 
10687 
10630 
10531 
10575 
10670 
10635 
10583 
10640 
10670 
10640 
10564 
10585 
10664 
10698 
10576 
10537 
10606 
10636 
10606 
10566 
10640 
10682 
10628 
10535 
10612 
10659 
10620 
10565 
10535 
10630 
10636 
10585 
10514 
10586 
10593 
10529 
10557 
10644 
10631 
10542 
10539 
10567 
10593 
10524 
10512 
10586 
10596 
10562 
10489 
10557 
10608 
10588 
10508 
10512 
10606 
10605 
10526 
10575 
10611 
10564 
10511 
10483 
10561 
10572 
10515 
10475 
10565 
10604 
10516 
10469 
10526 
10577 
10526 
10496 
10588 
10636 
10597 
10475 
10469 
10565 
10570 
10502 
10496 
10524 
10542 
10501 
10486 
10592 
10575 
10493 
10465 
10521 
10597 
10534 
10466 
10537 
10611 
10527 
10432 
10490 
10558 
10511 
10467 
10518 
10561 
10549 
10462 
10489 
10544 
10533 
10469 
10469 
10520 
10580 
10527 
10468 
10524 
10591 
10453 
10434 
10542 
10598 
10510 
10448 
10515 
10565 
10532 
10534 
10603 
10602 
10574 
10521 
10578 
10684 
10657 
10477 
10498 
10541 
10548 
10455 
10434 
10543 
10599 
10503 
10427 
10530 
10551 
10468 
10432 
10480 
10563 
10578 
10491 
10598 
10871 
11038 
11135 
11443 
11851 
11984 
11834 
11586 
11143 
10600 
10258 
10230 
10361 
10499 
10507 
10510 
10556 
10617 
10573 
10467 
10583 
10632 
10513 
10453 
10503 
10594 
10574 
10513 
10538 
10650 
10677 
10537 
10505 
10581 
10604 
10560 
10541 
10644 
10675 
10585 
10607 
10685 
10692 
10638 
10589 
10624 
10734 
10727 
10683 
10764 
10829 
10755 
10675 
10733 
10848 
10875 
10813 
10845 
10936 
10971 
10942 
10976 
11050 
11113 
11036 
10991 
11055 
11121 
11118 
11101 
11164 
11198 
11177 
11093 
11112 
11129 
11010 
10922 
10849 
10879 
10839 
10740 
10676 
10719 
10662 
10599 
10549 
10567 
10600 
10505 
10442 
10480 
10544 
10516 
10480 
10505 
10559 
10523 
10449 
10447 
10514 
10537 
10462 
10489 
10530 
10557 
10465 
10424 
10472 
10502 
10505 
10453 
10487 
10523 
10456 
10448 
10508 
10540 
10514 
10419 
10464 
10565 
10558 
10425 
10420 
10503 
10524 
10453 
10479 
10544 
10588 
10473 
10393 
10495 
10523 
10438 
10404 
10505 
10537 
10456 
10424 
10474 
10513 
10485 
10384 
10403 
10487 
10470 
10423 
10419 
10480 
10463 
10408 
10432 
10542 
10589 
10487 
10452 
10432 
10464 
10432 
10439 
10538 
10484 
10480 
10382 
10401 
10469 
10465 
10417 
10420 
10487 
10499 
10445 
10431 
10490 
10507 
10405 
10401 
10478 
10522 
10497 
10396 
10453 
10515 
10428 
10409 
10472 
10528 
10477 
10362 
10357 
10455 
10500 
10419 
10383 
10486 
10480 
10400 
10450 
10482 
10478 
10403 
10406 
10485 
10487 
10417 
10383 
10461 
10548 
10462 
10401 
10494 
10578 
10502 
10413 
10427 
10514 
10484 
10444 
10459 
10461 
10477 
10420 
10418 
10471 
10489 
10413 
10414 
10472 
10491 
10427 
10405 
10495 
10515 
10444 
10419 
10475 
10492 
10467 
10386 
10491 
10529 
10436 
10381 
10443 
10564 
10567 
10494 
10498 
10575 
10644 
10548 
10500 
10537 
10537 
10401 
10381 
10490 
10539 
10485 
10456 
10490 
10566 
10461 
10389 
10426 
10549 
10486 
10362 
10415 
10616 
10747 
10758 
10964 
11324 
11654 
11856 
11883 
11778 
11457 
10836 
10383 
10232 
10309 
10314 
10363 
10528 
10580 
10506 
10440 
10520 
10570 
10516 
10443 
10470 
10578 
10573 
10449 
10516 
10608 
10599 
10503 
10466 
10583 
10623 
10566 
10529 
10587 
10669 
10590 
10546 
10590 
10670 
10637 
10569 
10591 
10719 
10635 
10558 
10634 
10687 
10725 
10682 
10677 
10750 
10791 
10734 
10750 
10857 
10932 
10859 
10831 
10924 
10970 
10978 
10954 
11017 
11089 
11065 
11043 
11093 
11145 
11167 
11159 
11134 
11132 
11066 
10962 
10937 
10960 
10920 
10792 
10774 
10771 
10661 
10622 
10557 
10555 
10589 
10527 
10475 
10471 
10528 
10537 
10526 
10461 
10502 
10515 
10436 
10458 
10549 
10516 
10442 
10436 
10545 
10544 
10462 
10427 
10483 
10531 
10461 
10418 
10491 
10544 
10479 
10400 
10425 
10543 
10517 
10432 
10471 
10529 
10545 
10491 
10445 
10490 
10529 
10424 
10419 
10575 
10547 
10405 
10387 
10434 
10475 
10417 
10438 
10495 
10529 
10453 
10418 
10460 
10483 
10472 
10466 
10478 
10494 
10448 
10380 
10462 
10544 
10479 
10395 
10365 
10422 
10463 
10402 
10366 
10485 
10519 
10427 
10392 
10464 
10516 
10460 
10382 
10443 
10515 
10494 
10399 
10380 
10527 
10505 
10414 
10429 
10455 
10480 
10429 
10365 
10473 
10502 
10420 
10388 
10485 
10505 
10401 
10389 
10453 
10498 
10431 
10363 
10411 
10485 
10497 
10409 
10382 
10490 
10469 
10404 
10449 
10449 
10482 
10431 
10422 
10473 
10490 
10431 
10423 
10463 
10500 
10448 
10402 
10437 
10497 
10451 
10353 
10438 
10560 
10466 
10358 
10425 
10542 
10553 
10416 
10403 
10489 
10520 
10436 
10474 
10598 
10599 
10509 
10511 
10574 
10629 
10568 
10496 
10542 
10549 
10452 
10419 
10490 
10548 
10526 
10438 
10425 
10510 
10512 
10421 
10432 
10534 
10517 
10425 
10457 
10656 
10835 
10951 
11115 
11391 
11728 
11806 
11731 
11525 
11090 
10505 
10199 
10187 
10288 
10322 
10370 
10472 
10617 
10613 
10481 
10466 
10551 
10568 
10525 
10512 
10547 
10617 
10536 
10447 
10561 
10621 
10572 
10521 
10565 
10635 
10585 
10554 
10628 
10695 
10637 
10561 
10588 
10651 
10668 
10629 
10614 
10715 
10762 
10687 
10641 
10742 
10789 
10776 
10739 
10785 
10866 
10860 
10841 
10950 
10963 
10947 
10910 
10962 
11081 
11076 
11039 
11090 
11219 
11137 
11070 
11130 
11229 
11240 
11186 
11112 
11136 
11178 
11079 
10983 
10996 
11050 
10854 
10717 
10732 
10778 
10737 
10651 
10718 
10705 
10583 
10535 
10559 
10660 
10654 
10593 
10570 
10653 
10735 
10644 
10569 
10672 
10703 
10633 
10578 
10638 
10714 
10709 
10613 
10705 
10752 
10640 
10622 
10640 
10685 
10695 
10602 
10648 
10800 
10714 
10641 
10605 
10695 
10706 
10624 
10610 
10697 
10755 
10665 
10605 
10685 
10733 
10664 
10607 
10681 
10788 
10650 
10561 
10663 
10730 
10699 
10603 
10629 
10666 
10701 
10637 
10588 
10668 
10705 
10659 
10633 
10705 
10733 
10668 
10649 
10641 
10693 
10663 
10597 
10619 
10645 
10588 
10527 
10501 
10599 
10582 
10517 
10496 
10608 
10617 
10509 
10482 
10564 
10609 
10537 
10456 
10568 
10603 
10496 
10433 
10511 
10606 
10566 
10491 
10471 
10544 
10578 
10494 
10486 
10580 
10563 
10473 
10494 
10602 
10559 
10468 
10467 
10555 
10596 
10493 
10443 
10508 
10604 
10556 
10432 
10500 
10590 
10518 
10441 
10530 
10896 
10992 
10753 
10665 
10677 
10666 
10570 
10524 
10606 
10606 
10551 
10541 
10619 
10592 
10549 
10576 
10609 
10635 
10644 
10567 
10634 
10729 
10644 
10520 
10571 
10634 
10568 
10456 
10477 
10564 
10593 
10489 
10456 
10523 
10553 
10521 
10511 
10526 
10528 
10504 
10526 
10747 
10773 
10858 
11028 
11355 
11765 
12006 
11942 
11865 
11550 
10933 
10380 
10204 
10360 
10459 
10493 
10589 
10683 
10644 
10495 
10503 
10599 
10626 
10530 
10503 
10585 
10626 
10539 
10463 
10552 
10605 
10580 
10544 
10529 
10614 
10614 
10531 
10579 
10633 
10602 
10537 
10532 
10638 
10722 
10631 
10568 
10681 
10721 
10651 
10632 
10708 
10795 
10697 
10663 
10742 
10826 
10870 
10799 
10755 
10937 
10943 
10888 
10905 
11051 
11077 
11039 
11019 
11080 
11152 
11140 
11115 
11177 
11217 
11145 
11061 
11105 
11135 
11039 
10921 
10910 
10908 
10815 
10715 
10719 
10744 
10659 
10553 
10529 
10598 
10634 
10511 
10418 
10503 
10523 
10492 
10315 
9994 
10157 
10187 
10218 
10350 
10411 
10371 
10256 
10301 
10437 
10400 
10365 
10381 
10474 
10471 
10364 
10384 
10447 
10489 
10414 
10338 
10458 
10522 
10424 
10345 
10434 
10498 
10443 
10350 
10392 
10431 
10382 
10343 
10399 
10511 
10451 
10382 
10387 
10499 
10538 
10388 
10352 
10449 
10475 
10423 
10405 
10439 
10488 
10427 
10331 
10422 
10488 
10475 
10367 
10390 
10496 
10416 
10328 
10373 
10469 
10451 
10344 
10385 
10463 
10459 
10377 
10397 
10450 
10474 
10408 
10327 
10395 
10462 
10411 
10346 
10412 
10482 
10505 
10787 
10837 
10755 
10625 
10513 
10519 
10563 
10580 
10437 
10399 
10514 
10535 
10444 
10455 
10497 
10515 
10412 
10380 
10460 
10523 
10452 
10388 
10442 
10484 
10495 
10355 
10400 
10527 
10507 
10378 
10334 
10481 
10477 
10419 
10401 
10478 
10438 
10379 
10345 
10457 
10507 
10430 
10401 
10434 
10446 
10394 
10359 
10427 
10514 
10451 
10362 
10420 
10524 
10447 
10364 
10381 
10476 
10464 
10381 
10418 
10466 
10417 
10413 
10450 
10516 
10516 
10444 
10447 
10560 
10620 
10522 
10421 
10439 
10499 
10431 
10344 
10411 
10512 
10452 
10389 
10379 
10431 
10439 
10385 
10376 
10452 
10428 
10339 
10415 
10640 
10849 
10955 
11107 
11544 
11847 
11840 
11686 
11425 
10929 
10413 
10196 
10193 
10319 
10353 
10341 
10434 
10535 
10551 
10425 
10382 
10497 
10510 
10451 
10440 
10512 
10609 
10490 
10367 
10457 
10576 
10562 
10423 
10469 
10553 
10535 
10457 
10521 
10622 
10567 
10524 
10526 
10616 
10627 
10529 
10564 
10707 
10673 
10588 
10580 
10696 
10766 
10684 
10656 
10751 
10812 
10748 
10710 
10786 
10905 
10913 
10811 
10866 
10993 
10982 
10907 
10955 
11084 
11140 
11037 
11026 
11121 
11158 
11132 
10965 
11024 
11044 
10903 
10835 
10886 
10855 
10714 
10590 
10676 
10719 
10566 
10468 
10460 
10506 
10151 
9979 
10124 
10267 
10341 
10253 
10258 
10383 
10411 
10359 
10289 
10358 
10407 
10359 
10311 
10438 
10478 
10415 
10285 
10368 
10459 
10417 
10377 
10371 
10393 
10402 
10356 
10328 
10497 
10460 
10357 
10342 
10444 
10450 
10362 
10314 
10372 
10446 
10388 
10341 
10358 
10420 
10393 
10326 
10383 
10495 
10393 
10299 
10298 
10406 
10389 
10296 
10301 
10440 
10413 
10265 
10298 
10395 
10432 
10352 
10295 
10393 
10485 
10365 
10328 
10356 
10415 
10362 
10244 
10285 
10362 
10328 
10252 
10310 
10403 
10387 
10310 
10278 
10353 
10561 
10838 
10658 
10658 
10610 
10446 
10364 
10453 
10538 
10384 
10258 
10334 
10412 
10359 
10308 
10374 
10493 
10404 
10293 
10314 
10387 
10452 
10333 
10328 
10403 
10399 
10363 
10364 
10473 
10411 
10294 
10252 
10345 
10481 
10398 
10317 
10398 
10454 
10403 
10319 
10366 
10480 
10473 
10403 
10428 
10570 
10510 
10373 
10379 
10444 
10435 
10403 
10320 
10328 
10394 
10268 
10267 
10362 
10405 
10339 
10282 
10285 
10386 
10350 
10301 
10414 
10589 
10748 
10834 
11140 
11468 
11622 
11503 
11253 
10929 
10426 
10077 
10008 
10153 
10261 
10219 
10230 
10351 
10413 
10364 
10275 
10333 
10465 
10455 
10349 
10340 
10420 
10438 
10368 
10395 
10525 
10511 
10333 
10301 
10460 
10490 
10415 
10389 
10463 
10514 
10470 
10386 
10470 
10563 
10505 
10418 
10489 
10564 
10570 
10512 
10543 
10644 
10616 
10606 
10612 
10639 
10659 
10666 
10658 
10802 
10863 
10775 
10737 
10853 
10920 
10868 
10877 
10965 
11009 
11014 
10962 
10982 
11026 
10989 
10894 
10843 
10883 
10809 
10659 
10573 
10629 
10643 
10476 
10366 
10431 
10427 
9995 
9766 
10063 
10092 
10064 
10030 
10162 
10269 
10191 
10067 
10123 
10239 
10220 
10146 
10148 
10268 
10221 
10135 
10152 
10210 
10265 
10174 
10144 
10219 
10276 
10225 
10218 
10286 
10290 
10217 
10112 
10231 
10300 
10234 
10175 
10158 
10253 
10250 
10175 
10188 
10284 
10286 
10250 
10210 
10246 
10295 
10218 
10204 
10224 
10235 
10185 
10176 
10259 
10321 
10238 
10143 
10190 
10226 
10196 
10097 
10231 
10761 
10715 
10469 
10427 
10412 
10378 
10268 
10265 
10350 
10325 
10235 
10232 
10304 
10313 
10246 
10194 
10238 
10366 
10227 
10131 
10227 
10291 
10266 
10184 
10230 
10308 
10242 
10163 
10163 
10252 
10296 
10218 
10156 
10222 
10267 
10219 
10188 
10205 
10216 
10168 
10161 
10217 
10287 
10259 
10175 
10184 
10314 
10287 
10193 
10246 
10385 
10386 
10205 
10256 
10303 
10268 
10159 
10126 
10205 
10254 
10210 
10180 
10235 
10290 
10181 
10081 
10145 
10228 
10137 
10068 
10203 
10367 
10431 
10535 
10747 
11050 
11370 
11481 
11445 
11375 
10997 
10375 
9995 
10018 
10037 
10027 
10101 
10215 
10271 
10198 
10141 
10176 
10259 
10205 
10201 
10217 
10226 
10212 
10169 
10205 
10219 
10264 
10203 
10204 
10296 
10302 
10197 
10185 
10283 
10265 
10230 
10231 
10322 
10362 
10253 
10237 
10319 
10378 
10358 
10306 
10325 
10414 
10399 
10289 
10347 
10481 
10502 
10390 
10417 
10581 
10581 
10466 
10475 
10598 
10683 
10662 
10631 
10684 
10776 
10754 
10711 
10777 
10860 
10779 
10659 
10672 
10724 
10678 
10553 
10471 
10502 
10439 
9963 
9731 
9987 
10118 
10058 
10034 
10088 
10122 
10067 
9999 
10050 
10170 
10069 
9944 
10064 
10109 
10055 
9983 
10023 
10110 
10079 
10041 
10067 
10143 
10120 
10012 
10027 
10126 
10088 
10029 
10011 
10103 
10107 
10037 
10031 
10082 
10146 
10124 
10039 
10042 
10193 
10160 
10039 
10047 
10082 
10105 
10013 
10024 
10114 
10140 
10046 
10035 
10164 
10123 
10024 
9994 
10069 
10127 
10058 
10026 
10093 
10144 
10498 
10507 
10385 
10367 
10209 
10117 
10168 
10272 
10190 
10025 
10028 
10158 
10141 
10044 
10018 
10114 
10160 
10074 
10027 
10081 
10151 
10056 
9965 
10044 
10163 
10111 
10039 
10070 
10112 
10068 
9998 
10073 
10137 
10099 
10041 
10013 
10073 
10067 
9981 
9967 
10069 
10128 
10077 
10007 
10044 
10123 
10087 
10048 
10140 
10215 
10144 
10084 
10147 
10242 
10237 
10040 
10034 
10145 
10085 
9998 
9998 
10081 
10111 
10020 
9987 
10070 
10071 
9959 
9926 
10049 
10121 
10040 
10012 
10175 
10424 
10582 
10770 
11114 
11372 
11453 
11308 
11020 
10587 
10017 
9705 
9716 
9897 
10059 
10056 
10034 
10133 
10129 
10061 
10005 
10084 
10159 
10147 
10120 
10091 
10138 
10102 
10039 
10097 
10220 
10201 
10077 
10071 
10138 
10190 
10108 
10109 
10205 
10235 
10177 
10121 
10194 
10265 
10149 
10107 
10216 
10322 
10285 
10196 
10225 
10321 
10322 
10272 
10326 
10386 
10417 
10382 
10416 
10486 
10551 
10473 
10450 
10594 
10616 
10567 
10563 
10668 
10741 
10670 
10618 
10713 
10778 
10673 
10578 
10563 
10593 
10456 
9937 
9781 
10016 
10047 
9978 
10016 
10070 
10048 
9960 
9948 
10047 
10081 
9980 
9881 
10009 
10035 
9992 
9979 
10031 
10076 
10014 
9969 
10064 
10102 
10135 
10024 
10004 
10090 
10088 
10045 
10033 
10146 
10151 
10053 
10046 
10147 
10189 
10107 
10014 
10104 
10184 
10110 
10053 
10084 
10151 
10064 
10046 
10114 
10167 
10173 
10062 
10083 
10182 
10171 
10096 
10079 
10186 
10179 
10064 
10018 
10132 
10179 
10074 
10148 
10704 
10647 
10412 
10263 
10292 
10338 
10246 
10139 
10183 
10273 
10186 
10054 
10108 
10184 
10193 
10057 
10063 
10172 
10182 
10051 
9987 
10111 
10181 
10106 
10010 
10060 
10132 
10049 
9994 
10066 
10150 
10075 
9978 
10029 
10152 
10148 
10042 
9984 
10065 
10120 
10007 
9965 
10126 
10150 
10040 
9993 
10067 
10100 
10044 
9971 
10069 
10193 
10087 
10025 
10145 
10273 
10162 
10063 
10105 
10239 
10217 
10105 
10095 
10136 
10147 
10057 
10040 
10087 
10155 
10058 
10021 
10141 
10199 
10115 
10092 
10106 
10157 
10119 
10057 
10228 
10427 
10534 
10629 
10876 
11309 
11413 
11260 
11132 
10844 
10350 
9958 
9878 
9995 
10071 
10058 
10118 
10213 
10254 
10199 
10140 
10265 
10344 
10228 
10144 
10227 
10328 
10317 
10247 
10239 
10301 
10323 
10258 
10241 
10363 
10407 
10318 
10212 
10333 
10415 
10339 
10253 
10400 
10451 
10368 
10305 
10397 
10486 
10446 
10370 
10440 
10575 
10560 
10445 
10461 
10545 
10579 
10535 
10631 
10748 
10705 
10660 
10653 
10809 
10845 
10773 
10763 
10875 
10991 
10875 
10774 
10871 
10965 
10871 
10764 
10518 
10233 
10360 
10365 
10357 
10452 
10411 
10243 
10229 
10354 
10379 
10255 
10186 
10265 
10278 
10207 
10165 
10222 
10292 
10210 
10114 
10216 
10293 
10266 
10197 
10197 
10257 
10296 
10244 
10207 
10284 
10301 
10261 
10251 
10319 
10322 
10215 
10206 
10391 
10441 
10291 
10220 
10288 
10360 
10311 
10226 
10312 
10390 
10331 
10265 
10368 
10430 
10380 
10313 
10338 
10460 
10446 
10315 
10342 
10772 
11092 
10784 
10585 
10607 
10613 
10476 
10375 
10445 
10533 
10450 
10383 
10429 
10491 
10427 
10255 
10319 
10483 
10461 
10325 
10311 
10441 
10462 
10369 
10352 
10413 
10430 
10370 
10341 
10413 
10460 
10388 
10322 
10417 
10493 
10444 
10338 
10350 
10469 
10372 
10301 
10359 
10457 
10429 
10349 
10295 
10399 
10435 
10329 
10277 
10388 
10397 
10321 
10292 
10387 
10440 
10367 
10278 
10333 
10419 
10390 
10289 
10329 
10411 
10385 
10274 
10312 
10403 
10359 
10260 
10272 
10376 
10387 
10307 
10268 
10363 
10425 
10324 
10272 
10382 
10446 
10363 
10295 
10359 
10411 
10359 
10274 
10296 
10410 
10374 
10257 
10322 
10377 
10366 
10255 
10285 
10418 
10436 
10345 
10273 
10358 
10435 
10358 
10323 
10330 
10431 
10391 
10310 
10387 
10511 
10465 
10356 
10378 
10469 
10429 
10281 
10272 
10344 
10354 
10255 
10252 
10365 
10441 
10308 
10236 
10293 
10348 
10283 
10256 
10348 
10396 
10350 
10372 
10616 
10859 
10945 
11121 
11427 
11654 
11591 
11263 
10787 
10405 
10181 
10036 
10097 
10328 
10413 
10334 
10259 
10357 
10437 
10328 
10268 
10388 
10457 
10333 
10240 
10285 
10431 
10431 
10347 
10319 
10416 
10423 
10350 
10362 
10456 
10481 
10360 
10329 
10494 
10551 
10409 
10341 
10429 
10487 
10443 
10399 
10490 
10548 
10536 
10467 
10450 
10595 
10560 
10474 
10521 
10675 
10697 
10605 
10621 
10760 
10789 
10733 
10749 
10828 
10868 
10816 
10808 
10883 
10961 
10465 
10146 
10443 
10617 
10636 
10582 
10599 
10691 
10612 
10469 
10434 
10512 
10444 
10300 
10303 
10377 
10380 
10266 
10181 
10277 
10326 
10225 
10138 
10267 
10370 
10246 
10117 
10194 
10331 
10299 
10160 
10196 
10324 
10278 
10199 
10238 
10331 
10305 
10168 
10177 
10294 
10328 
10233 
10173 
10291 
10358 
10285 
10238 
10263 
10319 
10260 
10207 
10318 
10325 
10280 
10194 
10207 
10356 
10330 
10184 
10180 
10438 
10985 
10741 
10564 
10554 
10521 
10402 
10327 
10426 
10455 
10295 
10240 
10369 
10451 
10329 
10212 
10239 
10340 
10343 
10229 
10205 
10368 
10342 
10199 
10212 
10356 
10360 
10190 
10152 
10283 
10364 
10250 
10177 
10288 
10353 
10251 
10164 
10238 
10327 
10259 
10176 
10291 
10352 
10239 
10150 
10212 
10321 
10312 
10183 
10191 
10313 
10373 
10267 
10158 
10283 
10311 
10222 
10150 
10242 
10319 
10219 
10175 
10274 
10364 
10225 
10115 
10212 
10323 
10295 
10176 
10168 
10281 
10323 
10213 
10143 
10264 
10325 
10232 
10139 
10228 
10285 
10155 
10101 
10249 
10368 
10259 
10098 
10172 
10271 
10248 
10129 
10148 
10252 
10234 
10088 
10126 
10266 
10243 
10140 
10158 
10256 
10277 
10151 
10112 
10248 
10327 
10210 
10145 
10270 
10379 
10159 
10065 
10176 
10274 
10249 
10173 
10257 
10366 
10369 
10209 
10195 
10303 
10298 
10169 
10129 
10198 
10258 
10152 
10096 
10226 
10250 
10135 
10085 
10136 
10198 
10140 
10054 
10125 
10247 
10328 
10354 
10525 
10825 
11071 
11201 
11277 
11337 
11104 
10519 
10070 
9971 
9978 
9907 
9945 
10157 
10287 
10201 
10136 
10266 
10310 
10178 
10073 
10153 
10276 
10217 
10151 
10203 
10293 
10278 
10160 
10201 
10324 
10356 
10194 
10151 
10292 
10383 
10302 
10236 
10331 
10427 
10358 
10239 
10350 
10418 
10353 
10245 
10324 
10465 
10494 
10363 
10334 
10482 
10544 
10433 
10454 
10583 
10583 
10519 
10508 
10643 
10730 
10642 
10591 
10713 
10850 
10750 
10660 
10751 
10889 
10850 
10532 
10032 
10332 
10465 
10364 
10384 
10465 
10427 
10330 
10265 
10346 
10339 
10189 
10144 
10227 
10285 
10139 
10060 
10152 
10252 
10155 
10036 
10113 
10211 
10181 
10068 
10107 
10222 
10124 
10021 
10066 
10233 
10238 
10086 
10091 
10220 
10210 
10095 
10082 
10186 
10224 
10112 
10047 
10153 
10226 
10169 
10120 
10166 
10238 
10229 
10139 
10101 
10208 
10182 
10085 
10106 
10238 
10302 
10119 
10059 
10207 
10224 
10126 
10287 
10908 
10773 
10511 
10310 
10371 
10428 
10279 
10161 
10230 
10311 
10258 
10147 
10160 
10299 
10221 
10103 
10130 
10192 
10194 
10121 
10120 
10261 
10264 
10067 
10012 
10114 
10191 
10126 
10111 
10166 
10157 
10104 
10018 
10074 
10186 
10148 
10056 
10043 
10176 
10163 
10042 
10039 
10154 
10189 
10075 
10020 
10159 
10232 
10138 
10106 
10178 
10222 
10109 
10064 
10148 
10234 
10151 
10071 
10108 
10216 
10202 
10094 
10101 
10187 
10159 
10066 
10051 
10132 
10170 
10094 
10057 
10128 
10170 
10094 
10024 
10087 
10169 
10096 
10017 
10124 
10204 
10091 
9996 
10017 
10126 
10130 
10041 
10023 
10139 
10154 
10056 
10051 
10154 
10168 
10045 
10009 
10164 
10260 
10202 
10123 
10176 
10270 
10143 
10059 
10126 
10185 
10081 
9979 
10047 
10226 
10130 
9995 
9996 
10126 
10143 
10003 
9983 
10087 
10098 
10007 
9986 
10160 
10279 
10324 
10407 
10681 
11032 
11195 
11193 
11189 
11037 
10518 
9979 
9838 
9958 
10014 
9946 
10048 
10208 
10154 
10034 
10012 
10171 
10239 
10131 
10037 
10089 
10172 
10052 
10030 
10144 
10245 
10150 
10029 
10106 
10223 
10188 
10099 
10170 
10324 
10282 
10090 
10096 
10209 
10249 
10186 
10153 
10287 
10326 
10220 
10189 
10227 
10348 
10297 
10194 
10306 
10413 
10347 
10265 
10348 
10478 
10456 
10369 
10421 
10566 
10586 
10476 
10480 
10643 
10678 
10546 
10522 
10633 
10241 
10004 
10134 
10331 
10463 
10382 
10216 
10261 
10345 
10260 
10122 
10126 
10242 
10193 
10006 
10000 
10086 
10070 
9974 
9992 
10106 
10061 
9984 
9990 
10100 
10077 
9982 
9927 
10037 
10148 
10080 
9952 
10002 
10101 
10070 
9943 
10021 
10159 
10076 
9983 
10011 
10145 
10155 
10031 
10010 
10122 
10200 
10087 
10074 
10192 
10185 
10058 
10037 
10144 
10184 
10091 
10039 
10152 
10817 
10810 
10452 
10358 
10419 
10372 
10194 
10190 
10302 
10275 
10135 
10102 
10210 
10255 
10125 
10069 
10184 
10233 
10118 
10006 
10115 
10248 
10105 
10032 
10061 
10153 
10135 
10031 
10084 
10223 
10146 
9998 
10037 
10164 
10180 
10049 
10027 
10157 
10213 
10044 
10038 
10045 
10122 
10056 
9954 
10015 
10162 
10107 
9978 
10027 
10151 
10059 
9948 
10014 
10142 
10149 
10028 
10006 
10162 
10191 
10060 
10079 
10198 
10170 
10080 
10033 
10130 
10254 
10120 
10016 
10133 
10250 
10184 
10059 
10095 
10207 
10184 
10057 
10100 
10247 
10252 
10086 
10097 
10206 
10212 
10109 
10074 
10236 
10285 
10146 
10119 
10197 
10259 
10188 
10106 
10185 
10280 
10228 
10126 
10178 
10268 
10260 
10110 
10124 
10251 
10272 
10150 
10108 
10248 
10292 
10167 
10127 
10248 
10314 
10205 
10147 
10236 
10348 
10294 
10223 
10297 
10443 
10397 
10254 
10301 
10397 
10348 
10193 
10182 
10323 
10329 
10167 
10172 
10277 
10334 
10196 
10146 
10283 
10289 
10155 
10094 
10213 
10327 
10298 
10258 
10441 
10708 
10851 
10948 
11267 
11509 
11454 
11134 
10761 
10449 
10141 
9959 
10006 
10168 
10304 
10218 
10162 
10282 
10333 
10238 
10142 
10226 
10345 
10273 
10185 
10247 
10385 
10300 
10116 
10210 
10364 
10327 
10190 
10209 
10356 
10390 
10247 
10212 
10352 
10395 
10248 
10188 
10319 
10425 
10329 
10282 
10365 
10423 
10351 
10256 
10340 
10496 
10442 
10346 
10367 
10515 
10526 
10446 
10418 
10588 
10621 
10490 
10510 
10739 
10774 
10462 
9826 
10118 
10410 
10403 
10388 
10543 
10682 
10616 
10470 
10507 
10550 
10507 
10351 
10315 
10369 
10358 
10190 
10093 
10211 
10227 
10110 
10050 
10114 
10106 
9986 
9929 
9999 
10120 
10022 
9912 
9969 
10069 
10042 
9944 
9982 
10052 
10036 
9909 
9888 
10043 
10039 
9930 
9918 
10005 
10029 
9900 
9857 
10005 
10075 
9952 
9865 
9953 
10029 
9934 
9859 
9964 
10035 
9967 
9862 
9926 
10024 
9956 
9826 
9862 
10234 
10784 
10427 
10206 
10218 
10196 
10052 
9973 
10078 
10131 
9978 
9854 
9941 
10065 
9950 
9793 
9870 
10003 
9927 
9811 
9862 
9969 
9946 
9824 
9807 
9930 
9934 
9814 
9755 
9850 
9910 
9780 
9710 
9857 
9932 
9817 
9664 
9786 
9883 
9790 
9688 
9783 
9903 
9809 
9668 
9695 
9861 
9866 
9655 
9634 
9774 
9806 
9680 
9644 
9744 
9799 
9640 
9572 
9715 
9798 
9693 
9560 
9659 
9803 
9702 
9543 
9581 
9766 
9727 
9529 
9534 
9700 
9721 
9544 
9514 
9655 
9662 
9516 
9503 
9596 
9618 
9510 
9443 
9539 
9637 
9551 
9441 
9494 
9599 
9504 
9415 
9457 
9570 
9519 
9413 
9426 
9542 
9586 
9454 
9427 
9530 
9614 
9485 
9461 
9590 
9649 
9575 
9418 
9487 
9590 
9454 
9326 
9386 
9554 
9476 
9324 
9377 
9478 
9418 
9311 
9352 
9498 
9474 
9325 
9310 
9455 
9578 
9551 
9632 
9987 
10245 
10333 
10372 
10488 
10423 
9941 
9338 
9150 
9222 
9187 
9108 
9236 
9439 
9433 
9303 
9293 
9410 
9449 
9334 
9272 
9372 
9456 
9315 
9275 
9440 
9533 
9394 
9266 
9324 
9439 
9351 
9266 
9363 
9509 
9433 
9286 
9336 
9459 
9513 
9360 
9331 
9471 
9453 
9382 
9333 
9489 
9534 
9428 
9358 
9495 
9618 
9513 
9434 
9563 
9648 
9608 
9520 
9569 
9766 
9783 
9583 
9591 
9797 
9833 
9744 
9717 
9861 
9439 
8876 
9125 
9402 
9514 
9432 
9382 
9430 
9501 
9402 
9218 
9246 
9329 
9252 
9068 
9085 
9238 
9164 
9009 
9011 
9143 
9120 
8927 
8932 
9100 
9102 
8953 
8885 
9030 
9096 
8956 
8867 
8958 
9056 
8927 
8776 
8841 
8982 
8951 
8806 
8831 
8990 
8973 
8833 
8833 
8983 
8957 
8836 
8789 
8898 
8953 
8832 
8764 
8922 
8990 
8824 
8779 
8854 
8924 
8859 
8709 
8767 
8915 
9203 
9604 
9415 
9327 
9184 
8963 
8938 
9091 
9056 
8869 
8836 
8967 
8968 
8837 
8778 
8855 
8929 
8787 
8685 
8818 
8969 
8890 
8690 
8792 
8894 
8823 
8697 
8707 
8860 
8856 
8721 
8704 
8836 
8859 
8714 
8703 
8877 
8849 
8715 
8641 
8776 
8862 
8747 
8624 
8719 
8869 
8776 
8640 
8702 
8855 
8816 
8652 
8644 
8799 
8769 
8622 
8624 
8747 
8763 
8660 
8621 
8716 
8767 
8681 
8578 
8681 
8787 
8675 
8540 
8633 
8770 
8660 
8522 
8524 
8664 
8636 
8500 
8551 
8648 
8605 
8470 
8474 
8604 
8622 
8546 
8439 
8594 
8645 
8501 
8430 
8526 
8638 
8600 
8469 
8593 
8704 
8634 
8522 
8602 
8724 
8716 
8520 
8497 
8625 
8614 
8474 
8452 
8623 
8587 
8435 
8376 
8526 
8588 
8451 
8400 
8538 
8638 
8531 
8450 
8598 
8862 
9002 
9042 
9349 
9750 
9777 
9548 
9274 
8987 
8612 
8305 
8156 
8372 
8553 
8491 
8422 
8545 
8619 
8457 
8370 
8507 
8625 
8548 
8413 
8473 
8655 
8631 
8406 
8449 
8588 
8573 
8433 
8495 
8695 
8624 
8467 
8439 
8627 
8698 
8538 
8458 
8579 
8697 
8614 
8520 
8587 
8708 
8630 
8543 
8661 
8762 
8711 
8631 
8711 
8851 
8814 
8697 
8707 
8875 
8905 
8807 
8772 
8956 
9048 
8927 
8859 
8992 
9090 
8989 
8906 
9036 
8796 
8140 
8241 
8477 
8709 
8689 
8575 
8510 
8658 
8658 
8469 
8442 
8577 
8529 
8373 
8331 
8420 
8481 
8339 
8248 
8421 
8549 
8371 
8247 
8356 
8437 
8356 
8279 
8360 
8455 
8402 
8274 
8338 
8440 
8401 
8251 
8256 
8436 
8455 
8319 
8281 
8470 
8522 
8319 
8264 
8357 
8467 
8360 
8221 
8368 
8490 
8368 
8244 
8299 
8445 
8392 
8243 
8253 
8410 
8399 
8265 
8264 
8383 
8550 
9087 
8961 
8862 
8811 
8593 
8445 
8517 
8563 
8455 
8320 
8376 
8467 
8380 
8247 
8309 
8435 
8409 
8282 
8289 
8424 
8394 
8281 
8254 
8406 
8391 
8237 
8191 
8312 
8436 
8342 
8237 
8357 
8500 
8288 
8162 
8266 
8405 
8318 
8191 
8249 
8418 
8367 
8210 
8267 
8420 
8393 
8257 
8214 
8332 
8386 
8253 
8193 
8320 
8414 
8357 
8179 
8288 
8377 
8270 
8202 
8289 
8469 
8379 
8196 
8229 
8384 
8371 
8215 
8209 
8371 
8395 
8237 
8219 
8364 
8424 
8222 
8144 
8314 
8442 
8279 
8185 
8279 
8380 
8327 
8245 
8319 
8445 
8397 
8306 
8364 
8497 
8486 
8306 
8254 
8416 
8392 
8221 
8192 
8353 
8414 
8300 
8219 
8344 
8468 
8293 
8186 
8283 
8408 
8330 
8212 
8396 
8728 
8810 
8799 
9058 
9465 
9629 
9490 
9331 
9130 
8683 
8177 
8016 
8183 
8361 
8306 
8224 
8344 
8470 
8347 
8257 
8347 
8472 
8399 
8250 
8327 
8493 
8427 
8278 
8316 
8478 
8483 
8403 
8390 
8470 
8495 
8364 
8338 
8543 
8552 
8443 
8365 
8492 
8575 
8504 
8404 
8468 
8587 
8561 
8450 
8517 
8686 
8664 
8512 
8541 
8726 
8775 
8634 
8605 
8776 
8864 
8698 
8675 
8860 
8967 
8877 
8783 
8893 
9014 
8930 
8834 
8956 
9086 
8656 
7941 
8215 
8503 
8538 
8451 
8476 
8619 
8591 
8406 
8364 
8516 
8514 
8289 
8237 
8395 
8431 
8247 
8176 
8315 
8436 
8352 
8219 
8288 
8421 
8338 
8171 
8244 
8425 
8390 
8252 
8265 
8400 
8432 
8265 
8253 
8444 
8453 
8286 
8198 
8364 
8474 
8364 
8239 
8327 
8458 
8384 
8258 
8332 
8473 
8422 
8307 
8346 
8454 
8436 
8255 
8251 
8427 
8479 
8312 
8222 
8375 
8493 
8911 
9163 
8992 
8912 
8706 
8539 
8608 
8731 
8547 
8384 
8452 
8621 
8556 
8365 
8402 
8529 
8509 
8390 
8384 
8532 
8529 
8340 
8302 
8465 
8536 
8379 
8297 
8450 
8542 
8440 
8331 
8390 
8501 
8430 
8310 
8362 
8545 
8526 
8339 
8313 
8515 
8527 
8348 
8366 
8493 
8553 
8345 
8286 
8467 
8572 
8363 
8280 
8447 
8535 
8435 
8331 
8443 
8568 
8439 
8297 
8332 
8542 
8521 
8365 
8381 
8530 
8530 
8359 
8339 
8498 
8523 
8398 
8333 
8519 
8539 
8409 
8351 
8499 
8646 
8507 
8397 
8485 
8603 
8550 
8370 
8423 
8574 
8499 
8348 
8337 
8476 
8465 
8332 
8321 
8490 
8538 
8396 
8308 
8447 
8506 
8406 
8308 
8554 
8799 
8868 
8970 
9327 
9698 
9705 
9504 
9324 
9025 
8555 
8134 
8125 
8328 
8402 
8369 
8364 
8559 
8568 
8381 
8311 
8445 
8532 
8427 
8342 
8442 
8577 
8459 
8313 
8432 
8610 
8550 
8381 
8420 
8624 
8608 
8429 
8413 
8580 
8623 
8502 
8504 
8553 
8597 
8499 
8467 
8600 
8709 
8623 
8518 
8614 
8730 
8653 
8548 
8681 
8857 
8760 
8618 
8664 
8893 
8892 
8780 
8804 
8970 
8996 
8871 
8841 
9013 
9110 
8969 
8894 
9056 
9185 
9017 
8821 
8942 
8483 
7964 
8094 
8277 
8500 
8487 
8319 
8337 
8519 
8459 
8261 
8258 
8405 
8489 
8282 
8220 
8361 
8408 
8296 
8193 
8358 
8496 
8324 
8179 
8324 
8496 
8358 
8202 
8272 
8450 
8385 
8270 
8287 
8446 
8421 
8264 
8259 
8431 
8489 
8290 
8201 
8370 
8468 
8358 
8272 
8370 
8505 
8397 
8280 
8339 
8523 
8435 
8248 
8286 
8456 
8441 
8277 
8285 
8456 
8479 
8309 
8284 
9018 
9423 
8986 
8702 
8733 
8765 
8609 
8447 
8537 
8631 
8527 
8356 
8416 
8567 
8515 
8368 
8413 
8551 
8495 
8350 
8346 
8477 
8485 
8324 
8292 
8504 
8590 
8385 
8262 
8407 
8530 
8423 
8289 
8368 
8527 
8460 
8291 
8367 
8516 
8447 
8291 
8358 
8494 
8486 
8323 
8336 
8561 
8540 
8357 
8250 
8419 
8536 
8391 
8267 
8433 
8545 
8437 
8330 
8439 
8572 
8499 
8380 
8460 
8602 
8528 
8408 
8473 
8650 
8612 
8366 
8343 
8510 
8544 
8372 
8291 
8496 
8537 
8368 
8306 
8446 
8516 
8424 
8275 
8370 
8554 
8528 
8469 
8657 
9017 
9184 
9263 
9530 
9785 
9683 
9222 
8780 
8486 
8278 
8140 
8107 
8351 
8533 
8429 
8340 
8489 
8579 
8478 
8351 
8471 
8633 
8515 
8367 
8445 
8599 
8563 
8389 
8418 
8621 
8631 
8456 
8453 
8589 
8660 
8511 
8435 
8579 
8688 
8567 
8446 
8581 
8736 
8606 
8489 
8598 
8774 
8650 
8500 
8633 
8830 
8831 
8654 
8665 
8915 
8898 
8713 
8733 
8927 
8981 
8847 
8829 
9013 
9080 
8954 
8879 
9049 
9168 
9093 
8936 
9063 
9191 
9064 
8916 
8926 
8346 
7971 
8075 
8249 
8452 
8491 
8347 
8307 
8435 
8491 
8348 
8277 
8426 
8506 
8372 
8235 
8365 
8495 
8376 
8247 
8384 
8541 
8495 
8264 
8280 
8463 
8464 
8344 
8352 
8462 
8491 
8367 
8308 
8424 
8507 
8384 
8343 
8477 
8530 
8392 
8310 
8459 
8612 
8505 
8334 
8389 
8572 
8529 
8358 
8422 
8573 
8544 
8408 
8410 
8554 
8582 
8427 
8382 
8556 
8627 
8460 
8892 
9535 
9335 
8964 
8681 
8744 
8884 
8730 
8535 
8644 
8795 
8721 
8524 
8596 
8789 
8821 
8677 
8696 
8909 
8935 
8761 
8740 
8927 
9038 
8926 
8765 
8867 
8959 
8716 
8490 
8581 
8723 
8641 
8470 
8511 
8624 
8496 
8266 
8269 
8441 
8410 
8203 
8204 
8347 
8397 
8234 
8126 
8302 
8398 
8258 
8136 
8245 
8347 
8191 
8054 
8138 
8304 
8234 
8096 
8168 
8328 
8260 
8118 
8242 
8460 
8427 
8222 
8241 
8454 
8527 
