67333.37847392303,67229.57697267258,67093.87953208441,66958.807940341,66844.54582268547,66686.25076845298,66512.71182450198,66285.93102525843,66047.28144970912,65834.06815934995,65668.10645676928,65453.28384080933,65209.04632914619,64999.252855688675,64774.30489949047,64542.606716466755,64320.47508006991,64142.55519420567,63976.72760209175,63829.943696253744,63704.058671481456,63557.99002146602,63426.472357091,63315.51829761485,63189.230941442365,63055.29928866617,62964.28298524416,62881.33566157051,62797.38250939638,62716.73741540163,62651.67148729223,62611.95243739515,62576.45786720012,62583.677480659186,62595.076870331395,62556.631869868266,62531.21793642258,62499.41140406268,62496.84095345032,62501.64657850821,62485.21804633356,62492.862342937275,62498.807906962385,62519.32680837236,62577.26253000052,62646.37412385632,62706.94735133021,62771.05215442803,62859.542710726586,62933.996371507215,62972.82135162609,63041.26239314824,63129.93176340244,63204.63129337208,63276.134523884604,63323.743739574405,63380.94185363554,63477.47903793801,63608.99670231304,63692.50281959806,63766.1518175783,63822.65702756131,63911.48286002671,63997.872352346465,64073.309489883126,64135.26852551324,64279.07964933869,64429.88686917864,64479.843018036256,64536.50469023045,64658.8134358899,64730.316666402425,64822.651722747294,64938.81373868153,64961.634869770394,65012.35097793949,65098.29343537014,65163.51582569073,65203.257227332266,65231.73334976833,65266.95969902989,65300.73318490186,65327.8682026706,65356.36667685112,65347.13540639108,65382.3841073971,65436.76590165686,65489.00192844891,65545.97652506549,65543.13785351967,65521.65782709811,65520.92021953109,65512.20303919352,65521.68017884257,65552.25736525744,65568.37297300971,65583.61686272823,65621.41366260215,65663.07731426685,65702.61755020828,65685.47376221106,65695.21912279357,65682.03159356494,65666.47477942405,65708.16078283319,65764.93421374967,65820.05361557647,65857.53749102801,65857.33632532791,65865.82998822094,65865.80763647647,65890.23809316613,65897.56946534746,65922.73752960414,66003.33792010999,66033.24455419119,66078.3950779909,66179.98375654027,66226.56479198513,66218.69697793687,66262.28287962472,66312.3507872046,66369.28068033227,66427.90930603853,66478.0889723407,66541.74674054942,66592.08286906277,66643.55893654334,66693.58214063432,66748.99211513903,66800.04349947495,66819.78008982899,66827.04440677696,66894.05493665396,66985.92060636528,67058.11674095593,67124.12144233244,67222.29030398015,67285.07635415511,67315.7429475478,67336.6418286135,67390.80010542872,67416.50461155231,67425.71353026791,67481.34702221716,67565.21076741347,67575.26905241836,67609.91425632409,67632.37775950167,67621.49245995194,67649.3203817988,67699.38828937868,67762.68842967611,67814.41036634569,67829.92247699767,67862.19839599114,67848.69794234014,67854.44234066515,67881.93498634518,67899.2799400425,67907.41597502423,67946.19625165418,67997.4488016902,68032.22811606266,68103.15020121935,68118.30468396004,68107.84406755496,68095.75177380464,68099.5292186176,68114.68370135828,68125.56900090803,68169.2443095737,68216.58530433003,68263.99335431974,68278.9690231048,68301.0748983711,68291.4189447664,68232.76796731568,68197.92159770985,68196.40167908689,68226.71064456829,68272.33055500156,68268.44135146635,68255.0079530487,68216.98763573023,68232.72326382676,68252.25868848071,68225.1013189675,68205.40943210237,68209.32098738206,68224.00608348919,68246.04490352212,68235.78545281714,68221.12270845447,68239.18291797435,68292.33536628907,68273.15756954641,68220.63097007644,68225.07896722305,68195.7981819866,68150.75941690915,68137.2366115137,68143.89743136137,68110.88390480088,68089.0686022125,68098.85866628394,68124.07143402952,68115.95775079224,68075.54579681704,68031.7587294291,68041.23586907815,68010.74808964111,67982.85311256089,68004.69076689372,67982.02609801604,67938.6860655172,67890.98744284957,67851.08957899685,67828.3131513969,67839.26550617999,67836.78446254546,67809.89531396572,67806.11786915277,67804.35208134081,67779.56399673987,67752.27251675994,67730.54662114938,67744.0917782893,67744.42705445613,67713.55929536335,67685.23963513847,67626.87923036567,67564.65197380209,67573.63737507313,67604.37102369918,67666.06183839582,67660.473902282,67608.61785514568,67562.68502029002,67524.57529599372,67520.6413889696,67506.51508647384,67484.8338943522,67458.99527776186,67422.04784417723,67407.34039632564,67378.5066459783,67374.81860814316,67382.86523614707,67393.10233510761,67374.1033523206,67355.43964570042,67362.52514869274,67345.13549150652,67300.96844446284,67290.17255189092,67271.84412143756,67222.20089700233,67180.49254184873,67174.94930922381,67133.06214011456,67029.14888014185,66913.03156769653,66805.43026988867,66701.24878898248,66624.85052643425,66504.62049300915,66337.2059270389,66220.82039366012,66071.77896163214,65912.56748587698,65726.80213770892,65525.01058876641,65300.911998857504,65124.73554906077,64943.21703233922,64758.88219581631,64571.485170303014,64368.68779286001,64220.607485843604,64099.796307062665,63962.10956121798,63790.71638473468,63624.8664408763,63475.288566981384,63315.65240808159,63195.4670781454,63085.67530938093,63023.04572141716,62976.73290690577,62918.39485387741,62819.89071606287,62718.9055346138,62665.30605140997,62663.093228708894,62642.30610636546,62645.39064710029,62679.946444028195,62666.42363863273,62640.54031855349,62666.289528166,62716.871525868366,62736.74222668913,62696.53143841404,62689.244769721605,62729.67907544126,62760.88211070086,62804.110384477426,62885.71660348375,62922.64168532392,62954.78349385065,63000.269293817204,63069.49264639529,63157.75968524929,63234.046189075256,63278.14618088558,63297.41338460605,63361.629946426154,63452.8250638038,63571.19990243911,63694.9838632326,63735.26170674106,63796.34902433742,63915.26030483965,64064.10057116754,64210.5044973498,64272.66469868001,64309.12039388662,64369.0454207713,64467.884834752665,64597.45789736008,64713.262285383025,64802.82572541544,64875.13361872836,64903.1180027864,64958.72914299121,65016.62016113045,65074.1088478695,65142.84046206957,65224.11140490907,65322.168507834496,65396.21983721493,65421.589067171706,65450.91455589707,65451.11572159717,65441.75034067039,65490.90182672761,65589.65183373116,65682.5009801985,65729.23847785455,65754.60770781133,65759.92742299169,65789.83405707289,65764.06249571592,65718.12966086026,65721.37066380629,65759.1674636802,65780.87100754632,65819.60658068735,65877.96698546017,65900.92222701576,65929.08542502945,65970.9725941387,65996.4312310733,66004.54491431057,66016.57015282752,66007.13771666738,66055.79746434659,66140.55527932111,66109.44165103932,66056.64683063589,66089.68270894083,66154.74863705023,66160.69420107534,66162.32587842058,66223.27908555021,66279.82899902212,66305.75702259029,66279.15844668847,66261.32175461313,66291.72012707236,66319.14571751902,66381.39532582705,66409.58087558519,66439.24164047738,66483.7439636879,66534.34831313472,66567.33948795074,66599.10131682173,66660.25568965146,66657.34996287226,66670.00105023397,66695.52674240193,66732.29536203091,66781.60331029932,66843.11531104032,66872.97724163262,66859.40973274825,66895.26193085455,66936.9479342637,67023.22566786119,67105.90477060137,67166.23212888624,67232.54975468514,67239.29998151065,67262.23287132179,67256.93550788588,67260.60119397654,67292.38537459199,67375.77973315475,67401.35012881162,67436.08473969517,67447.48412936737,67424.70770176742,67442.49969035384,67472.56278664623,67473.9709465469,67519.16617383555,67581.48283737694,67594.08922124973,67630.32139901178,67656.62940223567,67622.3641779857,67616.4633174495,67604.28161672135,67610.33893946874,67660.719771471,67687.16188516162,67672.05210590984,67723.90815304616,67790.58340675634,67827.12850894076,67795.43373530313,67797.17717137065,67814.79034600143,67802.36277608428,67777.95467113909,67802.07220340637,67802.78745922893,67791.18690385662,67805.58142728584,67798.71944173807,67734.97226655153,67727.8867635592,67735.39694969618,67740.71666487654,67758.26278427396,67765.9964878555,67761.05675233087,67713.08990872979,67692.90628348665,67676.43304782308,67653.1648818451,67620.79955587382,67611.07654703576,67596.77143058437,67579.09120072021,67588.97067176946,67555.17483415305,67487.65021415356,67423.50070756683,67381.81470415767,67412.12366963907,67435.57064957269,67405.21698060239,67366.83903537263,67340.4416251709,67295.91695021593,67267.30671731314,67277.32029882912,67250.00646710473,67215.85300157702,67191.06491697609,67152.70932349078,67146.38377980993,67122.66857894284,67083.77654359062,67103.5354856891,67118.60056145198,67122.06508184255,67140.39351229591,67138.51596576166,67131.4975180027,67117.23710504021,67104.9883490787,67124.76964292164,67109.10107005847,67077.65216560986,67027.38309232988,66964.9546700662,66957.66800137378,66943.72051283366,66917.45721309868,66900.17931463472,66881.71677371464,66870.85382590936,66877.91697715723,66882.85671268187,66855.25230827955,66853.21829953413,66837.10269178185,66782.3632696108,66735.67047544367,66698.52187615895,66643.26836386543,66583.87977884767,66536.91876374707,66502.20650460798,66463.47093146693,66419.03566348978,66426.27762869331,66465.05790532327,66500.84304819621,66491.43296378052,66469.48355072542,66433.38548343009,66350.19229056744,66264.96508895935,66150.99354398173,66028.86361227794,65886.550055331,65744.37060885079,65616.09394742179,65484.44217258003,65361.664040287025,65164.454598957855,64993.19553294129,64829.06667340597,64611.02540624445,64410.39614801361,64235.9631342844,64065.48637932377,63851.557833142026,63643.373685285296,63477.59079666028,63355.21499576748,63232.727436152396,63081.45082967888,62924.765101047175,62759.47395080018,62577.12841953379,62413.5807053543,62230.922249665535,62059.149093526496,61933.26406875421,61844.170015355354,61757.69111605777,61676.86720810738,61578.51953250403,61494.633435563264,61450.7569611975,61411.55200142289,61414.033045057426,61433.34495226681,61425.03010332944,61392.53066689142,61399.88439081721,61442.08448434884,61454.847330432814,61497.785031531464,61587.57198900843,61652.5038066511,61678.49888545262,61690.68058618076,61723.805871463526,61768.57641560751,61827.20504131378,61951.30192652964,62101.41624229148,62162.07887674319,62217.75707218135,62265.098066937695,62312.12613727166,62415.324141421814,62528.1557474322,62661.50625485257,62740.51967150208,62846.71280940924,62965.17705502237,63088.37987046002,63207.29115096226,63278.41440181904,63415.944685452545,63585.86264680179,63715.301598942475,63851.82605407549,63964.83647404152,64009.85288737451,64043.0675796351,64090.00624299124,64149.46188324236,64234.04088426124,64323.24669638237,64465.04616320684,64621.50837439399,64723.56643957692,64806.29024580601,64947.866195185925,65051.98062085875,65061.43540876334,65086.916397442394,65133.273915442696,65193.35540453857,65214.366044326554,65235.15316666999,65248.94419299891,65289.35614697411,65316.96055137641,65348.14123489157,65399.14791573858,65394.20818021395,65397.22566571542,65465.46554153747,65491.75119301691,65461.777503702346,65464.32560257025,65517.90273402962,65584.51093250644,65621.81599400235,65645.68765708062,65723.53878301845,65802.66395839023,65830.42482500372,65816.47733646362,65846.76395020056,65879.75512501659,65894.59668333491,65937.48968094465,66019.25236216217,66064.62640340644,66124.66318901339,66155.77681729518,66201.374375984,66255.91263245496,66307.76867959126,66370.73354372187,66399.18731441347,66433.94427704148,66490.71770795796,66541.56792659378,66570.66989787458,66606.49974423644,66664.25665190896,66714.27985599994,66769.01927817098,66778.25054863103,66832.0735492794,66887.2376545951,66918.86537299935,66967.16749276727,67028.1654033858,67088.51511341514,67156.88909970393,67203.93952178235,67239.65760942192,67309.86443875605,67409.64262600454,67506.24686554038,67551.2409271289,67544.13307239211,67606.78501210034,67648.3145532983,67699.25417891196,67750.73024639253,67805.33555809683,67821.04883444891,67844.83109054937,67886.7182596586,67922.7269199761,67967.51981586455,67989.15630449729,68025.2096683037,68040.92294465577,68091.70610805824,68133.25800100065,68134.37558822341,68158.76134142415,68166.3385827945,68190.65728076188,68242.356865687,68237.32772318456,68197.98865294321,68194.591187786,68220.87683926545,68223.49199336673,68199.57562679955,68190.09848715049,68186.94689118229,68192.93715869632,68167.590280484,68150.82647214252,68201.02849018914,68187.90801619388,68228.0070457467,68249.39766519042,68239.04880750761,68225.16837420088,68217.41231887488,68252.16928150288,68268.30724099961,68276.33151725907,68276.39857249243,68268.73192414426,68271.97292709029,68308.40627055243,68356.03783798669,68333.66374178694,68304.53941876166,68286.18863656386,68269.02249682219,68243.13917674293,68220.36274914298,68208.2034001593,68223.69315906682,68200.67086227785,68156.86144314545,68157.21907105674,68173.46878927575,68128.1841550093,68061.2183286212,68032.27281955157,68038.77717718807,68057.12795938588,68080.59729106394,68076.46221833972,68089.3144714015,68081.11138118642,68074.29409912755,68099.43981163976,68178.31911782255,68260.4617786958,68300.38199429298,68373.62866087302,68460.73340901535,68530.24733427135,68636.84280357872,68729.46843260151,68772.4284854446,68875.3582686613,69004.55135161297,69069.52787274455,69097.44520156922,69139.77940556758,69150.15061499484,69145.54615563704,69158.6219261434,69187.52273172412,69221.31856934054,69257.08136046903,69318.77217516568,69362.13455940898,69343.98494291127,69374.07039094811,69370.00237345725,69343.49320453325,69290.16194226289,69294.87816034295,69332.02675962768,69319.19685831033,69325.70121594683,69315.64293094193,69310.88200937296,69267.72079082976,69245.54786033009,69288.79848585112,69302.56716043559,69257.48369186923,69230.4380810783,69199.70443245226,69199.95030164126,69185.39931600087,69213.20488610327,69186.60631020145,69173.03880131707,69174.53636819558,69154.33039120799,69105.17890515077,69072.36654429037,69020.71166285416,68975.53878730998,68998.51638061005,69001.84679053388,68950.59424049786,68892.72557410307,68894.20078923712,68914.69733890264,68887.02587926696,68843.61879153475,68825.06684363686,68802.0892503368,68724.7745662659,68652.1090450417,68584.7408872534,68540.79735765426,68556.80120668426,68488.62838609557,68391.86768434854,68349.66759081693,68296.7163082023,68168.14907409539,68015.33019725444,67868.14396001626,67728.15498449266,67569.18937792652,67378.64075644502,67203.58189387106,66973.67185040377,66681.19927420608,66465.68375416801,66314.11657501657,66105.1501161039,65831.5424122265,65573.55857772334,65344.00616216734,65110.25161865373,64921.737005917676,64734.13881470428,64553.089684616294,64423.71778770898,64251.83287284766,64019.21826830129,63811.61526580039,63619.524373951484,63465.90083431016,63344.374399706656,63189.3650519091,63037.57435531311,62896.46779256676,62760.23391011166,62646.8882139788,62569.64058514126,62465.03442109042,62380.61188228273,62311.09795702672,62271.51301759637,62213.35377852366,62134.5638793187,62090.91092239749,62051.1471690115,62022.022845986234,61989.27754035921,61980.87328444401,61981.85676120005,61927.13969077345,61900.49641138273,61901.18931546084,61906.30786494111,61955.03466785368,62012.14337493699,62053.0470672902,62070.45907622088,62090.553294486206,62113.24031510834,62144.242184667855,62141.73878928886,62182.66483338652,62278.397354888606,62325.82775662277,62370.665356000114,62446.1919005146,62493.95757841559,62505.17815413215,62556.22953846807,62672.86094103586,62749.75094196212,62787.681852302776,62844.45528321926,62926.01679873667,62961.399610209424,63002.437413029365,63049.64429731898,63081.20496048987,63116.811289407175,63196.428203156975,63241.77989265679,63285.56696004474,63345.760207862884,63402.57834226827,63442.453854376545,63467.28664246639,63456.13312198319,63406.19932487003,63445.04665673336,63478.61897690523,63517.08632911281,63517.48866051301,63495.919227113634,63542.52261430295,63582.37577466676,63590.9588445376,63604.079318532866,63622.9665425976,63667.35710708584,63712.015892507545,63715.07808149792,63705.33272091541,63690.28999689699,63742.771892878045,63771.225663569654,63729.71847411615,63710.1383459733,63743.91183184527,63797.935998193745,63875.20597877574,63904.77733669011,63940.02603769613,63971.00555551119,63981.42146842736,63992.70909937729,63999.36991922497,64017.944218867335,64049.84015820506,64153.351086777584,64230.84458480413,64257.95725082842,64294.502353012846,64329.63929529659,64354.7403043199,64396.292197262315,64435.31834308128,64505.77104160441,64565.56195802236,64659.41693299019,64759.53039640551,64862.95191800022,64992.10029746298,65072.90185366892,65093.152534145425,65131.396368908456,65204.48657327731,65294.09471679863,65378.60666258415,65416.44816594698,65483.43634407954,65529.01155102391,65565.44489448606,65627.26981964945,65688.93828260164,65747.1198734188,65808.56481892643,65814.95741784065,65860.15264512929,65905.52668637356,65990.08333564799,66061.76538011615,66146.25497415721,66207.0293673312,66274.8892634975,66358.68595346046,66419.50505012335,66460.85577736566,66500.30660632928,66539.95860099299,66606.38798551417,66690.00586152147,66761.44203680062,66802.05515647592,66809.20771470162,66829.79367134496,66864.99766886207,66851.05018032195,66903.08504141391,66961.89248107583,67002.63971121785,67023.7174062392,67049.77954027409,67086.95049130327,67092.73959311719,67086.39169769188,67134.31383780406,67174.30110863461,67191.08726872054,67197.79279205714,67197.8598472905,67180.91722499338,67207.42639391737,67270.41360979243,67319.74390980529,67338.65348561449,67378.28312853375,67364.17917778244,67330.0927674881,67345.20254673989,67366.01202082778,67360.24527075831,67339.01111352576,67314.87122951403,67332.73027333383,67378.3054802782,67366.36964873906,67354.59027941112,67376.49498897731,67350.25404098678,67304.74588927579,67307.87513349952,67326.04710174169,67362.77101788175,67376.4502854884,67365.0955993051,67378.9536808674,67394.15286709701,67376.15971281049,67364.67091616045,67378.43959074492,67413.59888477312,67396.16452409799,67398.28793982124,67416.8622394636,67396.41039328699,67376.15971281049,67377.83609364464,67400.63487298905,67372.82930288665,67334.11608149005,67311.45141261237,67316.1899824369,67312.7925172797,67320.50386911677,67333.4902326453,67311.00437772326,67292.00539493626,67297.99566245028,67266.36794404603,67219.38457720097,67225.62071390399,67247.99481010376,67225.79952785964,67225.50895518172,67229.59932441704,67188.76268729719,67134.87263141545,67143.18748035282,67153.49163454672,67084.49179941318,67036.05556917854,67033.84274647746,67025.90787719583,66987.68639417725,66942.98290526663,66949.57666988095,66942.58057386643,66920.6982160447,66927.96253299266,66924.85564051339,66914.77500376404,66885.1812941052,66803.08333672087,66729.38963525172,66610.50070649394,66446.10362602516,66351.01930511228,66248.51420504025,66121.71275874529,65995.44775431725,65826.06623483494,65604.47104030503,65396.063375003745,65247.04429472021,65082.26723459569,64840.30960086699,64557.9400131631,64294.10002161265,64043.022876146184,63839.62200160289,63659.84692094886,63457.8765580507,63247.926622382,63038.96016346934,62863.90130089538,62667.429467133225,62480.61358697577,62319.144585030626,62154.74750456185,62014.78088078272,61866.834684233036,61714.06051088101,61587.08025063041,61508.267999681,61444.07378960536,61342.08277965579,61198.4951732749,61060.294337307736,60994.915484775964,60917.9807803608,60831.188956640835,60773.45440071278,60751.54969114658,60735.67995258331,60777.38830773692,60796.81197366858,60837.53685206614,60865.163608212904,60868.85164604803,60876.11596299601,60923.45695775234,60948.289745842194,60992.21092369687,61024.95622932389,61051.80067441472,61113.44678562246,61149.85777734015,61212.30855134828,61305.71649142701,61347.93893670308,61354.77857050641,61415.284742746924,61492.532371584464,61614.68465503272,61723.42589180778,61769.80576155255,61869.427486589855,61985.254226357254,62089.74863168581,62170.55018789175,62239.03593290281,62300.59263713272,62350.77230343489,62448.56118542686,62522.52310782947,62638.46160631915,62728.6061917074,62831.17834701281,62883.369670315944,62902.3463013585,62980.2644825297,63053.15352119846,63127.13779534552,63185.386441396055,63247.63604970409,63333.466748412466,63382.77469668087,63434.42957811709,63498.780250403914,63474.0815727808,63494.22049453503,63514.56058198936,63493.237017779,63502.155363816666,63508.48090749752,63521.06493962586,63538.05226541189,63583.247492700524,63557.945317977115,63534.028951409935,63545.227175382046,63561.566300578874,63571.13284720574,63627.906278122224,63725.96338104766,63790.67168124577,63851.691943608756,63899.97171163222,63889.9804818607,63912.39928154937,63982.33788995003,64015.73139616626,64094.54364711567,64085.08885921107,64086.452315622846,64152.21114781036,64168.81849394066,64156.32386879014,64173.31119457617,64172.88651143152,64228.85527954761,64308.896876442064,64328.29819062927,64297.989225147874,64315.49064105638,64351.07461822923,64371.37000219465,64379.81896159875,64424.16482259808,64507.00038754945,64580.582330296325,64624.21293547308,64675.912520398204,64772.91909133424,64825.44569080421,64860.94026099924,64902.000415563634,64975.850579243976,64973.07896293151,65018.698873364796,65112.82206926609,65168.05322981516,65250.73233255534,65306.05290008222,65270.357164187095,65278.02381253527,65331.533888761274,65349.21411862542,65388.19556095548,65397.248017459875,65404.735851852405,65420.76205262686,65434.798948144795,65454.13320709863,65480.21769287797,65505.34105364574,65542.08732153027,65592.89283667717,65583.77332493941,65563.65675492963,65580.5770254823,65626.4875085935,65633.1930319301,65614.19404914309,65607.55558103987,65608.91903745163,65642.78193030143,65681.13752378673,65697.4095937502,65694.79443964892,65656.21532871906,65614.86460147674,65577.1795603251,65577.98422312549,65562.27094677341,65573.22330155651,65572.95508062304,65559.09699906076,65539.62862964018,65500.7589460324,65489.873646482665,65448.52291924035,65437.25764003488,65470.6064427622,65488.621948793174,65482.609329534695,65499.84252450974,65540.18742325157,65585.36029879574,65607.75674673996,65601.94529318158,65588.1319151082,65615.9374852106,65683.41740172118,65727.27152434249,65771.43857138617,65788.29178670548,65778.85935054533,65798.6853478772,65828.32376102493,65844.95345889968,65888.31584314298,65931.63352389736,65983.78014371158,66018.31358889503,66082.95483385978,66132.2627821282,66155.77681729518,66163.62227959899,66215.83595464658,66246.636658506,66316.26234248427,66379.58483452616,66422.65664609155,66495.14335336011,66565.52899664987,66647.3810848452,66681.82512305083,66701.31584421586,66814.3709676708,66880.24155858059,66926.4426143697,66978.81275162849,67011.2674845776,67016.92247592479,67088.62687213742,67117.61708469594,67134.850279671,67269.81011269214,67347.61653514106,67401.88657067854,67441.00212347534,67475.64732738106,67533.35953156467,67585.37204091216,67604.43807893254,67670.37572507569,67716.64383609818,67748.7856446249,67748.22685101353,67788.41528754417,67863.7183146141,67930.75119623556,67942.32939986342,67935.57917303791,67978.11454273637,68026.21549680419,68061.37479083239,68045.28153482456,67997.76172611257,68041.05705512251,68109.11811698892,68136.96839058022,68204.2471413907,68255.23147049327,68258.49482518373,68235.78545281714,68200.46969657775,68199.26270237716,68230.30927542559,68200.51440006666,68126.9324573198,68017.72183391117,67907.03599536848,67790.4492962896,67627.46037572151,67446.3218386557,67255.05796135163,67113.21379103826,66915.82553575344,66759.18451061065,66651.6279162917,66458.97823083142,66261.23234763532,66056.06568528005,65862.92426144175,65679.28232899694,65477.513131798885,65298.14038254505,65147.08729351608,65009.35584418248,64871.33382217096,64720.57130581991,64573.653289515176,64458.40769510361,64343.989115236895,64233.0127040163,64181.58134002463,64144.678609928924,64056.14335014145,63956.968659993254,63895.30019704106,63853.70360060973,63844.80760631652,63852.25073722014,63851.40137093084,63842.37126617089,63845.27699295009,63825.65216131833,63785.709593976695,63768.498750746105,63753.970116850156,63754.305393016984,63753.90306161679,63737.385122464315,63667.08888615238,63676.83424673489,63658.48346453709,63669.61463327583,63732.020703795046,63739.53088993203,63745.297640001496,63777.70766946169,63777.41709678377,63775.58425373844,63796.97487318217,63849.47912090769,63922.6363805099,63977.28639570313,64007.64006467343,64066.98394620228,64097.94111227288,64107.10532749955,64138.01779008124,64223.78143355626,64250.00002980233,64230.106977237105,64241.34990469812,64279.43727724997,64267.300280010735,64285.49459999736,64322.79966149326,64316.69763525697,64319.26808586933,64297.54219025877,64282.45476275143,64295.50818151334,64249.24007049085,64230.889288293045,64239.42765467497,64199.641549544525,64215.7571572968,64205.005968213794,64199.08275593314,64240.120558753086,64269.44604747845,64280.13018132809,64226.977733013366,64242.065160520695,64259.20894851792,64264.2157392759,64306.10290838515,64317.8822777131,64293.20595183444,64334.22140290993,64430.31155232329,64514.28705624188,64537.219946053025,64621.687188349635,64738.16212870624,64767.91230057625,64837.38152234334,64960.09259940298,65053.14291157042,65088.86099921,65125.18258394988,65155.357438964544,65194.60710222806,65266.78088507425,65301.604902935615,65387.525008621815,65517.25453344042,65631.27078190695,65682.9033115987,65743.81181523942,65815.53856319649,65910.57818062046,65983.91425417832,66047.50496715367,66122.80799422359,66163.64463134344,66186.33165196558,66227.41415827443,66313.53542966074,66408.06095696223,66492.72936495893,66506.85566745469,66519.59616179421,66512.6000657797,66534.28125790134,66555.98480176745,66601.73882266747,66688.21772196505,66801.45165937563,66887.50587552856,66960.66313513079,67020.38699631537,67069.06909573902,67105.88241885691,67159.41484682738,67202.9113415374,67211.78498408616,67223.16202201392,67244.86556588001,67308.389223622,67383.53578848075,67429.7144925254,67455.93308877148,67485.32563273021,67522.1389558481,67585.39439265661,67590.08825899223,67632.04248333484,67648.13573934266,67659.31161157032,67674.04141116637,67723.39406292367,67721.3824059227,67733.74292060648,67766.08589483332,67769.68452569062,67788.1023631218,67820.64650304872,67817.1596309137,67791.38806955672,67811.66110177769,67835.15278520022,67871.25085249553,67911.88632391529,67924.62681825481,67956.3886471258,67990.02802253104,67962.96005999566,67953.05823720196,67965.1952344412,67998.81225810197,68018.548848456,68041.95112490072,68031.3563980289,68004.42254596026,68012.46917396417,68012.73739489763,68042.68873246774,68101.6302825964,68109.85572455594,68086.29698590004,68041.28057256706,67986.16117074028,67955.47222560314,67921.29640833098,67897.11182083032,67903.59382672237,67916.93781816219,67915.41789953923,67914.45677452764,67883.38784973478,67873.39661996324,67852.38598017526,67783.252034575,67725.29396120238,67720.64479835569,67706.11616445973,67707.14434470468,67659.28925982586,67608.5060964234,67552.2914591183,67545.18360438151,67515.8357639117,67428.03811169126,67398.3549950546,67348.89058457501,67268.55841500264,67249.73824617127,67207.73931833975,67152.53050953514,67148.57425076656,67132.1457185919,67106.75413689067,67076.22165396472,67032.79221448806,66966.47458868916,66908.58357054992,66864.59533746187,66801.27284541998,66756.68111523165,66705.07093728434,66681.60160560628,66636.87576495121,66485.53210324432,66309.26624646976,66152.13348294896,65950.23017528417,65757.69224854615,65535.44885342704,65307.975150105376,65088.48101955427,64916.909029115326,64736.753968805555,64502.39592819166,64303.82303045071,64124.04794979667,63889.95813011625,63666.1277611408,63497.41679399214,63318.20050694949,63143.43221705344,63004.56082875262,62872.35026029948,62701.22530474965,62575.76496312201,62470.421191504145,62362.66343148511,62251.754075497876,62145.851510268636,62056.53393942523,61961.4719702568,61884.62667281946,61840.616087986964,61820.56657321055,61817.683198175815,61808.07194806003,61817.03499758661,61847.120445623455,61893.187390945845,61879.977509972756,61879.66458555038,61931.297115242145,61967.59634823756,61985.27657810171,62041.91589855146,62112.547411030224,62201.7308714069,62325.492480455934,62408.39510064067,62526.88169799825,62647.75993201255,62733.36711327638,62812.53699213708,62882.45324879328,62986.634729699465,63077.69573661039,63166.90154873152,63289.25499787986,63405.43936555855,63507.586837719304,63661.99268841657,63814.498640835125,63933.834604482014,64045.63803024746,64174.8981684325,64249.552994913225,64334.288458143295,64479.395983147144,64592.62992055773,64701.70643349963,64830.78775772903,64927.97314262071,64994.82721028653,65077.30514732661,65108.821107008596,65163.62758441301,65275.654527623,65359.987659452876,65381.84766553017,65433.41313998857,65468.46067529448,65477.33431784324,65497.40618436411,65550.93861233456,65616.51863056644,65642.8936890237,65682.2998144984,65680.69048889763,65714.0616433694,65778.65818484523,65783.30734769194,65755.3229636339,65744.41531233971,65742.31424836091,65780.51337963503,65899.11173571489,65947.99500083864,65970.59261448296,65959.84142539995,66001.9297602093,66047.97435378723,66047.86259506496,66052.24353697819,66082.50779897068,66161.5659191091,66225.35779778454,66247.6424870065,66261.88054822452,66300.61612136557,66293.93294977343,66316.08352852864,66393.26410213282,66426.23292520439,66436.49237590938,66491.96940564745,66552.02854299886,66598.25195053243,66667.65411706617,66692.37514643374,66760.2126908556,66826.28444746548,66892.37855581981,66913.1433264188,66946.35801867938,66982.90312086382,67041.46469133672,67104.9883490787,67158.96781193827,67203.33602468205,67226.49243193775,67274.81690345012,67288.89850245697,67310.60204632307,67388.76609668328,67478.21777799341,67516.8862959011,67533.65010424258,67560.42749410003,67634.85880313622,67667.31353608532,67681.14926590315,67719.0354727549,67773.28315654793,67792.9079881797,67796.59602601481,67840.69601782513,67823.41811936119,67829.43073861966,67827.15086068521,67878.13518978778,67972.83953104491,67999.32634822445,68010.41281347428,68062.2688606106,68065.30869785651,68098.1210587169,68111.68856760128,68178.49793177818,68189.45028656129,68167.94790839529,68153.24046054369,68155.40857975585,68193.22773137424,68223.46964162227,68245.19553723282,68222.50851661069,68220.63097007644,68264.39568571994,68220.6533218209,68178.36382131146,68191.50664705118,68173.91582416485,68099.14923896185,68071.74600025965,68077.51275032912,68091.86257026943,68132.65450390035,68145.75262615117,68179.30259457858,68191.93133019583,68148.59129769698,68146.44553022928,68146.57964069601,68087.95101498974,68074.09293342746,68106.59236986547,68111.19682922326,68078.85385499643,68017.87829612235,67944.85514698687,67913.33918730488,67891.3227190164,67870.93792807317,67874.84948335284,67891.36742250531,67858.73387560056,67824.87098275077,67802.60864527329,67761.97317385355,67779.13931359522,67842.32769517037,67842.10417772582,67786.02365088745,67786.78361019894,67825.31801763989,67825.49683159552,67793.64559574671,67789.5552265114,67815.9079332242,67798.67473824916,67780.56982524035,67795.61254925877,67791.83510444582,67785.37545029825,67785.86718867626,67822.81462226089,67853.97295403159,67806.47549706406,67766.37646751123,67771.38325826923,67817.74077626954,67868.25571873852,67841.09834922533,67821.47351759356,67800.46287780558,67748.89740334719,67800.30641559439,67863.6736111252,67836.11391021179,67818.92541872566,67790.98573815652,67745.81286261235,67728.04322577038,67727.75265309247,67786.35892705429,67817.56196231389,67824.26748565049,67859.65029712324,67878.73868688807,67843.37822715977,67783.9002351642,67731.55244964987,67718.14140297669,67725.89745830267,67700.48352485699,67670.53218728688,67611.12125052468,67491.47236245542,67322.94020926241,67153.98337292473,66989.02749884457,66791.25926390401,66612.11003209473,66423.41660540302,66184.96819555381,65952.80062589653,65673.20265450509,65406.90397106457,65166.80153212566,64946.65920098534,64687.4683722816,64435.47480529247,64192.444287829916,63987.747012108215,63799.4559168167,63640.62442071729,63473.29926172487,63273.60877676115,63083.21661749085,62885.42603080584,62725.07461608346,62641.61320228734,62505.84870646581,62379.896626460155,62359.44478028355,62314.182497761554,62234.74439796739,62181.79311535277,62107.69708248343,62065.47463720735,62077.65633793549,62109.14994587302,62108.76996621728,62107.54062027224,62105.48425978235,62159.68724008647,62197.66285391604,62211.69974943397,62250.144749897096,62269.009622217374,62337.65182943962,62423.01314151444,62458.46300822056,62535.46476786909,62620.91548692173,62678.40417366078,62751.09204662944,62825.25513473215,62904.26855138166,63016.340198080565,63106.14950730199,63184.201798939925,63254.118055596125,63342.38509445013,63484.408078719156,63597.61966438528,63663.55731052844,63744.76119813457,63872.21084501873,63993.08907903303,64132.653371411965,64259.20894851792,64317.65876026855,64358.24952819938,64368.330164948726,64406.88692413413,64470.589395831754,64531.073216327815,64575.37437383823,64635.90289782321,64700.70060499914,64738.87738452881,64806.223190572644,64803.58568472692,64822.42820530274,64872.853740793915,64890.824543335984,64897.59712190594,64971.82726524202,65013.513268651164,65039.64245791942,65064.54230124263,65050.706571424795,65051.198309802814,65082.870731695984,65098.516952814694,65076.366374059486,65102.00382494972,65180.458447987854,65185.30877653466,65217.96467518386,65234.81789050316,65216.31064609416,65216.82473621664,65221.58565778562,65246.038466219725,65274.38047818905,65299.14621104553,65350.488168059375,65396.24218895939,65406.680453620014,65431.11091030967,65466.49372178242,65550.93861233456,65565.28843227487,65537.05817902782,65559.5216822054,65659.79160783191,65721.70593997311,65743.38713209477,65789.2752634615,65811.51524919453,65870.27798536755,65913.90859054429,65970.07852436049,66020.10172845147,66035.3903216589,66102.24438932471,66150.94884049283,66202.80488762914,66250.54821378567,66323.01256930978,66404.75289878284,66469.72941991442,66533.4542433565,66570.55813915232,66614.65813096263,66722.57235319285,66792.7121272936,66870.89852939827,66944.41341691178,66984.53479820905,67064.35287765895,67122.6909306873,67157.47024505977,67209.862734063,67253.00160086174,67306.4893253433,67337.4911949028,67393.19174208543,67451.32862941368,67500.21189453744,67529.89501117409,67585.1038199787,67646.74993118644,67650.28150681037,67657.724637714,67677.30476585684,67694.51560908742,67736.51453691894,67785.1519328537,67800.93226443914,67803.03332841794,67829.4083868752,67823.86515425029,67835.42100613368,67892.93204461719,67887.45586722564,67903.10208834436,67976.23699620212,68024.4050055033,68031.22228756217,68045.50505226912,68073.40002934933,68117.25415197064,68148.90422211937,68147.22784128522,68132.31922773352,68093.94128250376,68054.15517737332,68037.88310740986,68075.25522413912,68100.33388141797,68087.72749754519,68105.98887276517,68118.41644268233,68079.85968349692,68092.98015749219,68116.87417231491,68131.20164051076,68112.56028563503,68085.00058472164,68050.46713953819,68025.36613051489,67979.16507472577,67938.86487947284,67901.44805925466,67879.40923922173,67856.9680877886,67864.38886694776,67858.75622734502,67839.64548583573,67835.37630264477,67829.18486943065,67786.69420322111,67744.87408934523,67715.12391747521,67755.6923336616,67753.36775223825,67759.98386859702,67753.32304874934,67692.54865557536,67650.48267251046,67651.10852135521,67633.80827114682,67588.34482292472,67581.99692749941,67572.96682273947,67542.27787760233,67549.98922943941,67558.9969824549,67608.61785514568,67634.88115488067,67639.37385551618,67633.31653276879,67605.17568649957,67566.50716859188,67560.62865980013,67572.60919482818,67564.38375286863,67533.82891819823,67482.79988560676,67437.0682164512,67466.1254842431,67465.25376620934,67418.98565518686,67367.46488421738,67293.57001704813,67230.18046977288,67139.36533205096,66964.19471075472,66757.99986815451,66549.32398191976,66352.47216850187,66142.65634329991,65907.82891605246,65650.8956135387,65380.30539516275,65111.34685413204,64884.946034544235,64680.76284894501,64472.064610965805,64221.76977655528,64008.7576518962,63782.46859103067,63588.12017299178,63393.54823750833,63178.23388317036,63004.98551189727,62826.5291841661,62666.91537701075,62582.492838203056,62455.22200527454,62372.67701300109,62295.451735908006,62185.45880144344,62045.33571545312,61919.56244940311,61838.738541452716,61805.76971838114,61765.380116150394,61764.15077020536,61759.233386425185,61740.45792108273,61725.99634242015,61733.797101235046,61739.69796177125,61763.83784578298,61795.6890816318,61825.66277094636,61875.641271548426,61960.04145861167,62026.426139643925,62055.21518650236,62116.07898665417,62239.170043369544,62404.9305802501,62548.40642790872,62653.370219870834,62684.774420830545,62823.48934692018,62983.99722385374,63152.28350785775,63308.991588233905,63480.58593041729,63603.69933887713,63746.28111675753,63909.582961748005,64064.860530479025,64210.86212526109,64347.16306294955,64505.77104160441,64600.989472984016,64726.271000656016,64927.61551470942,65138.81714806762,65269.75366708681,65337.479452786385,65413.3412734677,65547.69760938855,65678.38825921873,65806.79903111447,65892.09328795593,65958.58972771045,66045.11333049696,66135.7049507743,66212.77376565621,66269.6366035505,66331.90856360299,66411.86075351964,66415.5264396103,66414.90059076555,66431.68675085148,66451.42334120552,66472.54573971579,66537.61166782519,66573.24034848694,66559.5610808803,66528.17923166505,66558.21997621297,66604.59984595774,66632.4277678046,66657.75229427246,66695.45968716856,66754.8035686974,66797.2718831625,66815.4662031491,66829.01136028902,66834.15226151375,66799.46235411911,66779.77046725398,66795.1708191837,66790.32049063689,66826.8208893324,66880.62153823633,66978.16455103928,66989.42983024476,67025.59495277345,67097.45581119726,67146.60729725448,67162.7005532623,67174.4575708458,67226.55948717112,67322.71669181784,67379.04308784522,67450.3228009132,67532.62192399763,67573.03387797283,67571.15633143859,67609.71309062399,67642.4136927621,67667.33588782977,67752.58544118231,67845.4122359052,67931.66761775823,67976.25934794657,67998.00759530159,68058.62552626438,68141.95282959376,68202.52605706765,68280.19836904983,68362.87747179002,68370.41000967145,68391.48770469282,68490.05889774072,68579.55528253976,68604.85745726318,68664.29074576983,68759.41977017162,68798.49061947949,68840.75776824448,68901.77803060747,69015.05667150697,69070.86897741187,69062.84470115241,69137.63363809987,69192.82009516003,69215.01537740414,69292.91120683089,69379.7253822953,69446.87002263905,69448.63581045101,69489.8524272266,69526.9116195335,69555.23127975837,69551.38677971206,69562.1156170506,69533.99712252583,69511.26539841478,69534.98059928186,69539.7638725953,69530.97963702437,69540.32266620669,69581.8298556602,69645.0852924687,69704.42917399755,69679.10464752969,69622.04064393528,69559.50046294933,69514.23818042735,69464.72906645884,69441.75147315877,69443.60666794857,69418.41625194743,69396.9809290148,69384.57571084211,69400.04311800518,69348.18707086887,69264.47978788374,69193.82592366051,69118.47819310168,69041.20821251968,68990.87208400632,68956.40569405624,68885.88594029975,68805.82199166084,68747.5733456103,68714.11278416071,68650.49971944091,68576.80601797176,68582.77393374132,68539.4786047314,68456.37481884657,68419.62855096204,68365.26910844674,68337.7764627667,68273.38108699096,68194.41237383036,68092.6225295809,68030.79760441752,68014.21261003168,67958.51206284905,67939.04369342848,67878.69398339915,67835.44335787813,67798.07124114886,67742.01306605495,67697.46603935552,67704.01510048093,67647.9122218981,67557.67822953203,67467.31012669923,67406.46867829189,67318.44750862688,67184.73937329523,67088.73863085969,66958.0032775406,66764.88420544675,66564.47846466047,66307.92514180245,66036.2396879482,65818.35488299787,65578.74418243697,65300.084984312656,65021.35873095498,64774.81898961294,64518.19861152156,64282.00772786233,64026.594343971534,63776.29950956101,63533.55956477638,63310.891486512606,63111.51392597127,62963.925357332875,62789.71586104821,62606.878591403794,62476.18794157362,62323.57023043278,62143.30341140073,62021.97814249732,61944.8199206376,61863.548977798106,61786.010776282645,61721.79421446255,61691.88758038135,61683.61743493289,61729.43851106626,61765.871854528414,61783.26151171464,61814.28573301861,61826.8921168914,61854.451817804795,61930.62656290848,62025.62147684354,62073.543616955714,62113.17325987497,62154.81455979521,62200.50152546186,62322.43029146556,62471.404668260184,62602.832925657385,62751.69554372973,62873.35608879997,63023.4257010729,63060.887224779995,63177.764496536794,63339.27820197085,63507.65389295267,63681.952796215155,63819.57248682648,63940.65188654088,64107.909990299944,64237.19248022944,64340.435187868505,64462.967450972494,64593.434583358125,64765.31949821943,64901.173401018794,64999.40931789987,65094.98537719076,65185.62170095703,65328.0693683707,65453.82028267626,65540.61210639622,65629.72851153952,65691.53108495845,65724.49990803003,65776.08773423287,65825.01570284554,65853.20125260369,65931.90174483082,66031.36700765694,66094.42127876535,66073.85767386647,66083.58068270453,66088.02867985114,66081.61372919247,66068.0462203081,66026.04729247658,66009.35053936846,66024.19209768678,65995.24658861716,65977.74517270866,66002.64501603186,66014.49144059318,66017.41951911683,65995.51480955063,65964.08825684646,65967.39631502585,65971.03964937206,65936.39444546634,65942.98821008066,65959.14852132184,65969.45267551574,65955.84046314245,65949.51491946161,65970.21263482721,66004.32139686601,66033.2892576801,66033.4904233802,66044.12985374092,66108.94991266131,66167.2656139452,66186.30930022112,66214.67366393491,66240.17700435841,66233.11385311054,66251.12935914152,66346.19132830994,66449.2328702489,66506.36392907667,66562.24329021493,66617.98854088646,66678.00297474898,66715.35273973379,66775.4118770852,66809.69945307964,66865.15413107326,66894.77019247654,66943.78756806703,67040.23534539167,67136.77252969415,67221.95502781332,67303.9859299643,67385.2568728038,67436.62118156209,67456.49188238286,67485.10211528566,67512.19242956549,67550.3468573507,67632.75773915742,67699.56710333432,67708.28428367189,67730.97130429403,67815.1032704238,67900.44223075417,67934.90862070426,67941.70355101867,67954.64521105829,68024.62852294785,68076.35045961743,68136.20843126875,68195.90994070888,68200.71556576676,68213.90309499539,68245.41905467738,68270.45300846732,68256.14789201593,68253.24216523673,68258.42776995037,68288.20029356483,68333.90961097594,68352.26039317374,68392.51588493775,68440.68389423894,68482.3698976481,68509.41550843901,68506.59918863764,68501.30182520174,68526.91692434752,68543.926601878,68541.9820001104,68547.79345366877,68556.22006132842,68558.34347705168,68568.24529984538,68574.16851212604,68566.6359742446,68593.50277107987,68617.17326845805,68579.06354416175,68583.2880238638,68590.48528557841,68627.2986086963,68641.49196642543,68628.28208545233,68641.0002280474,68678.4617517545,68668.13524581614,68659.59687943422,68600.83414326122,68598.55426532678,68621.10717548218,68630.89723955361,68683.33443204575,68698.95830142002,68707.87664745768,68722.36057786472,68751.14962472316,68770.90856682164,68774.82012210133,68770.66269763264,68753.49655789096,68714.55981904981,68719.83483074127,68764.53831965188,68745.00289499795,68687.1118768587,68591.53581756781,68489.56715936269,68391.06302154817,68274.18574979136,68111.37564317891,67949.34784762238,67767.62816520073,67547.61994452715,67307.49515384379,67054.80868277654,66832.83350859088,66607.25970354793,66334.52371770427,66093.39309852042,65882.63850005133,65614.14934565418,65379.478380617904,65149.54598540616,64946.32392481851,64775.64600415779,64586.997280954994,64379.707202876474,64186.699889504904,64003.0579570601,63826.70269330773,63669.0781914089,63528.53042227393,63417.12932790868,63308.365739389155,63179.731450048865,63082.903693068474,62995.06133735912,62925.100377214,62917.634894565934,62925.83798478103,62894.277321610134,62897.89830421189,62925.79328129212,62964.08181954406,62974.00599408222,63005.61136074202,63053.891128765485,63132.882193670535,63211.73914810886,63307.739890544406,63410.6696737611,63497.34973875878,63574.932643763146,63707.00910174956,63899.12234534292,64061.083085666076,64146.80202565218,64268.8201986337,64413.32422653726,64609.371377154755,64795.9413881232,64976.588186810994,65177.57507295312,65379.99247074038,65590.72471746501,65791.10810650684,66005.66250153334,66239.26058283575,66456.65364940806,66634.86410795023,66747.2039755826,66870.56325323143,67054.56281358753,67268.69252546936,67395.56102699769,67513.42177551053,67662.32909707178,67808.06247092038,67905.58313197888,68008.82583961796,68128.8770590874,68253.39862744792,68322.30905560363,68364.79972181318,68420.5002689958,68460.12991191506,68521.86543010062,68559.63987823008,68571.4863027914,68582.90804420806,68545.93825887899,68499.84896181214,68482.45930462591,68459.59347004813,68425.9987981318,68405.88222812203,68401.1436582975,68407.46920197835,68362.49749213428,68353.48973911878,68357.78127405421,68332.50145107525,68263.30045024163,68223.51434511118,68214.30542639559,68196.4463825758,68175.48044627672,68129.7264253767,68098.81396279501,68054.33399132895,68038.66541846578,68003.48377269313,67952.96883022414,67910.16523959223,67939.82600448442,67926.90669618925,67882.89611135675,67849.97199177409,67855.15759648771,67885.57832069139,67895.4801434851,67883.9242916017,67915.70847221714,67952.81236801295,67952.32062963494,67982.6966503497,68030.52938348406,68018.92882811175,68019.73349091214,68065.08518041196,68069.4661223252,68064.88401471186,68076.66338403981,68145.17148079532,68196.13345815343,68239.8087668191,68237.3053714401,68249.33060995706,68301.25371232674,68377.58491964161,68466.92484222948,68544.64185770057,68596.36379437016,68653.71837064247,68707.3625573352,68745.60639209824,68807.5877794728,68886.86941705579,68926.99079835306,68948.18025209669,68965.52520579401,69002.87497077882,69021.38221518781,69045.61150617737,69068.63380296633,69058.553166217,69094.45006781221,69143.17687072478,69140.18173696777,69170.89303384937,69180.68309792079,69121.54038209205,69097.93693994725,69117.02532971208,69110.99035870914,69100.14976264832,69052.16056730278,68994.87304626382,68975.69524952117,69011.90507553877,69030.52407867005,69013.04501450599,69009.98282551562,68960.65252550275,68947.71086546313,68970.15201689626,68902.76150736351,68828.5984192608,68812.14753534169,68784.11844779474,68723.3217028763,68679.48993199944,68634.697036111,68560.69041021948,68489.63421459607,68385.94447206789,68314.01655841072,68280.10896207202,68244.79320583263,68202.39194660091,68214.35012988451,68141.34933249347,68023.39917700281,67965.48580711911,67869.70858212812,67800.97696792806,67742.2365834995,67655.44475977955,67584.12034322266,67560.27103188886,67536.44407229949,67503.6317114391,67452.06623698071,67379.31130877869,67274.43692379439,67150.42944555634,67047.87964199539,66936.56795460796,66754.22242334156,66570.37932519667,66337.6082584391,66074.52822620014,65835.45396750617,65591.30586282085,65333.83611844017,65073.147722857924,64834.81107173098,64595.89327524821,64301.18552460498,64068.95089971434,63880.12336255591,63637.47282474909,63436.68710430707,63255.14623584107,63067.324527183126,62848.702114665764,62639.93682145319,62453.14329304019,62284.16410495807,62168.002089023845,62019.67591281843,61904.20680096231,61814.106919062964,61720.00607490612,61609.72256776364,61536.0735697834,61478.763696999995,61429.45574873159,61401.516068162455,61358.95834671955,61366.17796017861,61379.499599873976,61401.6948821181,61430.84155688782,61482.339976112846,61543.98608732058,61630.15206219579,61700.53770548555,61751.67849679929,61872.422620346864,61992.76441249424,62041.98295378482,62123.902097213526,62237.22544160193,62393.75470802245,62553.18970122215,62694.81035409097,62878.51934176914,63034.02042794471,63170.05314469971,63307.78459403331,63494.466363724045,63640.914993395214,63756.76408490707,63912.086357126995,64039.334838311064,64182.296595847205,64330.1310336746,64464.934404484564,64631.052569276406,64760.60328013937,64873.92662452777,64967.938061706795,65056.45096974981,65171.741267650286,65310.076214084176,65413.36362521215,65470.80760846229,65510.504306614916,65556.7277141485,65611.22126713053,65680.77989587544,65751.74668452104,65881.43150585073,65945.15632929282,65998.62170202991,65998.75581249665,65952.91238461882,65919.83180282495,65951.50422471813,66038.340751927,66062.57004291654,66007.71886202322,65975.26412907412,65964.73645743566,65985.76944896812,66021.75575754115,66046.7897113311,66015.45256560476,66022.82864127502,66070.16963603135,66056.4903684247,66025.84612677648,66027.38839714389,66034.85387979196,66043.30283919607,66038.92189728282,66053.29406896759,66134.47560482926,66185.70580312083,66225.29074255118,66271.44709485139,66285.52869385823,66312.21667673787,66363.08924711814,66400.61782605862,66460.56520468774,66530.16853692157,66570.5134356634,66597.55904645432,66646.59877378926,66701.40525119368,66732.4518242421,66780.93275796565,66822.93168579719,66881.87323592583,66933.81869003996,67007.42298453128,67136.16903259385,67252.91219388392,67354.05383754418,67397.17035259848,67410.22377136037,67421.55610579922,67458.07885623918,67505.79983065127,67556.31477312026,67652.6731434671,67722.12001348972,67797.11011613728,67866.91461407121,67925.14090837729,67947.67146678823,67957.48388260411,68044.92390691327,68087.571035334,68087.10164870044,68115.44366066977,68187.03629816012,68226.353016657,68270.45300846732,68309.41209905292,68388.73844012481,68471.35048763163,68512.18712475146,68522.6253894121,68574.4367330595,68612.0994224667,68612.63586433361,68668.26935628288,68701.21582761,68701.19347586554,68742.20892694104,68733.49174660347,68730.58601982427,68748.48976713298,68783.22437801652,68820.5964947458,68859.1085504423,68893.8655130703,68873.50307387151,68868.54098660243,68919.70412966063,68980.0314879455,69018.25297096408,69025.45023267869,69041.99052357562,69052.96523010316,69075.56284374748,69093.53364628955,69076.92630015926,69055.69214292671,69053.41226499228,69035.12853802783,69040.18003227473,69009.78165981552,69026.05372977897,69043.93512534323,69059.58134646194,69067.53856748802,69096.14880039082,69111.61620755389,69112.17500116528,69048.33841900092,69049.79128239052,69060.94480287371,69037.02843630653,69022.3880436883,69013.71556683964,69044.71743639917,69038.95068632968,69017.15773548576,68951.15303410924,68870.06090522539,68774.88717733469,68687.13422860316,68566.52421552232,68381.36236445456,68176.62038524395,67990.22918823114,67785.48720902053,67531.8396129417,67259.08127535359,66988.82633314448,66728.51791721796,66444.3825417021,66151.12765444847,65853.0447903925,65571.14458932217,65315.75355717583,65061.547167485616,64846.009295703094,64617.14978422521,64411.82665965876,64234.867898806086,63975.4535526578,63761.21208205367,63565.969594236565,63401.14783062314,63236.013142587326,63079.550931400176,62965.44527595583,62882.319138326544,62814.68275960479,62750.33208731796,62676.83955154891,62595.45684998714,62561.728067604075,62569.23825374106,62577.08371604487,62577.8213236119,62581.97874808058,62635.555879539956,62641.97083019863,62673.933824769716,62730.93077313075,62770.49336081665,62804.64682634435,62853.172463556824,62945.12754024596,63071.68311735191,63240.30467752274,63408.65801676012,63548.088198672325,63635.036484603464,63730.09845377189,63875.943586342764,63987.47879117475,64091.481458125294,64264.662774165015,64402.90831362108,64549.02166712543,64747.013419510535,64912.3716249909,65069.7055542118,65188.05804110266,65309.807993150716,65493.382870362155,65648.3922181597,65811.71641489463,65926.29145697254,66041.20177521727,66176.65334661644,66255.30913535466,66368.92305242099,66434.01133227484,66492.03646088082,66578.82828460078,66653.10313142576,66742.86773715827,66796.15429593972,66855.54288095748,66887.61763425084,66919.80414626648,66901.18514313521,66916.89841948729,66920.07236719994,66937.93141101973,66944.65928610078,66970.38614396885,66979.52800745107,66955.34341995043,66965.04407704402,66979.55035919552,66922.70987304568,66878.81104693544,66820.89767705175,66776.68592651915,66761.15146412271,66767.92404269267,66694.31974820135,66669.24109092249,66666.82710252132,66629.2314683475,66627.89036368017,66621.00602638794,66627.21981134651,66602.61054070122,66585.8690841042,66611.5735902278,66642.88838420968,66658.15462567266,66675.43252413662,66666.38006763221,66641.34611384227,66646.26349762244,66615.84277341876,66606.47739249199,66620.73780545447,66637.99335217397,66681.80277130638,66738.64325745622,66816.80730781643,66852.97243034511,66867.70222994116,66836.70036038166,66806.39139490026,66807.66544433421,66825.59154338736,66860.035581593,66887.34941331738,66918.30657938798,66918.08306194343,66970.47555094666,67036.48025232319,67099.66863389834,67101.88145659941,67091.06321228304,67145.06502688707,67198.37393741298,67244.64204843546,67283.84700821007,67338.47467165884,67413.62123651757,67512.95238887696,67593.99981427191,67639.48561423845,67636.69164618154,67638.30097178233,67679.11525715773,67738.61560089774,67764.65538318818,67789.01878464446,67823.12754668326,67835.0633782224,67821.47351759356,67834.99632298903,67862.04193377995,67920.5811525084,68001.31565348097,68078.89855848534,68105.6759483428,68091.32612840249,68099.90919827332,68130.66519864384,68180.66605099036,68245.03907502163,68261.89229034094,68281.13714231696,68303.57829375009,68322.46551781482,68355.79196879768,68387.01735580176,68400.85308561959,68401.05425131969,68379.86479757605,68401.90361760899,68468.82474050818,68483.19691219293,68496.60795886612,68469.45058935293,68456.66539152448,68468.5118160858,68479.4641708689,68497.54673213324,68539.65741868704,68578.32593659472,68587.13252391011,68573.74382898139,68604.7904020298,68652.5560799308,68669.90103362812,68688.14005710365,68681.63569946715,68664.13428355864,68633.95942854398,68614.22283818995,68630.02552151984,68655.41710322107,68654.79125437632,68649.47153919596,68612.85938177817,68517.68565388747,68453.5584990452,68408.87736187904,68334.44605284286,68280.91362487241,68223.2014206888,68104.1783814643,67862.53367215797,67652.8743091672,67443.43846362096,67211.22619047477,66963.92648982126,66668.86111126676,66397.68974753497,66135.07910192956,65917.77544233507,65665.02191603446,65429.88156436462,65194.651805716974,64945.40750329584,64734.094111215374,64484.04514599385,64217.18766894194,64007.64006467343,63795.43260281475,63632.175461313185,63463.620956375715,63316.03238773732,63174.143513935036,63039.31779138062,62915.958513731784,62807.105518234435,62717.072691568465,62668.055315977974,62606.275094303506,62502.451241308605,62474.04217410591,62475.539740984415,62461.07816232183,62488.41434579067,62540.02452373797,62563.337393204856,62575.16146602172,62598.20611455514,62607.593847226366,62661.19333043019,62753.55073851952,62837.101559293464,62895.81959197755,62979.728040662776,63091.352652472575,63183.12891520607,63257.64963122006,63382.99821412542,63499.74137541549,63626.67693217718,63743.263631256064,63852.96599304271,64003.0579570601,64163.901110160485,64305.99114966288,64446.80713973131,64599.60366482779,64775.91422509125,64937.182061336294,65056.27215579417,65166.64506991447,65291.479562697365,65448.947602385,65608.94138919609,65722.04121613994,65800.36172871134,65865.22649112064,65924.2574482271,65992.6761380048,66067.59918541899,66156.00033473973,66213.64548368996,66226.56479198513,66232.7338734548,66250.72702774132,66304.08064175614,66368.99010765435,66406.40692787254,66384.74808749535,66374.913319935,66391.5206660653,66392.3700323546,66410.56435234121,66405.31169239423,66379.18250312597,66313.53542966074,66270.08363843961,66269.41308610595,66310.09326101461,66298.87268529805,66297.68804284192,66249.5423852852,66203.65425391844,66212.46084123384,66226.92241989642,66236.06428337864,66267.80376050518,66285.26047292477,66269.5919000616,66270.75419077328,66281.95241474538,66253.65510626497,66257.29844061118,66254.95150744337,66275.4480571089,66307.67927261344,66339.53050846225,66364.63151748557,66381.14945663804,66450.64103014959,66472.03164959332,66440.53804165579,66489.86834166865,66531.06260669978,66594.7203749085,66702.38872794971,66756.52465302046,66812.82869730338,66888.9363871737,66948.41437916928,67005.25486531912,67069.5831858615,67138.56066925057,67218.69167312286,67282.17062737592,67332.55145937818,67387.3579367826,67453.40734164802,67482.39755420656,67494.35573749016,67545.5412322928,67613.57994241476,67694.40385036515,67720.5330396334,67750.46202545906,67793.757354469,67847.33448592835,67908.71237620263,67987.03288877403,68030.81995616197,68076.73043927317,68121.43392818379,68155.85561464497,68185.85165570398,68199.28505412162,68234.7572725722,68237.99827551821,68208.38221411493,68236.59011561754,68267.94961308833,68259.32183972858,68279.95249986082,68345.62192507052,68351.72395130682,68361.87164328953,68342.69384654687,68326.75705275024,68373.85217831757,68375.2379864738,68371.14761723849,68394.30402449418,68378.12136150854,68411.29135028021,68434.26894358027,68435.63239999204,68462.94623171643,68507.2697409713,68579.75644823986,68605.34919564119,68658.23342302245,68693.0127373949,68702.37811832168,68762.99604928447,68821.42350929065,68870.59734709232,68903.18619050816,68943.6204962278,68920.95582735012,68937.31730429141,68984.90416823675,68995.9906334866,68994.15779044126,68999.65631957726,69017.3365494414,69014.5872848734,69044.98565733263,69041.72230264214,68954.30463007744,68868.09395171332,68773.56842441183,68686.0613448693,68558.45523577396,68399.0425943187,68216.98763573023,67983.546016639,67754.93237435012,67522.7871564373,67289.52435130172,67041.55409831453,66792.39920287124,66549.14516796413,66292.94947301739,66078.01509833516,65864.51123529807,65644.45831113558,65449.95343088549,65252.69928606741,65057.38974301693,64874.44071465024,64664.64724119273,64484.24631169395,64331.203917408464,64211.46562236138,64086.49701911176,63964.05416298559,63865.43826644877,63756.29469827351,63661.7244674831,63589.72949859256,63527.323428073345,63482.03879380689,63476.85318909326,63462.793941830874,63472.53930241339,63472.94163381358,63505.217552807044,63572.78687629544,63619.23380127356,63668.385287330784,63707.85846803886,63782.89327417532,63866.48879843817,63916.95903741825,63961.528415862136,64013.69738742083,64086.13939120047,64167.63385148453,64265.91447185451,64429.43983428954,64583.152780908684,64709.59659929235,64784.65375717328,64901.46397369671,65015.43551867432,65111.12333668749,65276.43683867894,65402.1877529845,65544.23308899798,65676.04132605092,65790.25874021754,65928.77250060708,66073.61180467746,66205.71061440834,66296.68221434143,66428.84807930567,66578.67182238959,66745.68405695964,66865.534110729,66922.30754164548,66970.98964106913,67042.67168553731,67085.36351744694,67179.82198951507,67296.29692987168,67381.2112070574,67474.19446399146,67569.18937792652,67617.44679420552,67622.27477100787,67664.11723662821,67735.53106016292,67774.62426121524,67754.88767086121,67758.15102555169,67781.21802582956,67807.68249126464,67813.02455818947,67805.46966856357,67863.13716925826,67917.51896351803,67935.57917303791,67962.4906733621,67953.2370511576,67932.69579800317,67947.69381853269,67978.20394971418,68011.73156639714,68028.92005788327,68081.4690090977,68141.72931214921,68139.40473072586,68128.09474803148,68124.11613751843,68131.04517829957,68152.45814948775,68164.08105660451,68188.95854818328,68247.36365644498,68345.97955298181,68441.89088843952,68548.64281995807,68616.97210275795,68649.94092582952,68667.64350743813,68710.69296725905,68764.00187778496,68800.65873869167,68823.72573896954,68869.99384999202,68976.29874662147,69073.79705593552,69082.82716069545,69119.6628355578,69165.61802215791,69218.1893251168,69254.80148253459,69306.25519827071,69388.93430101089,69433.10134805458,69461.53276700173,69487.63960452552,69569.80461714324,69624.54403931428,69664.48660665592,69717.57199973727,69751.43489258706,69773.719581809,69798.01592803192,69866.56872827634,69927.2090109836,69965.18462481316,70013.46439283663,70063.75581786106,70075.73635288911,70068.67320164123,70098.6468909558,70122.13857437833,70178.64378436134,70251.33165733,70269.81654999455,70299.5443701201,70317.60457963998,70304.37234692245,70330.21096351279,70378.62484200297,70392.59468228754,70404.59756906005,70410.87840925198,70423.3730344025,70489.82477066813,70501.42532604044,70449.09989227056,70449.25635448174,70426.07759548159,70427.1728309599,70460.94631683188,70488.05898285616,70484.86268339904,70526.77220425275,70537.72455903585,70494.40687828146,70465.12609304501,70467.29421225718,70504.1969423529,70524.96171295187,70500.08422137311,70466.40014247896,70491.56820673564,70537.92572473595,70516.75862273677,70539.62445731455,70520.33490184962,70447.06588352512,70422.34485415755,70399.30020562414,70379.04952514762,70364.09620810702,70304.57351262255,70321.11380351947,70348.94172536633,70323.05840528708,70291.43068688283,70298.2479689417,70235.64073272237,70150.12295843638,70033.46920412412,69874.50359755798,69696.449601227,69518.57441885167,69327.7575764367,69082.33542231744,68786.35362224026,68454.02788567876,68141.70696040476,67789.89050267822,67477.3237082152,67173.0047074562,66863.29893628346,66500.44071679602,66155.32978240607,65848.57444150143,65601.76647922593,65331.98092365038,65069.794961189626,64792.70038517719,64533.75542566246,64312.13787938809,64096.73411807229,63868.7239728837,63668.675860008705,63506.87158189674,63317.462899382466,63152.97641193586,63018.68713124838,62917.12080444346,62858.87215839293,62823.824623087006,62722.43711023773,62655.91831873874,62644.63068778881,62617.33920780888,62586.4714487161,62630.97377192662,62686.11552549786,62700.845325093906,62736.496357500124,62783.85970400092,62818.28139046209,62864.01305961765,62920.89824925641,63017.72600623679,63137.33019081714,63228.68177040599,63327.61059136518,63419.856240732224,63520.23792508101,63672.69917401066,63815.2138966577,63978.918073048364,64088.911007512936,64213.32081715117,64409.74794742441,64649.64922066322,64853.87710975136,65017.514230908666,65174.75875315175,65319.46394675541,65501.87653325517,65643.36307565727,65801.27815023401,65900.27402642656,66069.81200812006,66210.06920457711,66340.40222649601,66483.25222530989,66552.05089474331,66620.89426766566,66714.3916147222,66790.14167668125,66880.62153823633,66962.22775724265,67036.94963895675,67161.91824220637,67255.57205147411,67339.61461062606,67427.41226284651,67471.33344070119,67480.2294349944,67477.70368787095,67481.90581582855,67507.4315079965,67541.3391043352,67569.85993026018,67563.69084879052,67529.29151407379,67536.6899414885,67574.37498264015,67561.85800574518,67572.0951047057,67650.84030042175,67665.63715525117,67669.63811750867,67680.90339671414,67711.83821104029,67708.9324842611,67719.05782449935,67754.5970981833,67806.63195927524,67869.21684375011,67898.25175979755,67884.99717533555,67897.08946908587,67917.6307222403,67954.71226629165,68008.6023221734,68028.87535439436,68055.09395064044,68070.0696194255,68116.27067521462,68200.13442041092,68236.72422608426,68312.74250897676,68413.90650438148,68493.18814196446,68554.96836363892,68590.2394163894,68655.19358577652,68722.69585403155,68845.22811713554,68919.72648140509,68929.7177111766,68968.07330466191,69056.13917781581,69119.23815241315,69136.69486483275,69181.51011246564,69176.95035659676,69236.33894161451,69323.22017231229,69407.15097274196,69480.73291548883,69530.26438120179,69570.89985262154,69647.5439843588,69721.81883118377,69761.53788108086,69809.99646305996,69852.46477752505,69871.35200158978,69925.06324351588,70052.51289040004,70186.13161875388,70301.2431026987,70399.25550213522,70468.41179947995,70512.28827384571,70607.03731859176,70706.12260176214,70779.52573055336,70861.02019083741,70906.6848047596,70955.23279371652,71013.74966070053,71085.20818772414,71118.44523172919,71156.42084555875,71211.87552355237,71243.92792510128,71267.88899515737,71267.21844282371,71305.30581537556,71352.57975489853,71384.96743261427,71416.34928182952,71398.49023800972,71340.0404262591,71301.41661184032,71275.66740222782,71261.80932066552,71261.76461717661,71267.44196026826,71257.38367526337,71275.44388478326,71300.99192869567,71279.86953018542,71241.58099193347,71231.5674104175,71235.21074476371,71204.47709613766,71154.36448506886,71070.90307127274,71028.47946029657,71011.13450659925,70970.78960785743,70956.84211931731,70933.79747078389,70869.55855721934,70810.0135099904,70746.06516910376,70676.7300578034,70603.75161215683,70595.660280664,70584.84203634763,70511.50596278977,70441.38854043347,70392.2147026318,70378.44602804733,70362.46453076179,70292.74943980569,70265.90499471486,70281.19358792229,70258.84184346699,70240.89339266937,70187.74094435465,70140.84698448742,70092.5448647195,70022.91918074121,70001.61796827531,69969.31969753739,69931.70171161911,69936.37322621027,69870.7932079784,69821.731128899,69700.20469429549,69527.89509628953,69363.40860884293,69197.35749928445,69019.14704074229,68790.86867462024,68560.73511370839,68287.86501739801,67942.10588241887,67614.33990172624,67300.56611306264,66989.78745815605,66681.91453002865,66373.57221526769,66006.22129514471,65644.77123555794,65321.45325201193,65010.04874826059,64725.46633785562,64438.84991870522,64183.79416272571,63947.93855523331,63696.570837088926,63481.48000019551,63248.91009913804,63013.94856142385,62813.07343400401,62700.24182799362,62604.375196024805,62454.37263898524,62346.681934199565,62282.934759013035,62201.909685362545,62155.06042898422,62151.66296382702,62133.58040256267,62103.33849231464,62096.409451533495,62067.754515141794,62080.539712970225,62098.19759108992,62133.28982988475,62222.1380140946,62328.42055897958,62444.44846444708,62544.9642592626,62650.12921692482,62777.04242194205,62885.04605115009,62988.69109018935,63098.68402465392,63213.92961906548,63322.827318051735,63434.16135718362,63573.256262929,63742.88365160032,63913.628627494414,64102.389109419484,64292.17777158949,64497.523247900404,64698.46543055361,64842.097740423415,64978.75630602316,65148.651915627954,65315.73120543137,65473.06513465228,65587.10373486325,65782.90501629174,65966.70341094774,66063.79938886159,66144.1092066895,66269.45778959488,66408.23977091788,66555.89539478962,66718.01259732398,66842.26594475102,66880.82270393643,66899.77698323452,66952.5047484046,66980.22091152918,67051.79119727507,67104.22838976722,67157.60435552649,67224.1678505144,67256.17554857439,67233.24265876325,67259.55066198714,67347.9965147968,67369.00715458479,67357.98774456832,67368.22484352885,67409.97790217136,67411.5648760277,67399.31612006619,67419.54444879823,67459.21879520641,67492.27702525581,67481.65994663954,67478.06131578224,67487.5831589202,67504.34696726168,67526.72106346143,67546.41295032656,67589.88709329213,67640.55849797232,67703.90334175865,67813.8515727343,67885.93594860268,67959.85316751637,68054.7586744736,68130.9334195773,68189.67380400584,68243.3626941875,68330.35568360754,68431.83260343464,68544.82067165621,68648.71157988449,68710.64826377014,68761.6325928727,68818.2942650669,68892.92673980317,68964.8323017159,69018.789412831,69089.24211135413,69181.73362991019,69300.13082028995,69436.90114461198,69506.57153207916,69555.58890766966,69682.16683652006,69825.24035277848,69928.88539181773,70034.02799773551,70129.78287098205,70202.64955790635,70251.5328230301,70264.69800051427,70272.1858349068,70384.61510951699,70484.10272408757,70512.02005291225,70532.11427117756,70569.44168441794,70616.15683032952,70664.83892975318,70706.56963665124,70771.9037856941,70770.74149498243,70801.13986744164,70860.08141757028,70896.89474068818,70866.45166474005,70850.06783605431,70858.96383034752,70862.13777806018,70824.65390260862,70819.15537347262,70852.0794930553,70878.0298683679,70891.77619120791,70903.86848495824,70942.2911336769,70950.58363086982,70960.95484029708,70916.7430897645,70912.31744436234,70911.5351333064,70887.66347022813,70839.89779232714,70797.94356798453,70774.51893979537,70781.962070699,70826.48674565397,70828.38664393267,70822.32932118527,70849.64315290966,70848.16793777561,70788.98051845796,70768.7968932148,70815.7132048265,70817.09901298273,70800.67048080808,70809.96880650149,70816.89784728264,70779.23515787545,70786.87945447916,70775.79298922933,70727.06618631676,70723.22168627044,70725.14393629359,70742.33242777974,70727.91555260606,70710.54824716429,70736.699788177,70697.36071793565,70666.91764198753,70662.15672041854,70695.41611616804,70710.32472971974,70712.20227625397,70685.46958988543,70677.49001711489,70668.21404316594,70659.47451108391,70622.52707749928,70597.9625103429,70577.89064382203,70567.31826869468,70540.02678871475,70545.57002133966,70518.56911403766,70477.84423564008,70458.91230808644,70463.36030523304,70424.624732092,70385.0621444061,70343.37614099696,70336.49180370472,70264.00509643616,70143.9538769667,70040.10767222734,69977.6121947303,69943.83870885834,69865.16056837566,69827.72139641302,69843.45702450955,69809.05768979284,69768.39986662864,69727.85380218671,69741.66718026009,69735.74396797943,69624.20876314746,69518.99910199632,69444.94777261588,69385.80505678714,69317.78869840964,69204.71122321025,69043.55514568748,68924.4650512296,68792.90268336567,68576.3366313382,68244.16735698788,67924.51505953254,67613.9599220705,67244.01619959071,66888.22113135114,66528.69332178752,66154.41336088341,65803.1333450238,65428.60751493067,64997.218846943244,64587.95840596657,64278.61026270512,64003.63910241594,63714.45223265317,63416.01174068591,63137.97839140635,62850.043219333085,62575.60850091082,62362.10463787373,62125.80199549222,61914.28743771165,61719.335522572466,61542.91320358673,61355.40441935116,61203.12198437715,61064.496465265336,60956.5375395462,60834.13938690894,60717.44092910778,60664.26612904861,60602.48590737414,60564.86792145586,60580.849418741396,60631.16319551029,60650.36334399741,60642.47317820468,60676.134905354374,60703.00170218965,60753.62840338092,60797.32606379105,60845.78464577015,60908.07895756709,60973.23429265431,61073.928901425475,61147.08616102769,61242.1034267072,61371.83295152581,61513.69947358364,61650.78272232804,61781.98746228069,61938.98611533477,62080.15973331449,62232.71038922196,62414.854754788255,62610.92425715021,62776.23775914166,62945.0604850126,63116.16308881797,63316.9935127489,63557.99002146602,63733.71943637365,63861.23613849118,63984.461305673285,64082.65251906544,64209.31985489367,64367.30198470378,64533.68837042909,64685.926101914185,64804.03271961603,64922.005226851135,64998.64935858839,65101.71325227181,65236.71778878186,65326.169470092,65366.73788627838,65465.77846595985,65563.85792062973,65677.78476211843,65764.75539979404,65797.29953972096,65879.28573838303,65967.03868711456,65996.40887932884,66015.45256560476,66052.06472302256,66142.49988108872,66187.6727566329,66238.70178922436,66293.30710092868,66344.1126160756,66397.82385800169,66484.41451602156,66527.46397584247,66576.30253747733,66596.93319760957,66684.2838149409,66804.98323499957,66905.78960249301,66974.67767890426,67092.31490997254,67202.12903048146,67268.08902836908,67315.65354056997,67409.62027426009,67537.00286591088,67626.45454722102,67709.75949880594,67804.91087495218,67889.35576550434,68021.47692697965,68156.70498093427,68291.70951744432,68388.22435000233,68459.48171132586,68512.5224009183,68596.96729147044,68758.81627307132,68896.79359159393,69026.32195071244,69136.13607122136,69224.89484845339,69319.08509958805,69389.47074287782,69462.2480228243,69576.0184021018,69712.16287757909,69812.4775066945,69844.0381698654,69926.96314179458,70032.77630004601,70099.02687061153,70199.78853461606,70277.05851519806,70330.0545013016,70353.03209460164,70431.08438623959,70506.7897447097,70634.50761252733,70778.2069776305,70824.94447528654,70889.07163012882,70982.12194229626,71083.53180689,71110.06332755844,71155.41501705826,71188.6073575744,71196.02813673356,71257.83071015248,71337.24645820218,71361.76632186965,71359.15116776839,71402.78177294515,71435.19180240534,71468.74177083276,71527.5268587502,71548.29162934919,71545.83293745911,71589.15061821349,71640.78314790525,71659.15628184752,71660.92206965949,71630.36723498908,71618.52081042777,71620.75598487329,71607.74726960031,71616.68796738243,71599.63358636304,71624.46637445288,71612.9552260584,71587.94362401291,71617.69379588292,71616.06211853768,71562.90967022296,71508.84080038557,71503.4316782274,71484.67856462939,71464.58434636406,71438.43280535136,71426.69813951231,71390.86829315046,71346.94711529578,71328.57398135352,71265.00562012263,71197.88333152335,71185.79103777303,71219.38570968935,71226.47121268169,71215.94354104323,71175.95627021269,71117.97584509561,71082.03424001149,71076.71452483113,71050.22770765159,70998.72928842656,70984.53593069744,70972.22011950257,70966.94510781112,70942.80522379938,70959.79254958541,70965.89457582172,70928.18718292561,70873.47011249901,70845.23985925196,70840.724806872,70808.58299834526,70730.95538985198,70634.10528112714,70578.51649266678,70534.46120434538,70460.6780958984,70381.41881005988,70275.76211401966,70177.30267969402,70117.82468769845,70033.84918377986,70017.10772718284,69987.7151832241,69926.11377550528,69886.68529828612,69871.4414085676,69845.5357367439,69749.33382860826,69635.7869667753,69496.98263370784,69325.8129746691,69144.96501028122,68923.1239465623,68729.28961864587,68525.73228189138,68269.02249682219,67968.1456647093,67636.78105315937,67293.14533390348,66921.21230616717,66605.9185988806,66359.96000289441,66066.86157785196,65801.30050197846,65539.38276045118,65238.10359693809,64958.88560520239,64712.74819526055,64464.733238784465,64213.052596217705,63982.15907599439,63820.77948102707,63653.297859823455,63496.92505561413,63364.02158308287,63226.44659596046,63118.621780708054,63024.453881317844,62937.907926786895,62845.72933265321,62789.40293662583,62815.39801542736,62820.896544563366,62827.08797777748,62864.75066718468,62927.17908944835,63022.68809350587,63114.26319053927,63158.45258932741,63181.5642930942,63245.35617176964,63368.51428371839,63547.1494254052,63688.90418874076,63801.66873951778,63921.63055200942,64047.29205933715,64235.80667207321,64455.65843053561,64675.0631541089,64917.31136051552,65146.30498246014,65340.474586543394,65515.98048400647,65673.04619229391,65884.40428786329,66136.08493043005,66366.35260180863,66553.9060895331,66763.83367345735,66933.1034342174,67099.57922692051,67319.94507550538,67509.82314465323,67708.39604239418,67859.3150209564,67974.02417350103,68070.0696194255,68185.71754523725,68362.02810550072,68567.95472716745,68707.20609512403,68816.57318074384,68930.41061525472,68993.64370031879,69011.36863367184,69032.66984613775,69101.22264638217,69203.41482203185,69290.92190157437,69339.22402134229,69339.38048355347,69336.45240502982,69320.5603147221,69286.69742187232,69284.28343347114,69274.96275603327,69323.17546882338,69338.866393431,69359.83232973008,69376.81965551611,69366.15787341094,69373.15396942545,69361.3746000975,69313.13953556294,69282.98703229273,69205.67234822182,69161.63941164486,69165.17098726881,69243.51385158466,69312.37957625146,69337.3688265525,69343.62731499998,69306.07638431506,69294.6546428984,69328.91986714839,69380.99943172926,69411.5319146552,69428.96627533034,69409.45320242086,69408.35796694255,69445.14893831598,69500.58126456515,69497.36261336358,69501.81061051019,69529.39266316804,69627.76269051584,69689.11822904566,69688.91706334557,69742.20362212701,69792.78561982937,69826.69321616807,69864.60177476428,69929.89122031823,70016.3254161269,70089.21445479566,70157.96842074019,70214.63009293439,70269.05659068306,70333.47431820325,70366.5548999971,70409.82787726258,70446.01535153572,70429.69857808335,70458.3758662195,70490.51767474624,70535.26586714576,70618.34730128614,70664.9730402199,70697.18190398,70716.87379084513,70756.34697155321,70779.54808229781,70800.1116871967,70833.52754515738,70894.39134530918,70965.96163105508,70972.91302358068,70973.78474161444,70978.63507016124,70967.54860491141,70932.94810449459,70957.8032443289,70976.31048873789,70997.20936980359,71009.4581257651,71024.14322187225,71014.75548920101,71038.98478019057,71022.48919278255,71003.40080301772,70999.77982041596,71006.28417805245,71029.70880624162,71025.95371317312,71042.42694883668,71021.6174747488,70998.37166051527,70969.78377935693,70955.5457181389,70911.5351333064,70892.35733656376,70876.3311357893,70843.36231271771,70801.27397790838,70797.92121624008,70777.11174215219,70702.8368953272,70633.7253014714,70573.46499841989,70517.36211983707,70436.40410141995,70351.31101027859,70339.7551583952,70317.09048951752,70264.7874074921,70167.02087724458,70090.66731818525,70003.65197702074,69949.3595897388,69936.32852272136,69902.35387114929,69808.38713745918,69755.30174437782,69686.52542668885,69642.87246976764,69656.93171703002,69615.93861769898,69575.75018116835,69543.74248310835,69475.12262763055,69375.50090259325,69284.9539858048,69253.88506101193,69271.11825598696,69256.2990494131,69183.52176946662,69088.61626250939,68998.35991839886,68876.56526286188,68723.03113019837,68530.426148227,68329.70748301834,68107.70995708823,67862.10898901332,67595.20680847249,67335.1889652239,67078.25566271016,66855.94521235766,66579.05180204533,66277.03503096521,66020.10172845147,65827.31793252444,65596.9385024236,65360.36763910862,65153.90457557495,64960.98666918119,64712.30116037145,64482.23465469297,64314.44010906698,64177.75919172278,64061.06073392162,63923.10576714346,63791.27517834606,63659.086961637375,63585.125039234765,63521.780195448424,63443.05735147683,63362.43460922654,63323.475518640946,63325.688341342015,63304.90121899858,63279.17436113052,63334.00319027939,63391.98361539646,63434.29546765036,63498.020291092434,63540.443902068604,63517.01927387944,63601.575923153876,63753.36661974986,63860.990269302165,63943.0435231976,64045.92860292538,64170.22665384134,64315.87062071212,64446.87419496467,64585.09738267629,64706.15443064624,64806.04437661701,64969.72620126322,65149.99302029527,65318.659283955014,65460.90578566859,65569.55761546583,65714.79925093643,65889.72400304365,66049.51662415465,66187.29277697716,66305.13117374554,66429.33981768368,66532.22489741146,66613.42878501759,66672.66090782415,66782.67619403318,66906.3930995933,66954.8516815724,67022.95744692773,67073.1818167188,67109.74927064768,67147.32255307706,67193.83653328854,67265.58563299009,67369.901224363,67419.18682088696,67415.02939641826,67348.97999155283,67320.63797958351,67320.25799992777,67298.24153163929,67260.55649048764,67248.64301069296,67227.7664813717,67265.60798473454,67268.2231388358,67218.80343184512,67208.90160905142,67229.9122488394,67248.97828685978,67248.48654848177,67256.48847299677,67209.63921661845,67182.41479187188,67165.98625969724,67207.64991136192,67249.55943221562,67275.10747612805,67332.4397006559,67363.66508765997,67347.43772118542,67383.53578848075,67479.26830998281,67590.20001771451,67671.29214659837,67719.39310066619,67798.63003476025,67884.21486427961,67957.61799307085,67996.82295284545,68045.30388656902,68119.31051246054,68208.67278679286,68288.96025287632,68351.56748909563,68466.2542898958,68565.89836667757,68622.0012452604,68704.59094102275,68803.45270674858,68889.2610537125,68963.8264732154,69053.92635511475,69183.96880435573,69282.04825902561,69322.50491648972,69384.24043467527,69494.3004243732,69577.69478293596,69647.5439843588,69766.90229975013,69822.46873646602,69813.37157647271,69786.01304125942,69817.21607651902,69881.43263833913,69919.96704578007,69946.05153155941,69971.24194756054,69984.89886342274,69974.2147295731,69961.3177730224,69984.67534597819,70004.16606714322,70000.7238984971,70086.75576290558,70161.76821729759,70181.03542101807,70139.23765888663,70158.10253120691,70187.22685423218,70183.5164646526,70150.56999332548,70150.36882762538,70148.96066772469,70156.31439165049,70151.7546357816,70158.0131242291,70164.24926093212,70165.88093827736,70204.43769746277,70210.56207544352,70163.57870859846,70176.34155468244,70160.09183646344,70150.68175204775,70177.70501109422,70224.48721223918,70247.64361949488,70267.02258193762,70266.19556739277,70284.99338447969,70281.90884374487,70292.8388467835,70281.57356757803,70344.31491426408,70421.74135705727,70437.58874387607,70461.63922090999,70451.46917718282,70456.76654061873,70498.1843230944,70550.06272197518,70602.14228655605,70642.93422018697,70665.68829604248,70667.69995304346,70712.38109020962,70775.12243689566,70820.22825720647,70833.77341434639,70851.34188548826,70877.06874335631,70909.6352350277,70924.83442125731,70862.47305422701,70755.76582619737,70658.04399943877,70555.51654762228,70404.66462429341,70291.60950083846,70129.13467039284,69960.80368289992,69737.15212788012,69532.27603820278,69397.71853658183,69235.4448718363,69096.93111144676,68986.24527290408,68912.2162952681,68907.8130016104,68905.64488239824,68939.53012699248,69055.46862548216,69201.85019991997,69437.77286264574,69723.74108120693,69990.8667791923,70249.49881428467,70513.67408200193,70735.96218060997,71034.42502432168,71237.75884363161,71406.13453461343,71615.61508364858,71841.16653694709,72026.28368452593,72185.7410294701,72383.35280219947,72585.74784824227,72734.1634314255,72898.202883983,73078.17913033714,73341.79560444303,73616.54324728767,73799.64873786554,73978.88737665265,74192.10066701182,74377.7542564576,74590.63227064995,74743.29468527969,74892.35846905214,75052.10638667422,75179.51133006946,75316.77339276951,75522.58825571397,75687.3653158385,75848.67785557244,75968.43850236399,76080.19722464052,76135.16016425611,76170.74414142896,76227.51757234544,76301.0548116034,76371.23928919308,76394.75332436006,76370.94871651515,76347.68055053717,76342.36083535681,76344.35014061334,76291.48826497653,76207.6915750136,76106.48287611996,75954.26749637933,75756.49926143876,75565.19068064578,75388.2989750265,75201.90777801369,75000.38445000464,74758.4491680204,74499.54891199457,74241.2745048135,73992.72310647048,73724.25630381779,73424.4300036943,73092.08191538833,72752.93889676797,72435.32060805806,72190.1443231278,71931.1770118686,71637.51979321477,71337.7381965802,71068.28791717147,70821.68112059607,70570.84984431861,70309.37913768043,70071.35541097587,69899.58225483683,69740.92957269306,69553.68900939096,69329.47866075978,69131.50926011911,68945.69920846215,68750.18849971158,68609.50662010988,68469.11531318609,68265.20034852033,68046.71204646969,67873.10604728533,67671.82858846529,67471.66871686801,67312.32313064612,67203.58189387106,67053.48992985368,66885.3824598053,66721.65593167019,66568.25590947342,66403.07651794869,66241.383998559,66078.50683671318,65923.8551168269,65771.95266150865,65621.1901451576,65509.72199555898,65387.323842921716,65254.91210876848,65146.416741182424,65042.883460865436,64954.4823115447,64846.18810965874,64740.933745018694,64669.38581101726,64563.30443183237,64429.08220637825,64322.37497834861,64232.342151682635,64140.83410988261,64027.644875960934,63964.680011830336,63897.133040086395,63809.87182973288,63760.98856460912,63738.07802654243,63657.94702267016,63582.08520198885,63547.663515527674,63485.81623861984,63376.5609117223,63293.747698515384,63186.280511174264,63134.2009465934,63104.987216590314,63051.70065780886,62978.40928773991,62943.160586733895,62933.07994998455,62924.206307435794,62887.16946687335,62868.841036419995,62857.173425814326,62854.62532694642,62861.152036327374,62831.40186445736,62803.21631469922,62811.84408805896,62816.202678227746,62824.11519576493,62810.65944560283,62797.740137307665,62801.584637353975,62768.034668926564,62740.18439533525,62773.84612248494,62780.59634931044,62766.17947413677,62800.467050131214,62827.91499232233,62850.13262631091,62844.6340971749,62832.206527257746,62834.329942981,62795.97434949569,62776.37186960839,62823.24347773117,62882.14032437091,62925.14508070292,63001.83391592907,63046.202128672856,63102.46146946686,63150.62947876805,63193.902456033524,63223.071482547704,63251.65936370604,63305.370605632146,63383.713469947994,63435.90479325114,63409.4179760716,63406.0652144033,63425.08654893477,63416.83875523076,63375.93506287755,63284.65053852207,63189.856790287115,63091.62087340604,62958.672697385875,62802.74692806565,62616.9815798976,62419.23569670149,62203.988397596884,61972.51373201773,61755.36653463442,61482.25056913502,61182.15604807807,60888.54353291316,60569.83000872493,60253.86574910471,59975.58653063614,59725.939896814816,59497.326254525935,59281.16253389866,59054.806417799766,58800.622379854016,58564.43149619478,58375.134572402785,58196.36532024924,58017.551364606785,57879.01525247279,57737.88633798198,57607.79918525209,57540.67689665281,57556.39017300489,57543.24734726517,57463.04928815953,57454.86854968889,57469.21836962919,57469.21836962919,57509.98795151567,57522.169652243814,57544.09671355447,57617.00810396768,57771.21278896485,57969.22689309441,58088.78637418585,58172.1807327486,58277.14452471072,58393.32889238941,58551.936871044265,58748.587518762055,58894.298540866206,59042.3341443937,59225.43963497158,59448.3312306799,59650.078076133505,59861.03384030269,60045.771008225805,60211.62095208418,60422.62141974228,60661.807437158524,60847.6621923044,61070.2632153348,61299.94974135754,61519.376816675285,61730.869022711406,61924.25631573872,62134.45212059643,62328.12998630166,62500.79721221891,62657.72881003962,62782.004509211125,62914.59505732001,63070.72199234033,63230.4252064735,63375.35391752171,63527.07755888433,63645.78767368647,63770.041021113524,63885.376022502904,64013.8091461431,64122.63978989599,64195.37236635356,64220.674541076965,64225.83779404614,64295.53053325779,64358.65185959958,64405.18819155553,64417.03461611684,64463.72741028398,64485.45330589454,64498.73024210099,64531.31908551683,64547.30058280237,64558.36469630775,64603.716385807566,64652.733761398056,64655.863005621795,64693.63745375127,64777.72471639213,64827.61381001637,64866.50584536861,64907.34248248846,64935.59508747997,64978.33162287851,65018.00596928668,65052.42765574785,65112.03975821016,65199.88211391951,65337.94883941994,65392.37533716862,65432.51907021035,65521.68017884257,65601.76647922593,65738.40269308123,65862.07489515244,65966.34578303645,66088.83334265153,66166.32684067808,66248.20128061787,66351.64515395703,66459.91700409853,66576.07902003278,66646.66582902263,66770.18156888266,66870.51854974253,66974.45416145971,67109.12342180293,67234.49435645275,67339.56990713715,67398.3549950546,67449.83106253517,67527.92805766202,67659.91510867061,67792.48330503504,67883.43255322368,67963.16122569576,68035.7149881977,68151.04998958707,68288.02147960919,68441.84618495061,68570.74869522438,68622.33652142722,68646.31994322776,68685.45784776901,68787.35945074075,68886.44473391114,68961.56894702541,69054.84277663741,69113.04671919903,69236.2942381256,69383.10049570806,69475.27908984174,69562.60735542863,69601.61114950314,69678.52350217385,69754.63119204417,69826.20147779006,69873.02838242393,69923.87860105975,69954.8581188748,69955.72983690856,69954.72400840807,70014.44786959265,70077.32332674543,70117.98114990964,70144.95970546719,70224.48721223918,70313.60361738248,70311.45784991478,70288.21203568125,70282.69115480079,70311.14492549241,70321.2479139862,70322.38785295343,70308.88739930242,70273.30342212957,70275.51624483064,70295.3422421625,70346.37127475397,70321.67259713085,70266.37438134842,70260.71939000124,70299.70083233129,70311.01081502567,70276.92440473133,70250.4822910407,70251.95750617475,70262.9322127023,70241.89922116986,70204.50475269613,70212.46197372222,70218.85457263644,70177.79441807204,70147.46310084619,70115.0977748749,70097.28343454402,70078.4409139682,70070.90837608677,70103.40781252478,70037.13489021479,70028.7306342996,70032.46337562363,70009.12815441229,69997.92993044018,69998.98046242958,70004.12136365431,69934.94271456513,69893.79315302291,69885.50065583,69910.8475340423,69878.88453947121,69850.22960307951,69849.62610597922,69832.68348368209,69783.4202389026,69741.82364247128,69678.07646728474,69639.22913542141,69612.40704207505,69500.53656107624,69319.30861703261,69130.21285894071,68950.46013003113,68738.02915072789,68496.22797921038,68244.97201978827,67983.85894106138,67672.43208556558,67332.48440414482,67013.25678983412,66667.83293102181,66319.34688321911,66010.91516148033,65755.61353631181,65457.776541444844,65124.08734847157,64804.39034752731,64554.02845788342,64304.33712057318,64064.637013034466,63828.73670205316,63601.08418477586,63379.801914668315,63204.340720694156,63092.15731527297,62976.93407260586,62843.62826867441,62755.78591296505,62689.96002554418,62664.30022290948,62650.30803088046,62696.62084539186,62742.017238380584,62795.013224484115,62791.7722215381,62749.23685183965,62773.51084631811,62861.30849853856,63016.362549825026,63185.5652553517,63282.772991987826,63425.84650824625,63571.62458558376,63713.31229368595,63838.88439403587,64005.82957337255,64134.84384236859,64265.75800964332,64419.96269464048,64560.018725397436,64726.44981461165,64991.362689895956,65213.04729140369,65422.79606137229,65634.73530229751,65827.07206333544,66048.26492646516,66254.39271383199,66409.06678546271,66603.45990699052,66814.75094732654,66974.78943762653,67136.90664016089,67284.8304849661,67428.70866402492,67575.22434892945,67714.07338548581,67876.39175372027,68036.09496785342,68163.1869868263,68204.4483070908,68262.89811884143,68326.06414867213,68369.31477419315,68447.97056293137,68572.49213129189,68674.52784473036,68781.4362384601,68822.63050349122,68842.21063163408,68846.59157354731,68849.43024509314,68887.89759730072,68948.4708247746,68964.16174938223,68961.81481621442,68970.82256922992,69009.96047377116,69067.91854714377,69072.50065475711,69052.27232602505,69000.50568586656,68977.66220303324,68968.83326397339,68927.19196405316,68921.0228825835,68925.89556287475,68937.20554556913,68935.08212984588,68944.13458635028,69016.286017452,69043.82336662094,69034.16741301626,69043.55514568748,69035.68733163922,69031.48520368162,69000.2374649331,68955.01988590001,68989.55333108346,69028.26655248005,69079.11677111588,69140.29349569006,69153.34691445195,69172.6811734058,69169.19430127076,69114.99132096664,69155.24681273065,69247.85009000899,69312.60309369602,69318.25808504321,69333.79254743965,69365.12969316599,69393.51640862423,69399.1266964825,69405.09461225207,69445.88654588301,69507.42089836847,69579.41586725901,69609.61307401814,69627.53917307129,69618.15144040006,69608.2272658619,69629.4837748389,69664.66542061155,69685.54194993281,69723.94224690703,69755.94994496703,69742.82947097176,69750.65258153112,69730.33484582124,69708.8548193997,69692.38158373613,69664.03957176681,69616.94444619947,69584.69087895047,69595.44206803347,69595.64323373357,69600.27004483582,69599.21951284642,69522.77654680927,69518.23914268483,69522.17304970897,69478.11776138756,69458.78350243373,69486.83494172513,69546.5140994208,69528.65505560102,69497.0496889412,69440.47742372482,69339.33578006456,69318.43689899884,69322.72843393427,69304.17648603636,69279.07547701306,69282.16001774788,69262.06579948256,69205.64999647737,69183.70058342227,69118.83582101295,69031.1946310037,69004.21607544614,68988.2792816495,68887.5623211339,68751.70841833454,68671.42095225108,68605.8409340192,68544.88772688959,68505.59336013715,68473.18333067695,68466.92484222948,68442.0026471618,68379.95420455387,68248.77181634567,68124.49611717417,68025.4555374927,67944.69868477568,67948.9902197111,67928.40426306776,67882.9184631012,67851.60366911933,67855.29170695445,67881.28678575598,67839.91370676919,67817.38314835825,67798.42886906015,67785.12958110924,67809.33652035434,67812.48811632254,67789.1975986001,67739.26380148694,67720.2871704444,67714.58747560829,67719.77308032192,67704.08215571429,67661.21150984902,67613.87051509268,67619.52550643987,67600.68298586404,67548.8492904722,67549.67630501704,67576.18547394103,67594.82682881676,67581.3487269102,67551.57620329574,67531.23611584141,67496.85913286914,67490.1312577881,67451.06040848022,67371.13057030804,67320.86149702806,67256.91315614143,67131.87749765844,66985.56297845399,66818.10370899484,66591.1217440512,66357.74718019333,66115.6554359979,65861.60550851889,65543.45077794204,65225.63132353203,64884.14137174385,64569.249995857484,64264.439256720456,63955.6946105593,63591.33882419334,63237.689523421475,62976.84466562804,62723.219421293674,62504.552305287405,62243.34981958268,61993.300854361165,61792.448078685775,61594.34456757839,61399.213838483556,61242.97514474096,61065.099962365624,60916.57262046011,60791.8498863995,60677.20778908823,60581.56467456397,60525.57355470343,60483.73108908309,60456.77488526999,60431.53976577995,60423.895469176234,60442.067437418395,60457.15486492573,60471.43762963267,60482.345280926864,60560.643441753804,60653.78316089907,60744.508891643156,60854.21125342981,60918.785443161185,60957.54336804669,61086.93761669846,61271.18304624356,61455.18260659964,61569.444724255176,61682.0081093321,61836.05633211808,61953.872377142005,62162.9729465214,62401.7789842819,62570.8699310863,62724.15819456079,62921.7029120568,63136.74904546131,63347.28012648584,63522.16017510417,63652.113217367325,63775.15957059379,63920.356502575465,64050.018972160695,64244.83677683315,64402.997720598905,64551.770931693434,64649.7609793855,64734.4293873822,64866.72936281316,64941.85357592745,64984.70187004827,65074.891158925435,65149.03189528369,65198.83158193011,65273.59816713312,65325.454214269426,65373.17518868151,65440.23042204743,65512.27009442689,65572.44099050057,65585.00267088445,65562.6732781736,65581.2252260715,65616.42922358862,65661.57974738834,65680.17639877515,65640.16677620016,65610.77423224143,65627.06865394935,65632.07544470733,65677.76241037398,65704.49509674252,65667.65942188018,65643.22896519053,65667.502959669,65735.42991106867,65796.13724900929,65848.41797929024,65867.72988649964,65867.551072544,65909.88527654234,65959.4167422553,65999.40401308585,66025.10851920945,66068.51560694166,66129.02177918218,66167.48913138975,66210.91857086642,66267.20026340488,66334.50136595982,66412.9783407424,66525.98876070842,66586.1149532932,66658.44519835057,66782.11740042179,66885.51657027204,66959.299678719,67002.6173594734,67079.23913946618,67131.47516625824,67165.96390795278,67246.05020833615,67329.891601788,67437.64936180704,67520.12729884712,67598.51486665188,67657.29995456935,67663.29022208336,67723.50582164596,67859.4714831676,67942.10588241887,68035.89380215332,68124.49611717417,68177.35799281097,68234.71256908329,68309.50150603075,68377.60727138606,68474.54678708874,68538.07044483071,68542.4737384884,68535.7235116629,68590.93232046752,68742.65596183014,68854.25822189549,68966.55338603896,69053.81459639248,69054.5522039595,69045.27623001054,69050.26066902408,69106.22943714017,69177.46444671923,69270.78297982014,69315.68763443084,69313.40775649641,69316.11231757549,69368.43775134537,69402.21123721734,69404.1334872405,69450.82628140763,69470.98755490631,69492.4005260945,69501.31887213218,69519.20026769642,69580.46639924841,69614.57516128721,69650.85204253817,69653.0425134948,69648.57216460374,69637.26218190935,69631.00369346187,69660.6421066096,69674.27667072734,69657.82578680823,69617.52559155531,69605.4780012939,69652.34960941668,69657.08817924121,69644.8394232797,69620.43131833451,69595.91145466703,69597.31961456772,69611.71413799694,69606.10385013865,69568.44116073145,69563.54612869574,69570.3187072657,69625.48281258141,69638.7373970434,69604.8745041936,69613.18935313099,69606.64029200558,69582.43335276048,69553.30902973522,69546.916430821,69531.73959633584,69493.60752029509,69473.22272935185,69496.24502614082,69497.58613080814,69528.49859338983,69544.18951799745,69544.9718290534,69576.15251256854,69581.51693123781,69566.42950373048,69584.24384406136,69587.35073654065,69530.66671260199,69475.72612473085,69412.20246698886,69338.15113760842,69221.47503155173,69168.2778797481,69063.96228837517,68942.14528109375,68837.67322750964,68699.89707468713,68506.06274677071,68276.95736610382,68022.7062729247,67721.09183324479,67427.92635296898,67101.36736647694,66790.49930459254,66499.65840574008,66169.83606455756,65826.1332900683,65472.685154996536,65157.32439247661,64828.44082456122,64546.76414093544,64293.63063497909,64005.53900069464,63765.995355367115,63551.68682952963,63315.60770459267,63048.437303118386,62811.15118398085,62649.816292502444,62503.59118027582,62377.527341547895,62246.70258125098,62112.90503894151,61986.729441491305,61842.8959659214,61812.31877950654,61836.90569840738,61788.44711642827,61777.628872111905,61781.29455820258,61792.69394787478,61812.22937252872,61867.19231214432,61929.30780998562,61984.918950190426,62069.43089597594,62195.27121725932,62268.18260767253,62359.28831807236,62495.43279354963,62652.92318498173,62817.81200382853,62995.35191003703,63178.72562154837,63346.69898113001,63455.28375569389,63615.27754250498,63825.696864807236,64037.70316096582,64243.20509948792,64439.18519487205,64637.266354234984,64784.363184495356,64991.832076529514,65208.6887012349,65399.32672969422,65600.15715362516,65735.38520757976,65864.95827018717,66029.75768205615,66211.14208831097,66352.44981675742,66439.1298817551,66536.09174920223,66639.62502951921,66760.30209783341,66853.44181697868,66938.95959126468,67045.57741231649,67099.75804087616,67160.3536200945,67243.30094376815,67290.73134550231,67296.25222638277,67308.54568583319,67285.76925823322,67267.75375220225,67292.58654029209,67326.62824709753,67349.96346830887,67362.79336962622,67386.9556053824,67379.44541924541,67387.73791643833,67376.22676804385,67376.53969246622,67354.03148579973,67339.94988679289,67305.639959054,67271.3300313151,67260.86941491002,67249.55943221562,67280.87422619751,67296.31928161613,67285.65749951095,67303.36008111955,67287.37858383401,67284.76342973273,67333.42317741194,67394.26462581928,67428.46279483591,67470.50642615634,67525.87169717213,67546.70352300449,67591.25054970391,67643.84420440724,67646.25819280841,67715.25802794195,67794.53966552492,67879.36453573282,67955.18165292521,67973.73360082312,67961.2389756726,67977.15341772478,68033.59157247443,68112.31441644602,68177.64856548888,68280.15366556092,68354.85319553057,68396.80741987318,68456.39717059102,68517.66330214302,68575.19669237098,68623.61057086117,68651.88552759714,68671.957394118,68715.94562720605,68742.9688862525,68814.31565455385,68857.11924518576,68864.003582478,68858.86268125327,68832.73349198503,68833.38169257423,68869.32329765837,68947.53205150749,69014.20730521767,69058.1508348168,69143.08746374697,69209.91917966833,69208.55572325656,69197.581016729,69231.80153749009,69316.00055885322,69392.75644931274,69458.35881928907,69512.87472401556,69515.26636067228,69539.33918945065,69599.1301058686,69576.48778873537,69560.34982923864,69620.11839391213,69638.17860343201,69620.94540845697,69699.37767975064,69750.18319489756,69749.98202919746,69734.5593255233,69706.77610716535,69733.82171795628,69755.79348275585,69743.88000296116,69734.93930517904,69733.9111249341,69773.69723006454,69784.73899182546,69802.93331181208,69850.60958273525,69880.62797553874,69903.96319675008,69951.77357813997,69972.47129350559,69976.49460750754,69937.69197913313,69919.96704578007,69961.72010442258,69996.90175019523,70058.05612302496,70116.88591443133,70115.83538244193,70116.48358303113,70129.06761515947,70089.7956001515,70066.10275102887,70068.60614640787,69968.24681380353,69800.6757856221,69667.45938866847,69493.56281680618,69278.96371829078,69060.58717496242,68813.15336384218,68553.47079676042,68329.23809638478,68065.28634611206,67788.9964329,67469.88057731159,67152.26228860168,66864.55063397296,66612.28884605037,66297.86685679757,65994.71014675024,65687.19484653411,65413.117756023144,65172.47887521731,64942.43472128329,64687.669537981696,64445.13075889716,64240.34407619764,63983.16490449487,63760.56388146447,63604.95103656662,63502.71415742805,63388.899074661625,63290.30552986926,63214.823688843695,63135.51969951626,63042.89407049347,62958.113903774494,62919.02070272216,62942.31122044459,62927.44731038181,62939.78547332114,62970.45206671382,63003.51029676322,63038.55783206914,63110.91042887097,63197.67990084647,63256.420285275024,63312.18788769101,63401.63956900115,63515.52170700094,63650.10156036635,63759.133369819334,63893.48970574018,64019.821765401575,64171.00896489727,64331.427434853016,64508.85558233924,64724.661675055235,64919.85945938343,65071.29252806813,65278.06851602418,65522.06015849831,65759.79331252495,65936.819128611,66056.51272016916,66170.8642448025,66359.66943021648,66552.0061912544,66717.3420449903,66873.71484919963,66991.93322562375,67067.14684571586,67213.72958585377,67347.12479676305,67416.95164644142,67470.50642615634,67523.12243260413,67582.64512808861,67669.70517274203,67718.65549309916,67765.54945296638,67817.78547975844,67867.24989023803,67896.7318411746,67905.78429767898,67892.61912019481,67922.65986474275,67967.56451935346,67960.65783031676,67948.43142609972,67951.538318579,67961.68601056171,67991.07855452044,68034.48564225265,68071.70129677073,68116.47184091472,68123.26677122913,68134.46499520124,68157.24142280119,68151.83230064301,68128.96646606523,68116.89652405937,68094.83535228198,68139.47178595922,68160.72829493623,68253.10805477001,68296.5151425022,68332.38969235298,68349.3323146501,68371.61700387204,68396.62860591753,68440.01334190529,68475.59731907814,68465.7625515178,68511.0248340398,68661.60853643519,68736.75510129394,68742.1195199632,68780.72098263753,68814.85209642079,68893.57494039237,68942.48055726058,68966.10635114985,69036.4472909507,69143.0204085136,69243.17857541783,69318.90628563242,69382.67581256341,69431.04498756469,69526.08460498865,69638.2903621543,69695.06379307077,69767.03641021687,69835.67861743912,69905.28194967294,69932.77459535297,70002.93672119817,70095.76351592106,70182.60004312993,70229.04696810806,70255.7349509877,70242.32390431451,70296.32571891854,70312.44132667081,70331.08268154654,70369.39357154293,70409.0232144622,70453.77140686172,70531.89075373301,70580.88577757905,70577.57771939966,70579.6117281451,70609.80893490421,70642.26366785332,70644.09651089866,70632.38419680408,70660.94972621795,70685.55899686326,70711.0399855423,70664.99539196437,70597.38136498706,70599.0577458212,70574.04614377572,70549.97331499736,70581.9586613129,70609.54071397075,70616.62621696308,70626.99742639034,70589.62530966107,70549.63803883053,70559.56221336868,70528.53799206472,70487.54489273368,70450.39629344897,70451.55858416064,70404.91049348241,70329.16043152339,70274.97980296372,70280.21011116626,70274.86804424143,70226.96825587371,70188.34444145494,70152.58165032645,70140.84698448742,70093.75185892009,70073.70234414368,70075.84811161138,70042.90164028427,70001.39445083076,70003.80843923193,69945.69390364813,69913.30622593239,69881.85732148378,69813.975073573,69761.20260491403,69691.50986570238,69539.58505863966,69384.35219339754,69219.39631931738,68986.87112174883,68723.38875810966,68442.47203379536,68139.76235863715,67819.0595291924,67467.51129239933,67033.66393252181,66642.08372140929,66300.16908647645,65945.93864034876,65573.17859806759,65192.46133476035,64800.1435160808,64410.41849975807,64087.011109234234,63746.415227224265,63400.991368411946,63133.19511809291,62900.647568779896,62640.786187742495,62418.274571689915,62214.761938424344,61988.15995313644,61807.31198874855,61635.00239074259,61453.327411809856,61315.41714852061,61214.90135370509,61120.08525372568,61042.85997663259,61005.04082501421,61014.40620594099,60996.100127232094,60963.935966960904,60981.571493336145,61020.9552670664,61059.64613671853,61097.95702671493,61190.62735922663,61310.075081595794,61374.15753294916,61435.423664501155,61489.60429306082,61534.93363081618,61684.42209773327,61818.37610225393,61929.48662394126,62060.691363893915,62222.20506932796,62392.95004522205,62527.395788120724,62667.18359794422,62825.366893454426,63024.72210225131,63237.533061210284,63463.5315493979,63653.364915056816,63788.43650680024,63894.629644707406,64045.43686454736,64202.97195946836,64419.94034289603,64600.430679372635,64745.94053577668,64866.72936281316,64957.85742495745,65116.44305186786,65278.78377184675,65400.60077912817,65526.15052773363,65624.69936903709,65711.62530322377,65777.00415575554,65874.86009298087,65912.0086922656,65968.0221638706,66009.01526320163,66022.56042034154,66052.95879280077,66075.2434820227,66132.84392748403,66221.04391110467,66289.64141483801,66295.36346141857,66306.42757492395,66361.50227326182,66387.36324159661,66419.34858791216,66446.59536440318,66440.73920735589,66447.5341376703,66430.36799792862,66429.04924500576,66495.3445190602,66538.97512423697,66548.4075603971,66562.33269719276,66629.00795090293,66720.56069619188,66763.6101560128,66799.6188163303,66803.86564777681,66820.89767705175,66906.43780308221,66980.51148420709,67002.79617342904,67030.2664673646,67079.32854644401,67150.83177695653,67215.33891145456,67301.6389967965,67386.5085704933,67471.66871686801,67523.45770877096,67526.54224950579,67567.445941859,67672.27562335439,67797.89242719322,67935.31095210445,68057.55264253053,68142.75749239416,68276.82325563708,68413.48182123683,68512.09771777365,68581.3881255851,68636.7981000898,68715.9232754616,68803.27389279293,68885.52831238846,69014.09554649539,69112.28675988755,69117.3606058789,69148.42953067178,69212.82490644752,69314.0112535967,69364.21327164331,69403.21706571784,69466.87483392654,69553.33138147967,69619.55960030075,69674.88016782764,69696.76252564938,69725.57392425227,69797.30067220934,69842.987637876,69863.84181545279,69883.15372266219,69921.82224056986,69935.4568046876,69924.48209816005,69941.62588615727,69928.19248773962,69878.6386702822,69908.2994351744,69902.26446417147,69873.52012080194,69891.93795823312,69895.62599606824,69895.35777513478,69893.39082162271,69844.9322396436,69803.22388449,69786.25891044842,69783.24142494696,69725.79744169682,69718.98015963795,69710.82177291176,69693.45446746999,69673.8966910716,69611.5353240413,69528.11861373408,69451.92151688594,69425.38999621749,69425.14412702848,69405.20637097435,69401.89831279496,69398.25497844875,69415.15289725696,69397.31620518163,69352.23273661527,69324.09189034604,69342.88970743296,69357.59715528454,69296.19691326581,69272.48171239875,69197.89394115137,69128.93880950676,69117.1594401788,69121.02629196958,69143.0204085136,69138.88533578937,69102.04966092702,69107.2129138962,69087.76689622008,69044.85154686589,68983.71952578063,68952.36002830983,68950.34837130885,68942.14528109375,68877.21346345109,68806.87252365024,68676.45009475353,68513.66233988552,68313.01072991022,68085.89465449985,67839.31020966891,67587.8530845467,67306.86930499904,67001.1197925949,66672.34798340178,66372.00759315582,66057.85382483648,65679.21527376358,65285.55635041671,64915.41146223682,64531.274382027914,64191.84079072962,63869.729801384194,63533.09017814281,63192.74016532185,62885.15780987237,62638.551013296965,62379.98603343798,62088.0051956183,61841.33134380953,61602.14532639329,61426.86294637477,61263.65050836212,61101.30978838322,60991.719185318856,60906.73785289978,60817.487337289735,60772.605034423475,60739.21152820725,60707.874382480906,60692.6751962513,60696.58675153098,60742.29606894208,60823.298790848115,60894.77966961619,60935.39278929148,60964.7406297613,61056.785113428254,61138.81601557923,61252.78756055684,61386.45099239958,61485.87155173678,61599.93250369222,61747.96810721971,61903.335082928555,62041.15593923998,62142.63285906707,62291.383718417135,62491.85651443679,62681.064031250964,62930.80007205011,63143.92395543146,63379.77956292386,63603.45346968812,63836.22453644568,64025.87908814897,64228.028265002766,64414.330055037746,64584.002147197985,64769.76749536604,64956.65043075686,65146.1261685045,65340.85456619914,65516.91925727359,65667.54766315791,65859.25857535108,65970.48085576067,66069.76730463115,66173.61350937051,66270.82124600664,66425.04828274826,66541.6573335716,66608.95843612653,66672.97383224653,66736.2516207995,66788.264130147,66881.69442197018,66968.08391428995,67043.69986578226,67057.49089211118,67065.6269270929,67121.48393648672,67175.0610679461,67214.28837946516,67259.59536547607,67298.75562176175,67343.07913101664,67408.83796320415,67475.15558900304,67564.11553193517,67631.12606181217,67676.41069607863,67711.65939708464,67739.97905730952,67802.51923829547,67927.532545034,67977.06401074697,67981.26613870457,68020.4487467347,68089.76150629063,68153.44162624379,68204.850638491,68294.5705407346,68424.34476904212,68498.95489203393,68602.17524792854,68743.59473509726,68872.40783839319,68973.81770298693,69068.63380296633,69164.0757517905,69239.46818583825,69324.69538744634,69431.82729862063,69564.10492230713,69687.91123484507,69796.96539604252,69876.62701328124,69988.0728111354,70118.27172258755,70209.24332252066,70302.4948003882,70401.2224556473,70473.35153500456,70554.55542261069,70617.18501057447,70700.4899621594,70778.22932937495,70843.89875458465,70918.82180199884,70993.45427673511,71051.81468150791,71099.53565591999,71133.10797609187,71245.24667802414,71302.26597812962,71334.7877663121,71385.66033669238,71415.67872949585,71421.84781096553,71454.34724740354,71470.28404120017,71511.27714053121,71562.75320801178,71634.4129007355,71660.31857255919,71705.80437252574,71742.2377159879,71757.28044000632,71782.4932077519,71797.8488561927,71797.58063525923,71786.82944617623,71828.06841469627,71853.28118244186,71891.72618290498,71888.48517995897,71859.96435403399,71804.8002487183,71819.66415878107,71876.05761004181,71886.42881946907,71939.67067476163,71956.09920693627,71953.86403249073,71955.94274472508,71958.89317499318,71947.04675043187,71933.81451771433,71949.6842562776,71932.29459909137,71912.69211920406,71941.41411082914,71959.69783779357,71983.77066657195,71998.12048651224,72003.97664355954,72026.73071941503,72077.98326945106,72101.43024938468,72064.61692626678,72025.25550428098,72020.8522106233,72058.13492037475,72070.54013854744,72072.10476065932,72024.87552462525,71994.16422774366,72028.11652757127,72037.28074279794,71981.6919543376,71923.7785844539,71887.92638634758,71875.78938910835,71871.90018557313,71856.85746155471,71843.7593393039,71842.19471719202,71829.6553885526,71797.51358002587,71799.23466434893,71804.66613825156,71794.92077766905,71821.98874020443,71865.03820002534,71846.3074381718,71872.23546173995,71883.970127579,71863.83120582477,71830.54945833082,71827.42021410707,71797.08889688122,71785.93537639802,71794.45139103549,71732.67116936103,71683.29616585925,71625.06987155318,71597.1525427285,71494.84860835655,71326.96465575274,71145.17791809773,70954.27166870495,70679.97106074942,70374.75799021221,70008.36819510082,69668.57697589124,69277.33204094553,68874.12892271625,68467.93067072995,68040.87824116687,67654.66244872361,67234.04732156364,66806.70431932263,66455.4913586964,66075.75757214517,65688.49124771253,65284.550521916215,64892.34446195894,64520.81376562283,64186.61048252708,63891.36629001693,63627.59335369985,63351.12462653215,63119.40409176399,62904.31325487057,62684.9979382751,62485.35215680029,62314.62953265066,62167.55505413474,62085.39004151703,62012.098671448075,61923.63046689397,61816.90088711988,61725.43754880876,61722.17419411829,61725.817528464504,61737.79806349255,61778.34412793448,61788.38006119491,61816.83383188651,61872.53437906914,61918.53426915816,61966.36700229252,62068.76034364228,62173.16534199302,62316.03769255134,62495.54455227192,62596.5744372099,62694.16215350177,62775.27663413008,62861.12968458291,63003.823221185594,63146.44970255491,63275.59808201768,63459.66469760713,63642.59137422936,63824.93690549576,64022.6604369474,64214.170183440474,64406.350482267204,64612.83589754533,64804.47975450513,64955.24227085618,65127.64127583996,65303.16952504749,65441.70563718148,65566.62953694219,65740.32494310438,65921.5081836591,66050.43304567732,66157.98963999625,66263.2887081252,66416.10758496614,66498.09378362821,66528.58156306524,66617.2732850639,66743.47123425857,66793.44973486064,66801.3175489089,66844.76934013002,66890.81393370795,66916.60784680938,66935.38331215183,66947.94499253572,66971.95076608071,66959.63495488584,66924.98975098011,66942.31235293298,66985.85355113192,67007.84766767593,67032.68045576579,67040.19064190277,67088.96214830424,67077.36159293193,67023.33742658347,67028.9253626973,67056.14978744385,67102.75317463317,67158.47607356025,67199.91620778039,67279.3319558301,67374.88566337654,67406.62514050306,67452.75914105882,67509.42081325303,67536.19820311049,67580.74522980991,67612.37294821418,67655.51181501291,67731.0383595274,67819.52891582595,67872.61430890732,67899.70462318715,67947.76087376605,68011.84332511942,68050.98122966067,68095.41649763781,68196.6922517648,68262.58519441905,68261.06527579609,68309.05447114164,68380.15537025397,68434.8500889361,68526.67105515851,68621.55421037128,68722.96407496501,68836.46623330907,68894.24549272603,68910.60696966732,68961.32307783641,69063.24703255261,69132.15746070832,69198.13981034039,69302.72362264676,69397.89735053746,69459.0964268561,69500.55891282069,69575.30314627924,69634.46821385244,69640.12320519963,69651.36613266065,69733.75466272292,69789.61167211672,69816.36671022972,69881.1420656612,69978.48391276407,70084.67705067123,70145.49614733412,70121.57978076694,70082.6430419258,70128.1064901479,70198.96152007121,70259.84767196747,70252.76216897514,70293.41999213934,70372.99220240023,70386.85028396253,70390.85124622003,70399.27785387968,70395.23218813326,70373.12631286697,70386.5150077957,70383.02813566067,70390.40421133093,70453.61494465053,70445.94829630236,70472.16689254844,70493.60221548108,70468.4788547133,70418.52270585569,70403.05529869262,70445.00952303523,70473.82092163812,70476.68194492841,70459.06877029763,70456.52067142972,70434.23598220779,70367.78424594215,70318.16337325137,70283.62992806792,70246.90601192784,70245.67666598281,70230.05279660855,70245.72136947172,70220.75447091514,70142.54571706602,70077.99387907909,70030.40701513375,70023.50032609706,70037.35840765934,69994.24189260506,69984.67534597819,69958.6132119433,69928.10308076181,69895.82716176833,69879.82331273834,69888.18286516462,69872.35783009027,69818.93716084209,69741.53306979335,69756.55344206732,69814.84679160676,69813.55039042835,69792.15977098462,69733.53114527835,69696.11432506017,69671.72857185944,69619.1349171561,69518.41795664048,69409.22968497631,69312.17841055137,69239.46818583825,69188.3273945245,69163.85223434595,69195.14467658338,69144.20505096973,69111.50444883162,69121.40627162532,69093.08661140045,69027.41718619075,68955.48927253357,68906.49424868754,68894.62547238177,68848.13384391474,68798.87059913523,68819.1436313562,68836.35447458678,68769.34394470978,68741.35956065173,68755.35175268076,68778.61991865873,68807.76659342845,68767.48874991998,68721.0194731974,68739.1243862062,68738.43148212809,68686.30721405831,68660.53565270134,68670.0574958393,68667.41998999358,68621.44245164901,68629.01969301936,68679.0652488548,68679.15465583261,68620.950713271,68596.20733215897,68630.45020466449,68687.82713268127,68655.43945496553,68591.42405884553,68566.65832598905,68607.00322473088,68579.42117207304,68573.18503537,68592.72046002393,68611.27240792185,68611.8982567666,68611.56298059976,68591.66992803453,68575.50961679335,68578.0353639168,68530.82847962719,68496.1162204881,68557.69527646247,68615.85451553519,68596.76612577034,68588.51833206635,68603.6951665515,68602.73404153992,68514.71287187492,68405.07756532164,68347.70063730486,68329.46161382933,68289.45199125433,68247.09543551152,68179.21318760076,68084.15121843234,67980.32736543744,67790.29283407841,67534.1418426206,67279.10843838555,67002.03621411756,66671.52096885693,66297.77744981974,65931.87939308636,65517.45569914052,65021.91752456636,64559.951670164075,64155.89918564549,63721.314218200954,63252.03934336178,62799.10359371944,62405.48937386148,62008.23181965731,61583.8839511733,61218.276467117845,60877.79234383015,60553.06620038345,60202.92612349107,59870.68979390738,59659.91284369384,59473.87927459232,59261.180074355616,59038.31083039175,58870.56098825467,58710.90247761041,58580.41299348033,58447.978907582634,58390.84784875487,58355.59914774885,58318.9646385866,58310.3145134824,58308.90635358171,58363.22109260811,58407.65636058526,58472.029384616544,58512.4636903362,58579.36246149093,58691.56821865657,58754.53308278717,58823.197641753875,58948.881500826064,59074.90063606509,59199.39985268115,59307.91757201166,59438.38470439729,59597.08209002997,59735.39468471941,59848.98625004128,59984.102545273614,60180.08264065775,60381.56126517788,60580.87177048586,60793.63802595592,60963.667746027444,61147.19791974997,61329.34228531627,61496.22040941959,61720.27429583959,61955.23583355377,62145.73975154636,62314.54012567284,62525.451186353115,62753.6624972418,62869.06455386455,62929.45896738279,63047.34206764008,63218.46702318991,63348.66593464207,63472.60635764675,63573.07744897336,63679.024717691515,63730.76900610555,63767.09059084542,63849.72499009669,63971.452590400295,64112.71561535783,64166.18098809493,64217.29942766421,64323.023178937816,64400.98606359793,64458.31828812579,64539.052789098365,64606.845630031305,64647.950488084614,64692.788087461966,64658.70167716762,64686.93193041467,64774.77428612403,64777.21062626966,64781.144533293795,64839.68375202224,64924.307456530034,64937.584392736484,64941.67476197181,65007.21007671477,65091.118525399994,65144.807415581636,65179.340860765085,65282.248292237324,65405.24994197488,65464.504416525895,65490.67830928306,65543.65194364214,65671.68273588213,65811.98463582809,65865.2488428651,65898.84351478142,66023.27567616412,66144.48918634525,66227.72708269682,66338.03294158375,66480.48060899742,66643.35777084324,66826.08328176539,66920.5417538335,66987.28406277705,67134.78322443762,67282.79647622067,67399.6066927441,67550.72683700644,67705.31150165934,67853.88354705376,67983.47896140564,68120.76337585013,68318.75512823524,68462.07451368267,68576.31427959375,68692.85627518372,68869.83738778083,69028.06538677996,69134.68320783177,69230.5945432895,69365.19674839935,69511.19834318142,69555.29833499173,69606.14855362756,69700.0482320843,69809.75059387095,69916.68133934514,69977.5674912414,70047.37198917533,70143.61860079988,70204.7729736296,70214.2724650231,70278.15375067637,70410.43137436287,70480.32527927462,70513.91995119095,70556.76824531177,70642.48718529787,70692.62214811113,70715.17505826653,70788.26526263538,70888.60224349526,70940.92767726514,70960.37369494126,70947.36497966826,70971.30369797989,70977.78570387194,70916.85484848676,70859.41086523663,70833.14756550164,70825.25739970892,70821.97169327398,70821.90463804062,70844.47989994049,70895.24071159848,70896.44770579907,70902.21445586854,70940.95002900959,71004.31722454038,71003.73607918454,70991.53202671195,70961.51363390847,70961.80420658638,70969.001468301,70991.06264007838,71005.09953559632,71043.14220465925,71100.96616756513,71102.08375478789,71127.92237137823,71150.1400053668,71147.21192684316,71108.6328159133,71087.66687961422,71107.89520834628,71174.7492760121,71201.83959029193,71160.82413921645,71143.90386866378,71164.22160437366,71152.33047632343,71096.36170820733,71096.51817041852,71137.44421451619,71143.72505470813,71123.9437608652,71087.35395519185,71102.32962397691,71098.30630997496,71086.4822371581,71046.60672504983,71014.42021303419,70956.23862221702,70925.05793870187,70943.02874124394,70924.29797939038,70887.75287720596,70856.95217334655,70805.1631814436,70755.51995700836,70785.69481202302,70800.87164650818,70769.66861124858,70731.62594218564,70677.7358863039,70662.04496169627,70644.0294556653,70621.81182167672,70668.01287746584,70685.62605209662,70596.24142601984,70535.57879156814,70517.25036111478,70515.86455295856,70456.40891270744,70458.26410749723,70484.86268339904,70578.60589964461,70580.57285315667,70550.10742546408,70550.71092256438,70584.10442878061,70604.44451623494,70610.25596979332,70614.54750472873,70649.55033654576,70676.59594733667,70636.18399336148,70599.34831849913,70598.85658012111,70578.82941708916,70507.90733193247,