7537 
7550 
7584 
7587 
7567 
7566 
7599 
7640 
7592 
7564 
7589 
7626 
7600 
7524 
7543 
7589 
7575 
7574 
7615 
7589 
7541 
7543 
7559 
7597 
7594 
7567 
7530 
7575 
7576 
7541 
7533 
7541 
7575 
7624 
7573 
7541 
7596 
7525 
7518 
7581 
7560 
7545 
7515 
7558 
7576 
7575 
7558 
7518 
7561 
7567 
7515 
7513 
7542 
7552 
7548 
7578 
7575 
7604 
7622 
7456 
7504 
7549 
7525 
7537 
7540 
7551 
7566 
7577 
7523 
7537 
7518 
7487 
7539 
7554 
7563 
7533 
7564 
7573 
7515 
7506 
7553 
7543 
7533 
7510 
7514 
7566 
7584 
7524 
7532 
7545 
7558 
7536 
7510 
7554 
7565 
7527 
7499 
7535 
7557 
7565 
7500 
7524 
7549 
7574 
7580 
7529 
7534 
7534 
7523 
7522 
7528 
7525 
7555 
7548 
7519 
7550 
7512 
7484 
7504 
7542 
7555 
7523 
7539 
7562 
7514 
7524 
7533 
7551 
7537 
7513 
7549 
7562 
7563 
7528 
7497 
7559 
7564 
7526 
7486 
7525 
7561 
7502 
7498 
7527 
7501 
7503 
7540 
7555 
7517 
7517 
7516 
7519 
7537 
7571 
7504 
7503 
7533 
7552 
7521 
7534 
7557 
7554 
7490 
7473 
7554 
7549 
7506 
7503 
7627 
7564 
7514 
7529 
7528 
7585 
7586 
7570 
7581 
7603 
7653 
7634 
7570 
7610 
7630 
7615 
7537 
7587 
7601 
7580 
7494 
7523 
7540 
7513 
7487 
7506 
7511 
7508 
7509 
7514 
7560 
7577 
7512 
7499 
7463 
7488 
7531 
7655 
7781 
7839 
7830 
7766 
7753 
7708 
7585 
7516 
7504 
7536 
7555 
7536 
7555 
7596 
7586 
7555 
7568 
7575 
7565 
7537 
7556 
7623 
7623 
7600 
7577 
7616 
7615 
7582 
7554 
7620 
7663 
7587 
7611 
7626 
7633 
7611 
7599 
7619 
7653 
7660 
7640 
7639 
7707 
7726 
7648 
7645 
7689 
7699 
7698 
7705 
7728 
7763 
7774 
7755 
7786 
7765 
7776 
7771 
7828 
7824 
7809 
7817 
7864 
7903 
7864 
7861 
7885 
7957 
7926 
7877 
7895 
7988 
7927 
7831 
7813 
7825 
7803 
7791 
7701 
7683 
7713 
7673 
7675 
7643 
7611 
7608 
7578 
7570 
7570 
7555 
7509 
7534 
7602 
7560 
7517 
7519 
7519 
7555 
7551 
7570 
7555 
7549 
7489 
7534 
7570 
7560 
7551 
7534 
7589 
7559 
7513 
7495 
7511 
7557 
7552 
7537 
7546 
7543 
7572 
7545 
7527 
7534 
7549 
7524 
7483 
7539 
7562 
7518 
7474 
7502 
7536 
7480 
7490 
7510 
7529 
7532 
7482 
7511 
7548 
7575 
7448 
7444 
7492 
7524 
7474 
7429 
7464 
7518 
7475 
7459 
7505 
7502 
7496 
7472 
7468 
7486 
7487 
7482 
7471 
7466 
7468 
7483 
7489 
7506 
7547 
7467 
7448 
7496 
7489 
7440 
7436 
7459 
7492 
7444 
7452 
7457 
7486 
7458 
7456 
7465 
7475 
7445 
7481 
7462 
7450 
7436 
7434 
7456 
7536 
7509 
7416 
7430 
7490 
7612 
7582 
7486 
7470 
7527 
7497 
7484 
7496 
7504 
7505 
7426 
7436 
7482 
7479 
7445 
7482 
7529 
7483 
7424 
7390 
7444 
7482 
7491 
7475 
7470 
7407 
7409 
7464 
7521 
7476 
7455 
7427 
7463 
7470 
7467 
7482 
7482 
7487 
7426 
7473 
7480 
7418 
7413 
7440 
7459 
7460 
7463 
7428 
7455 
7490 
7506 
7485 
7460 
7466 
7477 
7462 
7481 
7420 
7487 
7440 
7409 
7427 
7508 
7496 
7434 
7434 
7486 
7470 
7467 
7490 
7540 
7488 
7439 
7468 
7496 
7537 
7499 
7500 
7532 
7542 
7571 
7552 
7529 
7565 
7558 
7530 
7541 
7522 
7556 
7479 
7442 
7499 
7471 
7421 
7448 
7500 
7446 
7418 
7436 
7487 
7534 
7477 
7430 
7425 
7429 
7410 
7420 
7529 
7715 
7737 
7758 
7772 
7717 
7641 
7513 
7479 
7458 
7467 
7458 
7500 
7504 
7495 
7473 
7516 
7534 
7515 
7462 
7488 
7518 
7507 
7495 
7467 
7498 
7571 
7518 
7484 
7508 
7535 
7512 
7486 
7556 
7554 
7553 
7543 
7574 
7584 
7558 
7540 
7548 
7590 
7631 
7553 
7552 
7581 
7605 
7610 
7574 
7642 
7605 
7609 
7619 
7635 
7671 
7675 
7641 
7682 
7732 
7704 
7728 
7732 
7801 
7809 
7798 
7801 
7866 
7842 
7807 
7795 
7843 
7848 
7801 
7746 
7744 
7793 
7717 
7495 
7454 
7557 
7565 
7503 
7557 
7554 
7536 
7502 
7480 
7472 
7457 
7461 
7435 
7483 
7513 
7480 
7470 
7411 
7432 
7417 
7417 
7425 
7433 
7391 
7436 
7432 
7491 
7481 
7415 
7377 
7428 
7451 
7459 
7415 
7468 
7475 
7418 
7424 
7471 
7441 
7386 
7389 
7429 
7430 
7438 
7394 
7394 
7461 
7463 
7450 
7433 
7418 
7395 
7383 
7405 
7443 
7441 
7389 
7364 
7406 
7453 
7436 
7428 
7395 
7395 
7393 
7386 
7441 
7476 
7462 
7395 
7449 
7459 
7437 
7371 
7370 
7405 
7408 
7418 
7433 
7453 
7452 
7379 
7367 
7422 
7423 
7445 
7424 
7418 
7415 
7386 
7413 
7402 
7408 
7348 
7324 
7378 
7404 
7414 
7383 
7443 
7419 
7396 
7362 
7399 
7412 
7386 
7391 
7400 
7438 
7448 
7357 
7319 
7401 
7417 
7384 
7384 
7403 
7415 
7384 
7393 
7414 
7426 
7408 
7364 
7374 
7422 
7455 
7381 
7355 
7386 
7411 
7371 
7355 
7407 
7424 
7376 
7382 
7421 
7460 
7413 
7390 
7396 
7405 
7446 
7401 
7400 
7420 
7450 
7415 
7361 
7377 
7366 
7377 
7391 
7453 
7448 
7403 
7439 
7445 
7459 
7438 
7375 
7428 
7435 
7481 
7495 
7456 
7471 
7456 
7473 
7426 
7487 
7512 
7425 
7414 
7438 
7423 
7358 
7347 
7433 
7429 
7338 
7291 
7371 
7414 
7398 
7365 
7340 
7355 
7345 
7356 
7360 
7482 
7544 
7583 
7671 
7739 
7678 
7562 
7481 
7414 
7330 
7297 
7326 
7399 
7369 
7424 
7446 
7466 
7483 
7445 
7398 
7433 
7413 
7420 
7423 
7452 
7467 
7424 
7411 
7423 
7468 
7487 
7457 
7470 
7509 
7506 
7454 
7467 
7501 
7497 
7486 
7482 
7516 
7534 
7506 
7505 
7551 
7592 
7535 
7531 
7562 
7628 
7630 
7567 
7588 
7676 
7662 
7568 
7616 
7652 
7647 
7644 
7689 
7742 
7716 
7722 
7707 
7739 
7814 
7802 
7763 
7844 
7848 
7794 
7768 
7756 
7784 
7747 
7665 
7671 
7657 
7613 
7552 
7526 
7540 
7504 
7466 
7452 
7501 
7538 
7462 
7406 
7410 
7455 
7415 
7421 
7463 
7465 
7444 
7406 
7489 
7485 
7479 
7447 
7420 
7426 
7413 
7411 
7411 
7471 
7508 
7446 
7399 
7456 
7498 
7537 
7459 
7414 
7470 
7496 
7502 
7487 
7451 
7449 
7428 
7491 
7524 
7482 
7433 
7482 
7550 
7493 
7466 
7462 
7517 
7460 
7448 
7468 
7504 
7504 
7488 
7498 
7511 
7526 
7523 
7571 
7726 
7633 
7556 
7505 
7524 
7601 
7544 
7513 
7524 
7529 
7539 
7491 
7518 
7558 
7583 
7498 
7488 
7512 
7555 
7577 
7532 
7561 
7561 
7627 
7549 
7541 
7585 
7535 
7505 
7551 
7566 
7603 
7549 
7526 
7558 
7539 
7522 
7547 
7620 
7585 
7529 
7518 
7535 
7585 
7540 
7557 
7596 
7609 
7561 
7519 
7564 
7586 
7568 
7542 
7536 
7557 
7560 
7523 
7527 
7590 
7583 
7539 
7526 
7565 
7583 
7538 
7545 
7556 
7555 
7519 
7519 
7523 
7510 
7490 
7472 
7491 
7522 
7519 
7506 
7580 
7514 
7468 
7448 
7442 
7444 
7444 
7436 
7429 
7477 
7442 
7420 
7441 
7463 
7464 
7403 
7401 
7402 
7461 
7397 
7406 
7394 
7368 
7373 
7348 
7370 
7409 
7374 
7387 
7384 
7424 
7425 
7419 
7474 
7405 
7419 
7402 
7400 
7437 
7374 
7333 
7313 
7334 
7397 
7301 
7302 
7323 
7370 
7355 
7339 
7279 
7335 
7329 
7326 
7323 
7354 
7308 
7242 
7326 
7446 
7578 
7607 
7630 
7715 
7647 
7509 
7427 
7414 
7339 
7312 
7347 
7438 
7495 
7420 
7371 
7423 
7447 
7427 
7404 
7402 
7479 
7442 
7409 
7445 
7460 
7529 
7429 
7410 
7465 
7507 
7511 
7523 
7510 
7513 
7527 
7517 
7492 
7540 
7526 
7582 
7570 
7575 
7591 
7576 
7583 
7616 
7609 
7589 
7664 
7684 
7673 
7649 
7684 
7722 
7748 
7720 
7717 
7754 
7812 
7812 
7785 
7827 
7855 
7865 
7865 
7886 
7864 
7696 
7774 
7855 
7902 
7937 
7931 
7896 
7886 
7855 
7819 
7788 
7835 
7818 
7712 
7675 
7696 
7700 
7690 
7656 
7650 
7690 
7691 
7630 
7606 
7629 
7662 
7620 
7624 
7680 
7642 
7637 
7684 
7683 
7742 
7700 
7659 
7684 
7726 
7672 
7665 
7671 
7688 
7695 
7722 
7731 
7710 
7699 
7702 
7699 
7748 
7705 
7712 
7758 
7743 
7759 
7707 
7716 
7744 
7745 
7745 
7727 
7748 
7931 
7966 
7827 
7774 
7820 
7791 
7736 
7766 
7836 
7784 
7746 
7759 
7813 
7755 
7735 
7760 
7831 
7863 
7780 
7791 
7807 
7809 
7789 
7781 
7830 
7823 
7791 
7772 
7840 
7879 
7819 
7822 
7829 
7838 
7789 
7788 
7846 
7866 
7817 
7848 
7825 
7855 
7838 
7827 
7826 
7848 
7898 
7851 
7822 
7833 
7870 
7874 
7845 
7859 
7900 
7884 
7877 
7909 
7899 
7880 
7877 
7870 
7902 
7889 
7872 
7864 
7895 
7902 
7913 
7907 
7917 
7940 
7939 
7867 
7894 
7923 
7918 
7906 
7889 
7940 
7914 
7908 
7890 
7928 
7927 
7917 
7935 
7954 
7922 
7898 
7914 
7982 
7924 
7889 
7887 
7950 
7984 
7874 
7881 
7919 
7956 
7946 
7902 
7907 
7977 
7918 
7880 
7899 
7930 
7924 
7894 
7934 
7987 
7931 
7946 
7868 
7936 
7948 
7933 
7963 
7965 
7942 
7912 
7908 
7963 
7976 
7913 
7924 
7973 
8040 
8067 
7998 
7946 
7995 
8009 
7949 
7947 
7986 
8005 
8003 
7959 
7928 
7928 
7912 
7917 
7943 
7960 
7934 
7917 
7911 
7896 
7952 
7920 
7905 
7932 
7938 
7842 
7873 
8011 
8135 
8131 
8132 
8183 
8153 
8031 
7901 
7833 
7874 
7897 
7849 
7885 
7921 
7891 
7936 
7965 
8012 
7956 
7910 
7915 
7944 
7928 
7902 
7914 
7958 
7960 
7969 
7951 
7941 
7959 
8013 
7942 
7986 
8006 
7944 
7923 
7959 
7978 
7951 
7976 
8036 
8056 
7939 
7934 
7984 
8029 
8033 
8033 
8031 
8036 
8071 
8012 
8025 
8118 
8117 
8073 
8049 
8106 
8119 
8092 
8148 
8154 
8131 
8123 
8206 
8151 
8129 
7972 
8094 
8217 
8170 
8152 
8146 
8172 
8165 
8123 
8107 
8038 
8008 
7993 
7982 
7969 
7967 
7964 
7876 
7880 
7891 
7857 
7842 
7816 
7846 
7856 
7848 
7828 
7834 
7864 
7885 
7827 
7800 
7794 
7804 
7811 
7800 
7835 
7837 
7818 
7802 
7829 
7819 
7819 
7839 
7845 
7822 
7800 
7822 
7866 
7882 
7826 
7825 
7844 
7848 
7791 
7767 
7789 
7815 
7846 
7797 
7924 
7978 
7884 
7849 
7829 
7854 
7842 
7805 
7816 
7814 
7808 
7777 
7757 
7811 
7821 
7768 
7767 
7797 
7851 
7771 
7736 
7737 
7757 
7769 
7772 
7684 
7738 
7784 
7742 
7762 
7779 
7737 
7702 
7688 
7743 
7751 
7721 
7703 
7705 
7778 
7787 
7642 
7691 
7720 
7718 
7664 
7663 
7672 
7740 
7694 
7668 
7694 
7722 
7697 
7678 
7666 
7692 
7695 
7677 
7676 
7684 
7676 
7667 
7672 
7714 
7687 
7651 
7700 
7675 
7661 
7646 
7643 
7649 
7676 
7631 
7653 
7666 
7659 
7620 
7621 
7641 
7678 
7679 
7647 
7659 
7625 
7570 
7575 
7603 
7652 
7605 
7592 
7566 
7630 
7591 
7559 
7568 
7606 
7595 
7580 
7567 
7612 
7633 
7547 
7542 
7573 
7617 
7549 
7536 
7583 
7552 
7574 
7495 
7529 
7615 
7531 
7524 
7564 
7599 
7577 
7518 
7530 
7589 
7586 
7561 
7496 
7580 
7589 
7532 
7507 
7529 
7570 
7544 
7568 
7582 
7487 
7490 
7480 
7551 
7594 
7510 
7492 
7487 
7550 
7543 
7538 
7535 
7557 
7528 
7506 
7463 
7540 
7527 
7502 
7482 
7500 
7505 
7509 
7442 
7437 
7474 
7441 
7380 
7411 
7371 
7303 
7242 
7304 
7295 
7280 
7235 
7253 
7300 
7283 
7242 
7187 
7232 
7208 
7147 
7084 
7111 
7160 
7257 
7273 
7364 
7402 
7247 
7111 
7051 
7023 
6930 
6804 
6848 
6904 
6920 
6878 
6905 
6908 
6902 
6851 
6838 
6848 
6885 
6790 
6726 
6759 
6793 
6748 
6689 
6693 
6736 
6692 
6703 
6716 
6734 
6708 
6683 
6734 
6782 
6748 
6714 
6661 
6727 
6746 
6696 
6718 
6786 
6783 
6721 
6715 
6729 
6766 
6822 
6746 
6812 
6821 
6786 
6791 
6842 
6868 
6823 
6829 
6804 
6853 
6821 
6621 
6755 
6860 
6884 
6893 
6869 
6920 
6981 
6933 
6916 
6903 
6949 
6867 
6849 
6820 
6791 
6728 
6675 
6660 
6686 
6679 
6641 
6619 
6596 
6564 
6545 
6557 
6543 
6541 
6516 
6530 
6534 
6514 
6502 
6538 
6537 
6527 
6490 
6493 
6511 
6554 
6506 
6459 
6492 
6505 
6473 
6447 
6483 
6508 
6505 
6497 
6477 
6527 
6503 
6462 
6462 
6484 
6487 
6466 
6492 
6680 
6674 
6554 
6498 
6517 
6543 
6484 
6449 
6501 
6496 
6431 
6389 
6428 
6459 
6470 
6454 
6466 
6478 
6470 
6444 
6406 
6460 
6474 
6426 
6439 
6468 
6468 
6387 
6402 
6454 
6475 
6425 
6392 
6415 
6428 
6418 
6392 
6422 
6459 
6454 
6404 
6397 
6418 
6469 
6431 
6362 
6424 
6456 
6431 
6425 
6427 
6434 
6391 
6407 
6409 
6421 
6423 
6367 
6376 
6394 
6477 
6440 
6416 
6436 
6431 
6389 
6411 
6409 
6416 
6411 
6383 
6436 
6417 
6355 
6388 
6401 
6433 
6397 
6414 
6442 
6463 
6459 
6405 
6388 
6433 
6408 
6373 
6416 
6423 
6411 
6423 
6391 
6437 
6464 
6422 
6465 
6427 
6399 
6408 
6381 
6408 
6413 
6424 
6416 
6437 
6418 
6409 
6408 
6389 
6426 
6412 
6352 
6369 
6440 
6428 
6422 
6418 
6464 
6439 
6381 
6384 
6431 
6434 
6409 
6371 
6381 
6450 
6442 
6401 
6369 
6470 
6416 
6354 
6364 
6400 
6430 
6421 
6393 
6441 
6408 
6399 
6417 
6468 
6473 
6449 
6462 
6474 
6507 
6473 
6459 
6486 
6477 
6477 
6454 
6487 
6467 
6427 
6405 
6448 
6421 
6391 
6360 
6381 
6403 
6404 
6379 
6408 
6413 
6396 
6387 
6373 
6435 
6418 
6352 
6352 
6390 
6502 
6592 
6658 
6750 
6706 
6628 
6527 
6406 
6362 
6343 
6313 
6338 
6391 
6396 
6421 
6439 
6481 
6482 
6439 
6424 
6454 
6461 
6426 
6417 
6465 
6464 
6471 
6402 
6426 
6458 
6450 
6457 
6487 
6509 
6492 
6459 
6475 
6504 
6513 
6502 
6486 
6476 
6526 
6483 
6438 
6562 
6547 
6524 
6543 
6559 
6609 
6556 
6550 
6560 
6617 
6618 
6626 
6585 
6642 
6667 
6637 
6658 
6675 
6699 
6600 
6483 
6602 
6680 
6694 
6666 
6706 
6755 
6749 
6704 
6704 
6736 
6722 
6602 
6600 
6600 
6556 
6515 
6508 
6524 
6491 
6460 
6447 
6507 
6445 
6399 
6362 
6391 
6428 
6409 
6352 
6402 
6422 
6360 
6360 
6386 
6413 
6401 
6382 
6444 
6475 
6403 
6419 
6455 
6416 
6409 
6407 
6397 
6438 
6414 
6381 
6457 
6418 
6430 
6406 
6376 
6431 
6438 
6412 
6374 
6445 
6503 
6609 
6561 
6492 
6494 
6474 
6427 
6404 
6438 
6418 
6426 
6429 
6471 
6423 
6435 
6394 
6432 
6424 
6391 
6372 
6411 
6464 
6453 
6375 
6413 
6413 
6402 
6406 
6394 
6403 
6438 
6409 
6411 
6431 
6425 
6413 
6391 
6427 
6434 
6387 
6388 
6402 
6454 
6415 
6394 
6373 
6423 
6382 
6348 
6354 
6380 
6396 
6381 
6344 
6396 
6398 
6360 
6396 
6414 
6389 
6370 
6408 
6420 
6438 
6363 
6342 
6347 
6398 
6383 
6371 
6397 
6460 
6347 
6327 
6370 
6398 
6345 
6326 
6369 
6393 
6379 
6347 
6360 
6408 
6362 
6368 
6355 
6394 
6386 
6355 
6358 
6391 
6388 
6351 
6349 
6413 
6410 
6357 
6351 
6358 
6389 
6360 
6310 
6309 
6389 
6407 
6327 
6361 
6346 
6339 
6323 
6314 
6351 
6366 
6350 
6349 
6419 
6419 
6334 
6328 
6371 
6382 
6365 
6339 
6360 
6388 
6347 
6368 
6391 
6411 
6406 
6383 
6375 
6396 
6420 
6372 
6402 
6403 
6437 
6401 
6397 
6416 
6409 
6388 
6364 
6383 
6414 
6389 
6324 
6371 
6368 
6323 
6315 
6287 
6331 
6325 
6293 
6343 
6365 
6366 
6248 
6269 
6312 
6306 
6233 
6269 
6433 
6542 
6548 
6586 
6628 
6602 
6456 
6348 
6343 
6313 
6288 
6261 
6307 
6385 
6402 
6371 
6355 
6394 
6357 
6345 
6335 
6374 
6418 
6395 
6333 
6360 
6380 
6338 
6326 
6407 
6415 
6405 
6356 
6380 
6394 
6433 
6415 
6435 
6433 
6431 
6429 
6456 
6444 
6444 
6425 
6431 
6471 
6484 
6476 
6505 
6504 
6550 
6507 
6463 
6512 
6571 
6620 
6551 
6532 
6585 
6585 
6601 
6642 
6628 
6446 
6484 
6597 
6658 
6644 
6650 
6663 
6710 
6713 
6702 
6660 
6634 
6671 
6574 
6550 
6562 
6509 
6499 
6447 
6457 
6494 
6410 
6355 
6394 
6397 
6361 
6352 
6399 
6405 
6396 
6346 
6335 
6374 
6398 
6369 
6346 
6381 
6409 
6382 
6376 
6398 
6397 
6377 
6361 
6414 
6417 
6436 
6351 
6351 
6385 
6437 
6384 
6372 
6399 
6379 
6351 
6394 
6428 
6429 
6384 
6542 
6611 
6507 
6423 
6400 
6429 
6447 
6454 
6417 
6380 
6399 
6415 
6387 
6410 
6448 
6430 
6406 
6384 
6389 
6400 
6352 
6355 
6391 
6402 
6386 
6418 
6421 
6383 
6360 
6329 
6378 
6441 
6438 
6388 
6391 
6442 
6398 
6379 
6400 
6431 
6432 
6399 
6388 
6425 
6438 
6429 
6387 
6409 
6432 
6413 
6402 
6414 
6417 
6400 
6422 
6444 
6494 
6457 
6382 
6435 
6449 
6449 
6413 
6417 
6472 
6483 
6432 
6440 
6499 
6487 
6461 
6483 
6529 
6499 
6490 
6476 
6504 
6529 
6539 
6499 
6489 
6533 
6515 
6490 
6535 
6585 
6536 
6506 
6533 
6534 
6529 
6549 
6576 
6554 
6551 
6505 
6493 
6545 
6530 
6488 
6463 
6461 
6466 
6433 
6403 
6389 
6422 
6373 
6335 
6372 
6422 
6361 
6358 
6362 
6379 
6399 
6374 
6358 
6388 
6406 
6392 
6390 
6381 
6388 
6368 
6383 
6410 
6465 
6398 
6381 
6389 
6434 
6434 
6416 
6432 
6481 
6466 
6427 
6460 
6493 
6452 
6429 
6463 
6526 
6483 
6458 
6434 
6468 
6448 
6387 
6392 
6455 
6445 
6420 
6391 
6438 
6491 
6381 
6372 
6431 
6416 
6372 
6361 
6378 
6396 
6402 
6419 
6536 
6675 
6760 
6758 
6701 
6669 
6610 
6530 
6472 
6346 
6423 
6409 
6433 
6457 
6503 
6497 
6475 
6474 
6522 
6490 
6449 
6475 
6514 
6535 
6475 
6465 
6517 
6506 
6482 
6479 
6526 
6547 
6483 
6499 
6513 
6527 
6520 
6527 
6555 
6586 
6574 
6513 
6540 
6568 
6595 
6561 
6555 
6620 
6613 
6576 
6589 
6650 
6645 
6630 
6658 
6694 
6677 
6703 
6693 
6734 
6744 
6728 
6604 
6525 
6661 
6731 
6726 
6766 
6770 
6766 
6765 
6774 
6814 
6815 
6789 
6771 
6716 
6706 
6636 
6631 
6661 
6602 
6546 
6486 
6532 
6540 
6506 
6486 
6449 
6483 
6450 
6415 
6434 
6506 
6471 
6442 
6438 
6453 
6480 
6473 
6442 
6497 
6532 
6442 
6429 
6464 
6462 
6452 
6456 
6492 
6512 
6503 
6483 
6470 
6487 
6474 
6401 
6451 
6512 
6496 
6438 
6451 
6514 
6537 
6677 
6573 
6552 
6556 
6547 
6460 
6485 
6476 
6459 
6454 
6462 
6503 
6509 
6475 
6498 
6562 
6485 
6432 
6438 
6483 
6484 
6477 
6470 
6462 
6456 
6398 
6443 
6480 
6477 
6432 
6437 
6453 
6469 
6428 
6422 
6492 
6521 
6435 
6401 
6458 
6506 
6453 
6428 
6428 
6475 
6456 
6428 
6443 
6447 
6458 
6434 
6418 
6490 
6516 
6410 
6368 
6443 
6496 
6478 
6441 
6468 
6472 
6462 
6436 
6425 
6488 
6471 
6441 
6437 
6520 
6458 
6444 
6467 
6477 
6517 
6575 
6454 
6443 
6471 
6444 
6433 
6460 
6499 
6452 
6474 
6514 
6529 
6532 
6486 
6469 
6503 
6464 
6460 
6483 
6528 
6520 
6497 
6502 
6543 
6510 
6479 
6486 
6519 
6505 
6474 
6461 
6556 
6556 
6515 
6488 
6474 
6509 
6501 
6514 
6504 
6557 
6588 
6508 
6466 
6546 
6525 
6473 
6513 
6564 
6550 
6521 
6499 
6568 
6594 
6540 
6545 
6605 
6666 
6629 
6535 
6542 
6599 
6578 
6602 
6607 
6642 
6633 
6654 
6644 
6613 
6625 
6619 
6609 
6634 
6604 
6536 
6540 
6554 
6578 
6552 
6553 
6588 
6597 
6565 
6550 
6569 
6616 
6589 
6510 
6527 
6535 
6489 
6565 
6695 
6821 
6852 
6811 
6802 
6759 
6683 
6544 
6487 
6505 
6564 
6539 
6540 
6568 
6643 
6613 
6612 
6571 
6629 
6637 
6554 
6578 
6616 
6600 
6561 
6601 
6641 
6621 
6612 
6625 
6695 
6690 
6603 
6599 
6649 
6660 
6642 
6645 
6659 
6686 
6634 
6658 
6718 
6717 
6694 
6691 
6693 
6740 
6724 
6713 
6724 
6752 
6747 
6716 
6736 
6802 
6831 
6820 
6779 
6797 
6833 
6832 
6819 
6694 
6743 
6856 
6770 
6837 
6908 
6927 
6909 
6885 
6902 
6898 
6866 
6864 
6870 
6873 
6783 
6762 
6749 
6696 
6696 
6699 
6631 
6650 
6612 
6577 
6614 
6631 
6612 
6584 
6619 
6640 
6554 
6541 
6615 
6598 
6568 
6569 
6617 
6624 
6588 
6589 
6578 
6640 
6610 
6595 
6560 
6628 
6658 
6599 
6583 
6602 
6606 
6618 
6599 
6550 
6619 
6582 
6579 
6596 
6630 
6697 
6854 
6749 
6749 
6695 
6645 
6618 
6661 
6655 
6617 
6602 
6599 
6639 
6621 
6588 
6601 
6607 
6602 
6611 
6619 
6653 
6612 
6601 
6612 
6623 
6630 
6577 
6603 
6649 
6617 
6587 
6637 
6642 
6617 
6588 
6565 
6580 
6599 
6603 
6593 
6645 
6622 
6570 
6532 
6591 
6616 
6600 
6588 
6612 
6652 
6618 
6550 
6591 
6619 
6626 
6622 
6538 
6589 
6604 
6566 
6585 
6635 
6610 
6568 
6581 
6618 
6603 
6566 
6567 
6598 
6625 
6614 
6574 
6597 
6613 
6625 
6609 
6613 
6601 
6605 
6551 
6543 
6570 
6625 
6577 
6577 
6629 
6631 
6578 
6602 
6613 
6603 
6593 
6586 
6618 
6639 
6561 
6576 
6649 
6647 
6621 
6591 
6618 
6618 
6640 
6585 
6649 
6691 
6661 
6629 
6637 
6664 
6672 
6622 
6590 
6640 
6687 
6640 
6627 
6651 
6747 
6698 
6632 
6641 
6685 
6711 
6648 
6662 
6708 
6739 
6702 
6665 
6711 
6702 
6685 
6745 
6766 
6785 
6765 
6777 
6801 
6816 
6807 
6822 
6829 
6841 
6810 
6779 
6790 
6830 
6816 
6781 
6772 
6784 
6788 
6758 
6747 
6791 
6830 
6819 
6789 
6804 
6830 
6765 
6760 
6850 
6853 
6818 
6778 
6880 
7038 
7074 
7118 
7169 
7164 
7073 
6945 
6952 
6914 
6869 
6914 
6936 
6924 
6951 
6924 
6932 
6974 
6975 
6969 
6958 
6955 
6986 
6980 
6987 
7026 
7024 
7035 
7046 
7045 
7074 
7103 
7036 
7096 
7146 
7108 
7075 
7085 
7175 
7179 
7105 
7088 
7152 
7202 
7169 
7205 
7234 
7263 
7232 
7191 
7218 
7319 
7288 
7252 
7287 
7320 
7355 
7354 
7354 
7450 
7428 
7405 
7369 
7215 
7315 
7402 
7444 
7497 
7476 
7515 
7528 
7560 
7571 
7547 
7509 
7539 
7550 
7485 
7476 
7428 
7432 
7375 
7338 
7350 
7352 
7340 
7273 
7268 
7315 
7266 
7236 
7254 
7284 
7298 
7294 
7273 
7336 
7344 
7286 
7240 
7304 
7349 
7337 
7291 
7310 
7394 
7342 
7302 
7327 
7373 
7360 
7337 
7359 
7393 
7354 
7322 
7358 
7364 
7379 
7378 
7367 
7374 
7415 
7580 
7606 
7530 
7498 
7461 
7432 
7402 
7456 
7468 
7426 
7418 
7447 
7436 
7476 
7383 
7450 
7493 
7446 
7421 
7427 
7485 
7474 
7429 
7465 
7443 
7437 
7437 
7440 
7453 
7441 
7437 
7454 
7458 
7476 
7453 
7472 
7506 
7504 
7476 
7486 
7493 
7512 
7476 
7472 
7519 
7549 
7487 
7446 
7526 
7541 
7523 
7520 
7510 
7560 
7568 
7456 
7486 
7534 
7508 
7516 
7514 
7533 
7541 
7559 
7513 
7526 
7565 
7483 
7460 
7496 
7497 
7508 
7540 
7561 
7569 
7510 
7456 
7517 
7597 
7528 
7481 
7527 
7544 
7518 
7484 
7507 
7562 
7538 
7501 
7481 
7543 
7591 
7501 
7530 
7540 
7592 
7468 
7453 
7531 
7589 
7534 
7533 
7534 
7519 
7500 
7482 
7543 
7576 
7541 
7529 
7565 
7563 
7543 
7567 
7548 
7536 
7574 
7497 
7462 
7517 
7565 
7529 
7523 
7548 
7559 
7526 
7525 
7556 
7554 
7542 
7543 
7546 
7587 
7569 
7549 
7519 
7545 
7561 
7562 
7558 
7578 
7604 
7552 
7515 
7569 
7577 
7517 
7515 
7565 
7537 
7472 
7460 
7437 
7503 
7478 
7416 
7458 
7518 
7467 
7445 
7476 
7494 
7476 
7413 
7396 
7473 
7577 
7619 
7670 
7774 
7795 
7722 
7593 
7413 
7345 
7322 
7341 
7410 
7452 
7496 
7476 
7492 
7490 
7481 
7473 
7439 
7496 
7503 
7456 
7415 
7478 
7523 
7446 
7429 
7478 
7496 
7464 
7432 
7472 
7583 
7539 
7458 
7480 
7527 
7531 
7495 
7495 
7564 
7556 
7466 
7485 
7522 
7549 
7546 
7573 
7593 
7628 
7587 
7521 
7578 
7604 
7578 
7604 
7674 
7688 
7631 
7644 
7683 
7573 
7478 
7560 
7633 
7701 
7729 
7729 
7726 
7734 
7730 
7698 
7725 
7743 
7698 
7654 
7581 
7606 
7628 
7552 
7516 
7505 
7456 
7438 
7403 
7421 
7438 
7375 
7361 
7344 
7375 
7367 
7348 
7353 
7350 
7349 
7355 
7379 
7380 
7357 
7360 
7372 
7347 
7353 
7327 
7323 
7351 
7368 
7334 
7348 
7338 
7362 
7350 
7324 
7285 
7346 
7379 
7315 
7306 
7320 
7332 
7416 
7551 
7480 
7420 
7390 
7382 
7379 
7352 
7345 
7336 
7311 
7309 
7314 
7307 
7325 
7342 
7322 
7278 
7305 
7343 
7323 
7294 
7281 
7332 
7329 
7278 
7271 
7294 
7305 
7289 
7285 
7319 
7331 
7279 
7278 
7293 
7305 
7261 
7263 
7327 
7305 
7271 
7262 
7276 
7305 
7284 
7280 
7246 
7297 
7241 
7222 
7248 
7264 
7244 
7195 
7191 
7201 
7242 
7219 
7212 
7211 
7242 
7149 
7108 
7152 
7202 
7194 
7181 
7216 
7248 
7184 
7158 
7186 
7225 
7222 
7200 
7217 
7260 
7287 
7272 
7254 
7310 
7343 
7309 
7271 
7334 
7400 
7349 
7317 
7338 
7347 
7329 
7338 
7343 
7298 
7280 
7205 
7242 
7313 
7345 
7294 
7232 
7321 
7350 
7287 
7293 
7364 
7322 
7320 
7283 
7293 
7366 
7343 
7267 
7301 
7352 
7296 
7256 
7281 
7312 
7351 
7353 
7290 
7327 
7327 
7326 
7275 
7278 
7271 
7269 
7281 
7378 
7311 
7284 
7306 
7300 
7301 
7282 
7232 
7281 
7354 
7340 
7310 
7364 
7400 
7338 
7346 
7353 
7383 
7444 
7422 
7364 
7361 
7376 
7373 
7355 
7403 
7417 
7358 
7345 
7300 
7349 
7391 
7268 
7264 
7309 
7306 
7257 
7292 
7313 
7359 
7276 
7262 
7309 
7322 
7296 
7278 
7344 
7455 
7543 
7576 
7624 
7643 
7523 
7412 
7430 
7399 
7292 
7289 
7318 
7363 
7370 
7373 
7399 
7404 
7383 
7327 
7314 
7401 
7383 
7348 
7340 
7395 
7411 
7392 
7417 
7424 
7418 
7402 
7391 
7409 
7431 
7453 
7445 
7431 
7468 
7488 
7453 
7456 
7506 
7490 
7466 
7499 
7517 
7559 
7509 
7507 
7547 
7578 
7554 
7567 
7620 
7623 
7600 
7596 
7716 
7740 
7636 
7504 
7444 
7625 
7685 
7684 
7681 
7748 
7740 
7718 
7762 
7792 
7801 
7793 
7755 
7774 
7758 
7678 
7633 
7640 
7601 
7544 
7547 
7540 
7528 
7499 
7438 
7441 
7443 
7442 
7413 
7413 
7408 
7382 
7381 
7422 
7409 
7401 
7432 
7404 
7383 
7406 
7394 
7436 
7403 
7383 
7380 
7350 
7377 
7417 
7429 
7409 
7420 
7434 
7394 
7336 
7363 
7397 
7382 
7374 
7352 
7367 
7476 
7609 
7512 
7451 
7399 
7386 
7393 
7393 
7362 
7324 
7279 
7267 
7253 
7218 
7205 
7227 
7207 
7190 
7169 
7180 
7185 
7213 
7259 
7253 
7262 
7279 
7284 
7262 
7306 
7304 
7295 
7348 
7402 
7404 
7395 
7415 
7399 
7433 
7423 
7412 
7419 
7439 
7433 
7402 
7393 
7409 
7423 
7407 
7384 
7428 
7461 
7446 
7435 
7454 
7497 
7508 
7441 
7416 
7406 
7425 
7505 
7494 
7422 
7456 
7471 
7479 
7523 
7504 
7475 
7479 
7447 
7450 
7466 
7495 
7515 
7510 
7437 
7427 
7458 
7516 
7504 
7477 
7487 
7461 
7483 
7481 
7481 
7489 
7493 
7476 
7485 
7506 
7498 
7424 
7414 
7477 
7518 
7528 
7460 
7452 
7459 
7478 
7501 
7520 
7513 
7496 
7500 
7509 
7536 
7513 
7452 
7503 
7522 
7481 
7524 
7498 
7510 
7470 
7510 
7502 
7514 
7566 
7585 
7586 
7587 
7595 
7545 
7532 
7526 
7565 
7543 
7547 
7576 
7592 
7561 
7597 
7588 
7624 
7635 
7566 
7528 
7521 
7569 
7528 
7502 
7504 
7522 
7507 
7496 
7496 
7510 
7515 
7472 
7529 
7572 
7527 
7470 
7459 
7536 
7587 
7707 
7742 
7783 
7766 
7710 
7626 
7497 
7452 
7475 
7505 
7541 
7554 
7571 
7538 
7606 
7587 
7568 
7583 
7617 
7566 
7561 
7538 
7569 
7591 
7609 
7572 
7603 
7619 
7571 
7561 
7591 
7621 
7602 
7591 
7601 
7623 
7621 
7594 
7618 
7642 
7611 
7598 
7605 
7619 
7628 
7652 
7626 
7620 
7631 
7637 
7681 
7624 
7605 
7640 
7624 
7615 
7650 
7664 
7639 
7650 
7641 
7472 
7482 
7590 
7671 
7713 
7686 
7699 
7770 
7779 
7694 
7680 
7709 
7719 
7656 
7631 
7616 
7651 
7576 
7480 
7482 
7501 
7471 
7448 
7416 
7414 
7417 
7401 
7404 
7411 
7441 
7429 
7391 
7388 
7367 
7377 
7378 
7398 
7439 
7400 
7371 
7403 
7455 
7459 
7424 
7408 
7401 
7416 
7416 
7420 
7445 
7461 
7461 
7427 
7434 
7445 
7433 
7420 
7468 
7452 
7393 
7376 
7427 
7435 
7432 
7622 
7614 
7535 
7483 
7458 
7456 
7487 
7445 
7404 
7425 
7463 
7448 
7410 
7392 
7426 
7433 
7439 
7455 
7419 
7429 
7410 
7425 
7444 
7464 
7432 
7438 
7423 
7453 
7443 
7435 
7411 
7450 
7452 
7456 
7435 
7429 
7445 
7433 
7435 
7504 
7488 
7404 
7446 
7482 
7478 
7467 
7460 
7446 
7469 
7471 
7479 
7501 
7535 
7449 
7417 
7399 
7453 
7477 
7433 
7411 
7398 
7419 
7398 
7391 
7413 
7405 
7385 
7392 
7385 
7396 
7396 
7376 
7380 
7400 
7385 
7343 
7409 
7400 
7378 
7343 
7352 
7386 
7407 
7336 
7345 
7348 
7380 
7361 
7357 
7396 
7386 
7381 
7402 
7427 
7413 
7383 
7373 
7374 
7411 
7416 
7384 
7451 
7490 
7432 
7410 
7438 
7470 
7498 
7473 
7485 
7478 
7491 
7513 
7506 
7546 
7525 
7498 
7504 
7521 
7504 
7492 
7498 
7500 
7498 
7467 
7431 
7485 
7470 
7527 
7467 
7468 
7469 
7485 
7445 
7449 
7506 
7510 
7478 
7518 
7570 
7557 
7654 
7740 
7805 
7861 
7801 
7702 
7607 
7643 
7521 
7464 
7552 
7575 
7590 
7617 
7607 
7656 
7614 
7635 
7666 
7654 
7651 
7625 
7573 
7635 
7689 
7658 
7616 
7650 
7708 
7654 
7640 
7643 
7698 
7683 
7678 
7615 
7578 
7582 
7580 
7558 
7575 
7553 
7554 
7580 
7585 
7520 
7515 
7560 
7553 
7513 
7476 
7497 
7517 
7524 
7477 
7438 
7472 
7452 
7442 
7469 
7477 
7493 
7471 
7374 
7261 
7387 
7402 
7410 
7424 
7457 
7440 
7428 
7385 
7399 
7377 
7310 
7263 
7259 
7253 
7210 
7140 
7135 
7152 
7175 
7114 
7082 
7115 
7121 
7035 
7056 
7157 
7185 
7199 
7151 
7216 
7272 
7291 
7330 
7392 
7412 
7447 
7498 
7532 
7568 
7555 
7566 
7626 
7669 
7693 
7702 
7752 
7826 
7834 
7726 
7772 
7814 
7840 
7854 
7824 
7858 
7882 
7862 
7894 
7923 
7930 
7945 
7903 
7928 
7950 
7934 
7931 
7997 
8040 
7980 
8004 
8003 
7991 
8009 
8005 
8027 
8070 
8034 
8011 
8020 
8056 
8056 
8056 
8055 
8075 
8088 
8094 
8080 
8104 
8116 
8099 
8120 
8127 
8188 
8159 
8108 
8124 
8160 
8160 
8155 
8185 
8201 
8212 
8222 
8253 
8340 
8258 
8232 
8240 
8318 
8325 
8288 
8273 
8297 
8315 
8337 
8350 
8372 
8395 
8377 
8350 
8373 
8434 
8429 
8350 
8350 
8401 
8412 
8424 
8457 
8458 
8419 
8544 
8678 
8638 
8577 
8507 
8463 
8475 
8515 
8516 
8483 
8508 
8553 
8553 
8530 
8535 
8565 
8595 
8607 
8560 
8517 
8540 
8587 
8553 
8548 
8560 
8574 
8555 
8585 
8611 
8638 
8602 
8566 
8571 
8574 
8569 
8605 
8622 
8636 
8610 
8619 
8658 
8660 
8626 
8629 
8646 
8671 
8659 
8662 
8662 
8677 
8670 
8675 
8724 
8719 
8661 
8658 
8721 
8755 
8768 
8765 
8710 
8743 
8732 
8740 
8770 
8799 
8767 
8746 
8757 
8747 
8755 
8735 
8745 
8764 
8756 
8742 
8747 
8771 
8798 
8816 
8828 
8780 
8838 
8794 
8748 
8774 
8911 
9031 
9033 
9098 
9153 
9094 
9001 
8922 
8913 
8870 
8813 
8811 
8875 
8984 
8976 
8947 
8934 
8948 
8893 
8892 
8947 
8968 
8881 
8867 
8884 
8902 
8861 
8867 
8875 
8950 
8950 
8875 
8900 
8898 
8889 
8861 
8911 
8927 
8917 
8899 
8898 
8909 
8950 
8915 
8914 
8954 
8980 
8973 
8891 
8922 
8942 
8965 
8924 
8928 
8981 
8961 
8951 
8979 
8976 
9012 
9032 
8982 
8789 
8906 
8953 
9001 
9059 
9053 
9025 
9059 
9102 
9138 
9087 
9035 
9037 
9047 
8987 
8939 
8938 
8944 
8883 
8785 
8802 
8810 
8770 
8735 
8694 
8713 
8730 
8679 
8650 
8653 
8685 
8655 
8618 
8657 
8705 
8725 
8584 
8584 
8623 
8591 
8551 
8587 
8621 
8615 
8544 
8600 
8640 
8573 
8539 
8583 
8678 
8674 
8517 
8508 
8548 
8572 
8536 
8531 
8590 
8611 
8644 
8773 
8690 
8707 
8616 
8531 
8547 
8573 
8536 
8468 
8497 
8548 
8515 
8455 
8476 
8548 
8503 
8406 
8382 
8438 
8455 
8434 
8394 
8416 
8425 
8390 
8346 
8432 
8458 
8393 
8308 
8354 
8418 
8314 
8297 
8318 
8383 
8372 
8336 
8330 
8429 
8372 
8345 
8353 
8429 
8460 
8390 
8392 
8462 
8444 
8426 
8401 
8439 
8457 
8400 
8384 
8403 
8413 
8411 
8376 
8398 
8419 
8399 
8349 
8404 
8444 
8397 
8346 
8358 
8419 
8422 
8328 
8287 
8357 
8395 
8329 
8309 
8353 
8356 
8335 
8340 
8365 
8325 
8307 
8264 
8314 
8344 
8328 
8254 
8270 
8331 
8322 
8244 
8236 
8295 
8303 
8254 
8221 
8240 
8286 
8321 
8189 
8180 
8207 
8200 
8181 
8210 
8244 
8210 
8207 
8202 
8236 
8241 
8165 
8145 
8188 
8201 
8156 
8199 
8457 
8264 
8047 
7997 
8044 
8118 
8022 
7988 
8040 
8093 
8093 
8090 
8086 
8076 
8046 
8028 
8031 
8077 
8093 
8048 
8059 
8107 
8147 
8059 
8027 
8082 
8112 
8061 
8051 
8132 
8167 
8129 
8064 
8101 
8120 
8097 
8068 
8084 
8142 
8104 
8016 
8022 
8052 
8042 
7995 
8004 
8049 
8023 
7954 
7933 
8012 
8044 
7962 
7959 
8000 
8007 
7925 
7900 
8008 
8161 
8249 
8305 
8367 
8315 
8207 
8073 
8028 
8018 
7986 
7988 
8039 
8028 
8046 
8004 
7992 
8022 
8066 
8045 
7983 
7990 
8041 
8002 
7942 
8004 
8050 
8009 
7978 
8031 
8043 
7989 
7963 
7989 
8034 
8024 
8001 
8026 
8089 
8070 
8000 
8009 
8052 
7992 
7781 
7869 
7899 
8000 
7979 
7970 
8021 
8079 
8058 
8043 
8059 
8122 
8099 
8080 
8140 
8161 
8152 
8104 
8168 
8200 
8205 
8195 
8212 
8226 
8214 
8202 
8196 
8231 
8265 
8215 
8191 
8246 
8296 
8154 
8040 
8072 
8084 
8038 
8010 
7994 
8003 
7945 
7911 
7880 
7903 
7891 
7837 
7851 
7905 
7968 
7893 
7797 
7840 
7863 
7844 
7829 
7833 
7893 
7850 
7753 
7806 
7873 
7848 
7818 
7857 
7917 
7893 
7826 
7807 
7885 
7886 
7847 
7794 
7833 
7877 
7842 
7799 
7862 
7919 
7879 
7978 
8075 
8001 
7978 
7882 
7819 
7862 
7864 
7813 
7832 
7854 
7852 
7834 
7830 
7882 
7885 
7822 
7786 
7824 
7841 
7806 
7801 
7827 
7867 
7824 
7785 
7811 
7848 
7804 
7743 
7773 
7840 
7821 
7752 
7786 
7838 
7789 
7736 
7692 
7756 
7772 
7723 
7694 
7761 
7779 
7730 
7680 
7724 
7762 
7751 
7727 
7748 
7775 
7716 
7697 
7725 
7763 
7732 
7695 
7710 
7770 
7751 
7657 
7647 
7725 
7725 
7620 
7579 
7653 
7685 
7643 
7610 
7688 
7682 
7587 
7529 
7617 
7675 
7646 
7599 
7620 
7689 
7651 
7602 
7652 
7693 
7634 
7563 
7584 
7682 
7693 
7625 
7624 
7656 
7674 
7622 
7619 
7641 
7703 
7707 
7617 
7635 
7688 
7669 
7624 
7617 
7692 
7684 
7626 
7637 
7683 
7660 
7611 
7641 
7648 
7697 
7649 
7662 
7694 
7714 
7658 
7644 
7697 
7708 
7700 
7713 
7744 
7755 
7721 
7693 
7713 
7771 
7761 
7711 
7738 
7733 
7714 
7684 
7629 
7642 
7674 
7633 
7638 
7689 
7690 
7661 
7642 
7685 
7759 
7668 
7606 
7659 
7637 
7623 
7648 
7744 
7906 
7976 
7977 
8004 
7957 
7849 
7722 
7624 
7630 
7685 
7667 
7724 
7763 
7765 
7740 
7685 
7733 
7787 
7750 
7699 
7739 
7777 
7752 
7738 
7736 
7757 
7763 
7731 
7736 
7786 
7804 
7761 
7766 
7819 
7838 
7799 
7775 
7845 
7842 
7768 
7749 
7775 
7868 
7832 
7785 
7837 
7917 
7864 
7807 
7865 
7901 
7912 
7906 
7887 
7935 
7951 
7924 
7926 
8001 
8025 
7904 
7692 
7850 
7990 
8000 
7976 
8060 
8122 
8065 
8025 
8057 
8088 
8044 
7995 
8007 
8040 
7981 
7905 
7906 
7917 
7920 
7866 
7776 
7803 
7832 
7760 
7727 
7785 
7829 
7772 
7667 
7717 
7765 
7738 
7720 
7729 
7777 
7768 
7753 
7740 
7790 
7743 
7702 
7717 
7802 
7821 
7730 
7730 
7773 
7801 
7752 
7712 
7754 
7782 
7778 
7740 
7732 
7741 
7732 
7702 
7885 
8023 
7884 
7833 
7806 
7833 
7836 
7740 
7746 
7773 
7810 
7741 
7718 
7795 
7797 
7780 
7722 
7708 
7744 
7728 
7718 
7718 
7757 
7732 
7693 
7728 
7767 
7782 
7684 
7714 
7767 
7737 
7706 
7720 
7763 
7770 
7724 
7717 
7767 
7830 
7715 
7655 
7722 
7761 
7723 
7702 
7751 
7790 
7696 
7689 
7720 
7760 
7723 
7675 
7707 
7774 
7781 
7741 
7724 
7741 
7739 
7703 
7732 
7757 
7790 
7760 
7696 
7716 
7781 
7776 
7741 
7729 
7766 
7767 
7754 
7745 
7730 
7734 
7726 
7740 
7786 
7732 
7708 
7694 
7740 
7768 
7717 
7713 
7779 
7766 
7714 
7719 
7756 
7786 
7758 
7731 
7776 
7803 
7726 
7681 
7726 
7768 
7726 
7700 
7736 
7796 
7728 
7666 
7720 
7764 
7772 
7707 
7697 
7749 
7826 
7708 
7668 
7741 
7793 
7761 
7707 
7721 
7765 
7758 
7712 
7707 
7765 
7753 
7717 
7732 
7793 
7791 
7701 
7705 
7731 
7768 
7739 
7718 
7760 
7748 
7703 
7694 
7749 
7764 
7723 
7721 
7757 
7807 
7733 
7701 
7724 
7756 
7756 
7692 
7703 
7743 
7753 
7704 
7698 
7758 
7768 
7724 
7717 
7782 
7813 
7739 
7723 
7761 
7777 
7800 
7816 
7815 
7847 
7802 
7755 
7831 
7851 
7822 
7767 
7747 
7768 
7772 
7700 
7672 
7726 
7758 
7686 
7642 
7717 
7793 
7718 
7669 
7744 
7764 
7721 
7678 
7672 
7706 
7724 
7800 
7924 
7998 
8011 
7993 
7967 
7908 
7772 
7691 
7636 
7709 
7767 
7705 
7708 
7776 
7795 
7763 
7741 
7789 
7808 
7739 
7705 
7728 
7834 
7809 
7707 
7745 
7820 
7827 
7774 
7783 
7824 
7819 
7802 
7821 
7856 
7883 
7765 
7753 
7820 
7851 
7822 
7798 
7846 
7894 
7875 
7837 
7847 
7895 
7870 
7842 
7891 
7980 
7899 
7846 
7879 
7933 
7968 
7946 
7919 
7844 
7758 
7838 
7882 
7936 
8001 
8003 
7968 
8003 
8068 
8013 
7992 
8011 
8070 
8064 
8044 
8037 
8029 
7966 
7886 
7857 
7897 
7876 
7814 
7787 
7795 
7786 
7750 
7737 
7773 
7767 
7716 
7703 
7724 
7747 
7703 
7666 
7707 
7768 
7733 
7684 
7698 
7752 
7755 
7688 
7677 
7752 
7744 
7693 
7718 
7743 
7731 
7730 
7710 
7753 
7763 
7725 
7664 
7726 
7878 
8057 
7888 
7809 
7821 
7782 
7726 
7730 
7769 
7770 
7751 
7717 
7786 
7765 
7691 
7723 
7753 
7761 
7709 
7708 
7739 
7781 
7713 
7706 
7755 
7757 
7716 
7693 
7735 
7773 
7703 
7693 
7686 
7803 
7742 
7659 
7699 
7754 
7751 
7727 
7651 
7706 
7734 
7693 
7666 
7715 
7749 
7727 
7684 
7701 
7749 
7702 
7651 
7696 
7745 
7742 
7671 
7678 
7718 
7728 
7706 
7715 
7730 
7730 
7681 
7712 
7753 
7726 
7670 
7660 
7707 
7754 
7719 
7683 
7722 
7781 
7737 
7699 
7724 
7732 
7734 
7688 
7706 
7770 
7762 
7734 
7754 
7733 
7756 
7716 
7698 
7742 
7752 
7751 
7735 
7752 
7752 
7717 
7713 
7791 
7752 
7736 
7708 
7757 
7821 
7780 
7752 
7752 
7797 
7805 
7723 
7726 
7797 
7819 
7776 
7746 
7798 
7828 
7768 
7729 
7766 
7793 
7754 
7736 
7796 
7818 
7772 
7716 
7755 
7818 
7790 
7730 
7772 
7815 
7794 
7753 
7734 
7769 
7775 
7722 
7742 
7826 
7816 
7791 
7759 
7812 
7862 
7817 
7814 
7873 
7888 
7847 
7801 
7834 
7886 
7878 
7821 
7830 
7870 
7864 
7842 
7791 
7792 
7818 
7790 
7785 
7826 
7841 
7772 
7765 
7801 
7841 
7810 
7795 
7799 
7836 
7789 
7744 
7854 
7996 
8071 
8101 
8141 
8157 
7997 
7812 
7711 
7742 
7766 
7770 
7800 
7859 
7893 
7886 
7878 
7948 
7901 
7850 
7800 
7886 
7961 
7914 
7856 
7877 
7936 
7907 
7870 
7893 
7940 
7958 
7909 
7913 
7949 
7966 
7931 
7929 
7964 
7982 
7938 
7908 
7954 
8017 
7989 
7955 
8006 
8026 
8032 
8005 
7993 
8047 
8033 
8044 
8060 
8074 
8102 
8091 
8059 
8129 
8162 
7995 
7807 
8014 
8113 
8104 
8094 
8196 
8292 
8225 
8185 
8202 
8242 
8242 
8170 
8179 
8232 
8236 
8086 
8043 
8082 
8056 
8011 
7977 
7987 
7989 
7922 
7885 
7929 
7926 
7913 
7895 
7888 
7919 
7909 
7864 
7886 
7923 
7901 
7839 
7870 
7920 
7915 
7859 
7858 
7920 
7923 
7867 
7852 
7929 
7911 
7878 
7930 
7902 
7916 
7882 
7858 
7907 
7942 
7890 
7884 
7902 
7967 
8111 
8148 
8052 
8036 
8005 
7931 
7897 
7956 
7942 
7894 
7890 
7946 
7937 
7889 
7865 
7900 
7928 
7881 
7868 
7897 
7945 
7919 
7855 
7848 
7911 
7902 
7894 
7867 
7917 
7895 
7848 
7850 
7893 
7893 
7822 
7835 
7904 
7907 
7861 
7847 
7896 
7905 
7848 
7820 
7868 
7898 
7866 
7842 
7889 
7906 
7860 
7823 
7829 
7898 
7898 
7817 
7820 
7903 
7891 
7855 
7832 
7898 
7907 
7869 
7824 
7884 
7918 
7851 
7831 
7860 
7918 
7878 
7823 
7848 
7928 
7889 
7835 
7849 
7877 
7892 
7844 
7850 
7895 
7891 
7857 
7851 
7905 
7910 
7882 
7863 
7899 
7902 
7852 
7846 
7898 
7917 
7881 
7862 
7940 
7930 
7901 
7856 
7865 
7925 
7890 
7866 
7897 
7942 
7947 
7900 
7886 
7940 
7925 
7879 
7850 
7876 
7899 
7865 
7834 
7893 
7927 
7895 
7864 
7870 
7958 
7925 
7867 
7872 
7929 
7926 
7873 
7876 
7963 
7900 
7858 
7853 
7930 
7966 
7933 
7903 
7942 
7981 
7917 
7905 
7954 
7986 
7949 
7939 
7958 
8012 
8017 
7964 
7967 
7969 
7970 
7907 
7900 
7952 
7916 
7841 
7866 
7917 
7950 
7915 
7851 
7895 
7927 
7903 
7871 
7910 
7937 
7876 
7782 
7841 
7933 
7984 
8063 
8135 
8190 
8189 
8106 
8015 
7971 
7960 
7819 
7790 
7911 
7965 
7937 
7940 
7951 
7984 
7954 
7882 
7922 
8021 
7923 
7900 
7936 
7986 
7940 
7869 
7908 
8004 
8020 
7943 
7942 
8006 
8030 
7996 
7948 
8022 
8072 
8009 
7953 
8004 
8052 
8055 
8007 
8013 
8091 
8071 
8034 
8082 
8155 
8156 
8078 
8075 
8144 
8186 
8137 
8123 
8217 
8227 
8165 
8141 
8128 
7984 
8038 
8093 
8187 
8267 
8216 
8238 
8282 
8338 
8314 
8273 
8278 
8303 
8251 
8192 
8176 
8211 
8173 
8117 
8108 
8097 
8073 
8034 
7987 
7991 
7996 
7951 
7932 
8005 
8006 
7992 
7927 
7939 
7983 
7961 
7916 
7931 
7992 
7959 
7887 
7912 
8011 
8007 
7961 
7928 
7962 
7975 
7915 
7901 
7958 
8004 
7989 
7892 
7917 
7971 
7948 
7922 
7945 
8217 
8181 
7996 
7984 
8005 
8007 
7963 
7966 
7980 
7978 
7958 
7936 
7971 
7986 
7975 
7897 
7933 
7960 
7955 
7900 
7936 
7987 
7915 
7916 
7906 
7976 
7987 
7914 
7928 
7988 
7942 
7889 
7901 
7924 
7955 
7902 
7901 
7957 
7971 
7910 
7878 
7931 
8003 
7950 
7886 
7932 
7989 
7950 
7851 
7892 
7946 
7936 
7954 
7929 
7954 
7956 
7878 
7906 
7964 
7946 
7892 
7859 
7933 
7927 
7885 
7887 
7910 
7952 
7933 
7898 
7912 
7971 
7938 
7871 
7920 
7965 
7936 
7908 
7858 
7897 
7913 
7903 
7868 
7905 
7904 
7855 
7853 
7941 
7954 
7883 
7856 
7908 
7951 
7918 
7906 
7902 
7960 
7945 
7843 
7878 
7940 
7946 
7891 
7902 
7936 
7919 
7897 
7883 
7936 
7986 
7898 
7852 
7944 
7962 
7932 
7871 
7896 
7950 
7911 
7872 
7917 
7982 
7931 
7860 
7919 
7973 
7941 
7888 
7904 
7978 
7947 
7891 
7904 
7949 
7929 
7906 
7890 
7909 
7936 
7891 
7870 
7916 
7942 
7887 
7884 
7885 
7929 
7918 
7881 
7902 
8013 
7944 
7845 
7889 
7949 
7939 
7893 
7902 
7962 
7968 
7933 
7891 
7945 
8015 
7944 
7905 
7959 
8036 
7982 
7909 
7932 
7979 
7955 
7905 
7907 
7961 
7944 
7902 
7869 
7925 
7919 
7856 
7848 
7918 
7909 
7829 
7860 
7864 
7870 
7827 
7822 
7846 
7891 
7889 
7940 
8085 
8195 
8180 
8118 
8064 
8013 
7952 
7840 
7807 
7859 
7885 
7866 
7877 
7951 
7980 
7931 
7885 
7972 
7946 
7861 
7853 
7917 
7952 
7929 
7895 
7962 
7992 
7970 
7916 
7900 
7969 
7977 
7941 
7953 
7983 
8030 
7996 
7929 
7955 
7998 
7958 
7952 
8036 
8076 
8031 
7958 
8029 
8034 
8036 
8010 
8031 
8101 
8058 
8052 
8069 
8127 
8137 
8047 
7817 
7992 
8057 
8054 
8098 
8169 
8184 
8162 
8135 
8228 
8260 
8226 
8170 
8220 
8249 
8208 
8170 
8169 
8196 
8133 
8069 
8057 
8043 
7963 
7903 
7905 
7994 
7937 
7857 
7870 
7909 
7928 
7889 
7833 
7902 
7920 
7808 
7784 
7840 
7894 
7874 
7831 
7851 
7916 
7886 
7856 
7877 
7885 
7897 
7858 
7842 
7903 
7918 
7867 
7872 
7900 
7898 
7856 
7814 
8024 
8207 
8060 
7936 
7925 
7969 
7937 
7841 
7867 
7945 
7925 
7859 
7876 
7947 
7908 
7838 
7831 
7904 
7931 
7889 
7822 
7900 
7917 
7845 
7806 
7867 
7890 
7862 
7816 
7826 
7876 
7864 
7806 
7841 
7902 
7901 
7825 
7810 
7866 
7867 
7861 
7810 
7856 
7914 
7785 
7780 
7830 
7863 
7790 
7811 
7845 
7866 
7824 
7791 
7815 
7851 
7820 
7782 
7812 
7853 
7879 
7807 
7780 
7828 
7825 
7810 
7807 
7849 
7870 
7784 
7766 
7834 
7839 
7755 
7746 
7812 
7864 
7841 
7791 
7794 
7867 
7838 
7806 
7806 
7889 
7858 
7797 
7827 
7875 
7869 
7807 
7786 
7839 
7870 
7851 
7814 
7888 
7850 
7790 
7785 
7827 
7880 
7821 
7818 
7804 
7833 
7838 
7792 
7825 
7879 
7867 
7848 
7811 
7875 
7878 
7770 
7797 
7886 
7856 
7807 
7780 
7855 
7905 
7849 
7811 
7836 
7840 
7843 
7804 
7791 
7860 
7828 
7773 
7806 
7856 
7869 
7835 
7833 
7876 
7854 
7803 
7780 
7829 
7846 
7835 
7833 
7846 
7890 
7834 
7771 
7808 
7851 
7822 
7813 
7846 
7922 
7888 
7868 
7880 
7884 
7897 
7873 
7944 
8010 
7938 
7912 
7897 
7932 
7972 
7921 
7890 
7932 
7944 
7885 
7813 
7829 
7899 
7896 
7873 
7918 
7923 
7834 
7795 
7846 
7899 
7880 
7859 
7823 
7871 
7819 
7795 
7865 
8056 
8178 
8129 
8150 
8140 
8069 
7933 
7815 
7783 
7821 
7852 
7833 
7835 
7910 
7927 
7898 
7909 
7986 
7986 
7874 
7877 
7952 
7973 
7890 
7866 
7948 
8003 
7936 
7913 
7994 
8014 
7932 
7888 
7929 
7975 
7932 
7940 
7986 
8036 
8053 
8009 
8026 
8055 
8009 
7961 
7992 
8060 
8059 
7992 
8009 
8084 
8091 
8058 
8043 
8112 
8147 
8098 
8057 
8100 
8143 
8120 
8034 
7861 
8015 
8075 
8057 
8105 
8209 
8231 
8171 
8157 
8275 
8231 
8153 
8138 
8188 
8163 
8098 
8036 
8077 
8086 
7982 
7942 
7970 
8020 
7953 
7870 
7908 
7956 
7901 
7838 
7861 
7943 
7865 
7828 
7819 
7897 
7930 
7838 
7820 
7873 
7895 
7912 
7846 
7861 
7895 
7847 
7850 
7884 
7940 
7879 
7775 
7836 
7911 
7935 
7873 
7895 
7943 
7912 
7921 
8152 
8197 
8109 
7992 
7942 
7975 
8046 
7989 
7885 
7933 
7987 
7960 
7931 
7931 
7996 
7964 
7886 
7953 
7963 
7946 
7913 
7914 
7985 
7928 
7916 
7934 
7991 
7979 
7930 
7902 
7994 
8026 
7938 
7894 
7928 
7984 
7949 
7939 
7981 
7984 
7945 
7867 
7856 
7962 
7944 
7914 
7929 
7977 
7981 
7934 
7948 
8012 
8041 
7973 
7940 
7986 
7978 
7927 
7942 
7949 
7993 
7994 
7953 
7935 
7961 
7973 
7982 
7972 
7971 
7966 
7931 
7919 
7981 
7998 
7968 
7977 
8038 
8036 
7947 
7953 
8005 
8015 
7988 
7960 
7977 
8017 
7962 
7950 
7983 
8004 
7978 
7920 
7932 
7998 
7996 
7977 
7962 
8006 
8020 
7986 
8010 
7935 
7927 
7943 
7932 
7976 
8002 
7965 
7883 
7918 
7971 
7975 
7965 
7991 
8070 
8014 
7905 
7956 
8028 
8010 
7946 
7970 
8042 
8082 
7990 
7953 
8024 
8092 
8024 
8025 
8065 
8083 
8054 
8014 
8074 
8110 
8083 
8037 
8076 
8087 
8098 
8079 
8055 
8056 
8053 
8019 
8044 
8097 
8096 
8052 
8031 
8087 
8101 
8054 
8034 
8063 
8071 
8023 
7996 
8001 
8038 
8057 
8152 
8295 
8424 
8424 
8333 
8276 
8246 
8170 
8038 
7952 
8071 
8169 
8105 
8081 
8164 
8209 
8189 
8165 
8207 
8242 
8190 
8132 
8230 
8239 
8195 
8179 
8198 
8281 
8190 
8150 
8184 
8278 
8320 
8263 
8274 
8349 
8372 
8322 
8347 
8423 
8402 
8343 
8335 
8380 
8415 
8394 
8374 
8471 
8466 
8437 
8393 
8432 
8481 
8480 
8442 
8471 
8536 
8535 
8502 
8497 
8554 
8569 
8330 
8312 
8515 
8558 
8549 
8519 
8586 
8654 
8643 
8614 
8640 
8665 
8609 
8555 
8574 
8584 
8560 
8512 
8490 
8469 
8485 
8409 
8386 
8417 
8391 
8334 
8368 
8463 
8366 
8305 
8323 
8352 
8373 
8323 
8258 
8333 
8418 
8383 
8332 
8359 
8419 
8426 
8365 
8387 
8495 
8429 
8367 
8350 
8406 
8437 
8420 
8380 
8414 
8412 
8384 
8398 
8431 
8487 
8427 
8440 
8694 
8632 
8493 
8413 
8462 
8456 
8443 
8393 
8390 
8413 
8415 
8411 
8425 
8438 
8420 
8349 
8350 
8428 
8396 
8367 
8332 
8355 
8406 
8367 
8371 
8354 
8350 
8358 
8351 
8370 
8406 
8405 
8385 
8352 
8383 
8391 
8329 
8325 
8388 
8393 
8373 
8342 
8322 
8385 
8338 
8331 
8359 
8393 
8371 
8342 
8347 
8430 
8403 
8314 
8341 
8401 
8438 
8360 
8354 
8393 
8396 
8405 
8396 
8367 
8420 
8390 
8358 
8428 
8488 
8426 
8354 
8379 
8443 
8428 
8370 
8380 
8444 
8428 
8396 
8399 
8434 
8391 
8353 
8386 
8436 
8384 
8330 
8308 
8381 
8447 
8349 
8292 
8362 
8389 
8370 
8324 
8341 
8417 
8399 
8325 
8312 
8370 
8342 
8316 
8336 
8373 
8358 
8319 
8276 
8348 
8378 
8329 
8292 
8379 
8424 
8362 
8265 
8300 
8349 
8317 
8298 
8328 
8331 
8283 
8261 
8286 
8326 
8341 
8303 
8342 
8383 
8325 
8266 
8255 
8299 
8315 
8295 
8261 
8316 
8344 
8282 
8247 
8323 
8377 
8356 
8314 
8337 
8403 
8379 
8316 
8349 
8406 
8383 
8322 
8321 
8369 
8384 
8329 
8303 
8371 
8302 
8221 
8203 
8256 
8315 
8293 
8247 
8263 
8323 
8264 
8227 
8263 
8317 
8294 
8213 
8171 
8333 
8488 
8470 
8432 
8552 
8569 
8419 
8294 
8290 
8262 
8184 
8258 
8354 
8302 
8276 
8259 
8299 
8339 
8313 
8283 
8262 
8330 
8327 
8265 
8229 
8304 
8290 
8226 
8223 
8337 
8179 
7959 
8085 
8244 
8286 
8244 
8242 
8272 
8310 
8247 
8233 
8296 
8331 
8298 
8298 
8328 
8334 
8369 
8315 
8288 
8373 
8417 
8334 
8351 
8433 
8438 
8356 
8365 
8475 
8501 
8408 
8408 
8462 
8502 
8468 
8450 
8512 
8514 
8483 
8440 
8493 
8571 
8567 
8501 
8468 
8483 
8452 
8362 
8382 
8435 
8394 
8333 
8265 
8299 
8287 
8216 
8172 
8202 
8238 
8175 
8134 
8166 
8245 
8188 
8111 
8145 
8192 
8169 
8149 
8166 
8192 
8189 
8135 
8144 
8229 
8228 
8157 
8144 
8198 
8253 
8212 
8157 
8185 
8273 
8234 
8149 
8172 
8262 
8250 
8197 
8260 
8582 
8489 
8331 
8265 
8284 
8292 
8238 
8235 
8296 
8295 
8236 
8204 
8261 
8322 
8280 
8260 
8282 
8340 
8245 
8202 
8260 
8313 
8296 
8245 
8276 
8325 
8298 
8262 
8268 
8354 
8343 
8268 
8277 
8332 
8362 
8316 
8289 
8345 
8399 
8268 
8281 
8338 
8397 
8408 
8343 
8354 
8414 
8382 
8324 
8349 
8416 
8417 
8359 
8335 
8399 
8428 
8329 
8339 
8419 
8449 
8393 
8366 
8389 
8464 
8425 
8375 
8410 
8436 
8419 
8403 
8417 
8473 
8434 
8404 
8452 
8446 
8429 
8358 
8407 
8452 
8443 
8401 
8399 
8461 
8519 
8455 
8381 
8432 
8479 
8428 
8405 
8418 
8474 
8464 
8383 
8460 
8473 
8450 
8413 
8431 
8481 
8473 
8436 
8417 
8478 
8478 
8434 
8414 
8458 
8489 
8473 
8410 
8488 
8530 
8427 
8400 
8443 
8501 
8487 
8431 
8480 
8523 
8480 
8425 
8421 
8488 
8497 
8413 
8422 
8476 
8489 
8454 
8437 
8467 
8489 
8431 
8402 
8479 
8546 
8465 
8419 
8455 
8536 
8469 
8432 
8473 
8521 
8502 
8429 
8451 
8512 
8525 
8487 
8491 
8572 
8555 
8503 
8500 
8530 
8556 
8482 
8449 
8503 
8530 
8461 
8360 
8405 
8477 
8441 
8350 
8366 
8402 
8385 
8361 
8346 
8377 
8394 
8335 
8290 
8308 
8361 
8343 
8375 
8547 
8642 
8659 
8638 
8591 
8513 
8412 
8311 
8248 
8298 
8291 
8266 
8340 
8421 
8347 
8300 
8300 
8344 
8355 
8306 
8265 
8319 
8354 
8300 
8257 
8344 
8363 
8313 
8265 
8211 
8074 
8142 
8155 
8255 
8315 
8309 
8276 
8247 
8326 
8344 
8296 
8306 
8368 
8395 
8316 
8297 
8349 
8382 
8351 
8317 
8374 
8442 
8400 
8342 
8376 
8470 
8443 
8400 
8446 
8524 
8469 
8460 
8453 
8486 
8507 
8500 
8468 
8509 
8522 
8494 
8477 
8546 
8550 
8471 
8421 
8448 
8453 
8356 
8334 
8318 
8306 
8206 
8147 
8166 
8201 
8178 
8107 
8099 
8165 
8143 
8058 
8051 
8106 
8141 
8085 
8055 
8069 
8076 
8021 
8008 
8024 
8070 
8031 
7952 
8028 
8118 
8056 
8003 
8018 
8075 
8102 
8021 
7948 
8045 
8047 
8014 
8083 
8346 
8246 
8123 
8061 
8084 
8102 
8048 
8009 
8036 
8100 
8072 
7972 
7992 
8062 
8017 
7979 
7969 
8042 
8016 
7970 
7989 
8008 
7996 
7933 
7936 
7980 
7978 
7955 
7932 
7961 
8017 
8033 
7918 
7940 
7985 
7963 
7921 
7910 
7956 
7946 
7928 
7891 
7928 
7894 
7892 
7908 
7943 
7920 
7867 
7864 
7909 
7904 
7869 
7856 
7893 
7850 
7847 
7828 
7793 
7831 
7848 
7834 
7834 
7861 
7839 
7796 
7776 
7783 
7818 
7787 
7769 
7797 
7813 
7800 
7778 
7759 
7791 
7804 
7762 
7749 
7767 
7802 
7739 
7742 
7772 
7768 
7753 
7766 
7741 
7724 
7721 
7689 
7732 
7749 
7704 
7712 
7773 
7776 
7707 
7688 
7753 
7751 
7731 
7660 
7672 
7716 
7689 
7664 
7693 
7725 
7704 
7664 
7652 
7669 
7698 
7654 
7667 
7701 
7648 
7619 
7655 
7694 
7655 
7641 
7641 
7696 
7656 
7630 
7624 
7613 
7656 
7652 
7641 
7663 
7658 
7625 
7608 
7633 
7662 
7654 
7614 
7519 
7312 
7465 
7569 
7587 
7583 
7621 
7589 
7568 
7615 
7656 
7663 
7630 
7650 
7653 
7636 
7636 
7655 
7675 
7651 
7569 
7572 
7552 
7553 
7547 
7521 
7551 
7562 
7558 
7548 
7586 
7569 
7520 
7538 
7599 
7551 
7501 
7513 
7517 
7575 
7662 
7770 
7797 
7802 
7791 
7681 
7542 
7430 
7395 
7409 
7449 
7509 
7547 
7535 
7529 
7548 
7570 
7534 
7516 
7528 
7576 
7560 
7511 
7515 
7534 
7531 
7555 
7533 
7536 
7544 
7537 
7556 
7545 
7538 
7527 
7496 
7528 
7557 
7544 
7536 
7542 
7550 
7540 
7541 
7558 
7574 
7594 
7591 
7617 
7639 
7626 
7600 
7639 
7681 
7597 
7594 
7608 
7667 
7655 
7634 
7665 
7710 
7738 
7731 
7771 
7762 
7785 
7772 
7735 
7755 
7809 
7809 
7768 
7760 
7791 
7702 
7669 
7626 
7622 
7639 
7583 
7522 
7553 
7540 
7488 
7454 
7435 
7440 
7389 
7420 
7423 
7455 
7425 
7396 
7409 
7414 
7404 
7407 
7378 
7386 
7387 
7386 
7355 
7390 
7378 
7373 
7405 
7410 
7436 
7391 
7374 
7413 
7439 
7398 
7351 
7382 
7397 
7407 
7358 
7378 
7467 
7718 
7622 
7497 
7496 
7482 
7401 
7409 
7423 
7410 
7413 
7399 
7429 
7448 
7393 
7357 
7403 
7403 
7358 
7358 
7387 
7427 
7415 
7364 
7384 
7406 
7411 
7343 
7383 
7428 
7379 
7343 
7352 
7404 
7406 
7359 
7396 
7456 
7384 
7350 
7405 
7445 
7412 
7365 
7357 
7413 
7440 
7433 
7401 
7410 
7447 
7425 
7414 
7400 
7458 
7472 
7432 
7448 
7484 
7491 
7440 
7439 
7495 
7472 
7437 
7443 
7454 
7484 
7496 
7485 
7475 
7497 
7477 
7420 
7428 
7487 
7472 
7423 
7429 
7470 
7491 
7493 
7450 
7480 
7505 
7501 
7471 
7489 
7511 
7469 
7476 
7528 
7521 
7535 
7492 
7501 
7543 
7546 
7514 
7522 
7560 
7538 
7538 
7525 
7557 
7565 
7560 
7573 
7586 
7569 
7535 
7574 
7609 
7656 
7648 
7658 
7710 
7663 
7682 
7689 
7736 
7785 
7813 
7802 
7792 
7837 
7889 
7902 
7915 
7949 
7971 
7980 
7914 
7956 
8003 
8005 
7984 
8006 
8006 
8000 
7974 
8030 
8063 
8041 
8008 
8001 
7986 
7979 
7941 
7932 
7953 
7927 
7954 
7919 
7973 
7949 
7936 
7911 
7914 
7936 
7920 
7893 
7909 
7952 
7965 
8072 
8179 
8246 
8276 
8215 
8129 
8004 
7911 
7859 
7874 
7941 
7956 
7960 
8006 
8010 
8010 
7977 
7973 
8003 
7997 
7968 
7954 
8000 
8033 
8015 
8017 
8049 
8038 
8038 
7984 
8041 
8025 
7947 
7658 
7777 
7910 
7970 
7980 
7996 
8049 
8091 
8060 
8040 
8097 
8116 
8061 
8073 
8101 
8141 
8124 
8130 
8131 
8171 
8172 
8146 
8160 
8211 
8267 
8216 
8238 
8290 
8305 
8288 
8314 
8338 
8333 
8332 
8348 
8377 
8367 
8370 
8371 
8369 
8378 
8333 
8291 
8292 
8302 
8251 
8190 
8186 
8188 
8132 
8103 
8081 
8092 
8079 
8048 
8050 
8028 
8044 
8018 
7998 
8045 
8059 
8015 
7996 
8013 
8044 
8029 
8036 
8060 
8045 
8032 
8000 
8024 
8063 
8048 
8020 
8018 
8071 
8063 
8030 
8030 
8074 
8091 
8058 
8057 
8060 
8074 
8075 
8030 
8066 
8075 
8037 
8046 
8060 
8081 
8075 
8048 
8047 
8026 
8046 
8053 
8056 
8086 
8067 
8054 
8021 
8073 
8339 
8317 
8201 
8163 
8178 
8141 
8109 
8100 
8108 
8097 
8065 
8062 
8083 
8085 
8072 
8094 
8059 
8050 
8057 
8055 
8090 
8095 
8079 
8041 
8066 
8072 
8035 
8030 
8080 
8112 
8083 
8066 
8093 
8152 
8157 
8058 
8027 
8088 
8091 
8034 
8042 
8080 
8106 
8105 
8095 
8105 
8118 
8076 
8080 
8108 
8093 
8098 
8069 
8088 
8118 
8102 
8069 
8103 
8154 
8118 
8087 
8123 
8147 
8101 
8104 
8157 
8167 
8181 
8140 
8125 
8139 
8157 
8136 
8110 
8132 
8166 
8149 
8156 
8177 
8208 
8164 
8158 
8170 
8172 
8188 
8167 
8171 
8193 
8186 
8182 
8194 
8208 
8168 
8190 
8190 
8249 
8232 
8219 
8189 
8239 
8253 
8231 
8221 
8239 
8264 
8251 
8239 
8222 
8251 
8257 
8236 
8244 
8302 
8297 
8257 
8257 
8301 
8328 
8253 
8210 
8295 
8277 
8285 
8298 
8317 
8337 
8295 
8303 
8352 
8311 
8289 
8316 
8350 
8342 
8333 
8313 
8320 
8347 
8335 
8325 
8333 
8354 
8372 
8350 
8396 
8361 
8369 
8346 
8365 
8358 
8372 
8376 
8371 
8429 
8422 
8370 
8363 
8310 
8110 
8230 
8318 
8349 
8395 
8435 
8425 
8420 
8456 
8439 
8400 
8402 
8440 
8404 
8365 
8347 
8363 
8450 
8428 
8371 
8389 
8415 
8421 
8421 
8416 
8447 
8433 
8425 
8400 
8393 
8415 
8478 
8593 
8659 
8722 
8752 
8689 
8656 
8584 
8507 
8399 
8425 
8480 
8495 
8506 
8550 
8523 
8528 
8501 
8479 
8517 
8487 
8462 
8512 
8553 
8542 
8496 
8528 
8566 
8575 
8562 
8545 
8592 
8603 
8585 
8557 
8570 
8620 
8604 
8577 
8611 
8709 
8656 
8617 
8622 
8660 
8688 
8648 
8623 
8723 
8736 
8686 
8712 
8763 
8784 
8779 
8738 
8731 
8779 
8784 
8789 
8839 
8856 
8849 
8851 
8841 
8889 
8893 
8926 
8931 
8975 
9011 
8990 
8900 
8962 
8962 
8931 
8882 
8905 
8879 
8822 
8858 
8765 
8759 
8751 
8707 
8701 
8703 
8681 
8679 
8609 
8620 
8620 
8609 
8611 
8621 
8651 
8619 
8616 
8634 
8638 
8635 
8633 
8631 
8618 
8620 
8611 
8642 
8654 
8645 
8621 
8635 
8660 
8624 
8591 
8636 
8671 
8658 
8634 
8618 
8673 
8666 
8642 
8590 
8637 
8667 
8639 
8611 
8656 
8636 
8623 
8659 
8658 
8653 
8629 
8628 
8611 
8621 
8598 
8593 
8633 
8654 
8630 
8608 
8632 
8671 
8659 
8607 
8586 
8597 
8627 
8613 
8617 
8636 
8664 
8602 
8595 
8610 
8616 
8631 
8612 
8624 
8611 
8607 
8590 
8608 
8622 
8633 
8600 
8625 
8641 
8625 
8591 
8632 
8639 
8616 
8609 
8611 
8638 
8626 
8613 
8611 
8626 
8627 
8609 
8594 
8624 
8607 
8572 
8612 
8629 
8569 
8590 
8555 
8563 
8603 
8612 
8581 
8580 
8614 
8612 
8613 
8591 
8606 
8605 
8588 
8601 
8618 
8638 
8609 
8577 
8577 
8623 
8592 
8604 
8576 
8615 
8608 
8559 
8563 
8605 
8576 
8557 
8554 
8590 
8574 
8559 
8557 
8585 
8592 
8563 
8555 
8610 
8608 
8563 
8544 
8575 
8576 
8582 
8542 
8559 
8595 
8558 
8520 
8560 
8592 
8578 
8532 
8539 
8593 
8597 
8582 
8537 
8603 
8615 
8551 
8556 
8556 
8592 
8544 
8557 
8567 
8592 
8578 
8521 
8528 
8573 
8557 
8540 
8555 
8598 
8573 
8533 
8525 
8611 
8619 
8563 
8575 
8586 
8584 
8559 
8564 
8592 
8600 
8587 
8617 
8608 
8611 
8597 
8587 
8610 
8648 
8640 
8607 
8646 
8699 
8640 
8606 
8606 
8637 
8619 
8583 
8569 
8593 
8580 
8532 
8548 
8577 
8621 
8609 
8513 
8516 
8568 
8561 
8543 
8551 
8557 
8558 
8520 
8594 
8705 
8808 
8884 
8892 
8872 
8813 
8617 
8501 
8524 
8538 
8568 
8533 
8555 
8597 
8611 
8593 
8602 
8643 
8641 
8591 
8596 
8635 
8642 
8588 
8587 
8654 
8641 
8652 
8610 
8631 
8639 
8608 
8595 
8652 
8688 
8678 
8676 
8654 
8689 
8679 
8632 
8653 
8675 
8677 
8668 
8670 
8713 
8712 
8663 
8650 
8687 
8713 
8717 
8705 
8736 
8727 
8715 
8720 
8737 
8785 
8757 
8764 
8761 
8846 
8833 
8785 
8796 
8884 
8916 
8858 
8834 
8858 
8878 
8868 
8838 
8820 
8797 
8744 
8714 
8684 
8658 
8639 
8596 
8581 
8603 
8557 
8512 
8527 
8542 
8520 
8459 
8467 
8498 
8478 
8457 
8460 
8502 
8492 
8440 
8458 
8530 
8525 
8446 
8444 
8465 
8481 
8467 
8448 
8477 
8525 
8496 
8477 
8475 
8501 
8500 
8467 
8469 
8494 
8509 
8510 
8512 
8508 
8520 
8488 
8435 
8478 
8519 
8495 
8463 
8491 
8507 
8513 
8463 
8461 
8496 
8510 
8468 
8446 
8465 
8480 
8483 
8452 
8479 
8478 
8473 
8444 
8476 
8494 
8470 
8455 
8495 
8489 
8452 
8419 
8454 
8463 
8458 
8461 
8483 
8512 
8444 
8414 
8449 
8463 
8479 
8454 
8446 
8487 
8492 
8482 
8448 
8450 
8486 
8449 
8427 
8466 
8508 
8485 
8441 
8491 
8500 
8462 
8431 
8465 
8497 
8484 
8471 
8469 
8485 
8502 
8444 
8425 
8473 
8459 
8445 
8457 
8498 
8495 
8469 
8465 
8479 
8481 
8477 
8461 
8516 
8515 
8467 
8470 
8513 
8514 
8463 
8453 
8459 
8498 
8511 
8485 
8496 
8533 
8486 
8452 
8453 
8494 
8526 
8488 
8494 
8509 
8514 
8504 
8494 
8497 
8524 
8517 
8520 
8527 
8550 
8505 
8509 
8480 
8495 
8487 
8467 
8456 
8508 
8510 
8492 
8487 
8510 
8529 
8497 
8506 
8541 
8531 
8506 
8496 
8499 
8549 
8534 
8509 
8538 
8557 
8528 
8548 
8544 
8521 
8549 
8530 
8529 
8587 
8581 
8530 
8527 
8562 
8565 
8573 
8531 
8555 
8616 
8574 
8554 
8554 
8576 
8571 
8524 
8569 
8613 
8614 
8547 
8542 
8583 
8613 
8580 
8561 
8606 
8623 
8593 
8585 
8612 
8633 
8606 
8605 
8634 
8641 
8662 
8659 
8620 
8637 
8663 
8635 
8608 
8611 
8599 
8558 
8563 
8604 
8589 
8576 
8531 
8573 
8605 
8566 
8537 
8571 
8566 
8538 
8493 
8517 
8593 
8685 
8711 
8764 
8860 
8895 
8803 
8728 
8695 
8638 
8540 
8499 
8579 
8600 
8630 
8648 
8629 
8613 
8587 
8555 
8606 
8640 
8599 
8587 
8611 
8648 
8615 
8588 
8640 
8650 
8633 
8619 
8615 
8640 
8641 
8603 
8603 
8675 
8687 
8642 
8650 
8681 
8703 
8672 
8656 
8749 
8768 
8666 
8662 
8673 
8701 
8742 
8732 
8701 
8741 
8789 
8734 
8738 
8782 
8798 
8781 
8782 
8818 
8862 
8861 
8853 
8849 
8892 
8867 
8866 
8914 
8933 
8921 
8960 
8927 
8912 
8916 
8824 
8839 
8826 
8795 
8744 
8674 
8704 
8690 
8645 
8599 
8604 
8590 
8579 
8562 
8556 
8575 
8558 
8529 
8561 
8577 
8564 
8518 
8537 
8562 
8567 
8566 
8532 
8550 
8573 
8515 
8513 
8580 
8569 
8519 
8514 
8561 
8555 
8531 
8531 
8536 
8568 
8560 
8526 
8536 
8557 
8544 
8518 
8545 
8605 
8603 
8553 
8461 
8510 
8554 
8495 
8509 
8546 
8558 
8530 
8497 
8532 
8584 
8529 
8517 
8550 
8545 
8545 
8490 
8522 
8549 
8542 
8529 
8518 
8551 
8572 
8502 
8513 
8518 
8511 
8495 
8514 
8519 
8550 
8455 
8475 
8494 
8528 
8513 
8462 
8469 
8487 
8511 
8481 
8487 
8522 
8515 
8477 
8496 
8524 
8511 
8485 
8503 
8510 
8492 
8486 
8505 
8488 
8486 
8490 
8457 
8469 
8480 
8476 
8471 
8486 
8489 
8475 
8469 
8478 
8494 
8470 
8454 
8460 
8524 
8572 
8467 
8460 
8507 
8485 
8460 
8450 
8479 
8516 
8472 
8495 
8464 
8470 
8482 
8476 
8474 
8504 
8469 
8423 
8444 
8464 
8460 
8471 
8443 
8496 
8502 
8431 
8441 
8497 
8530 
8492 
8484 
8507 
8499 
8484 
8476 
8494 
8519 
8474 
8451 
8475 
8493 
8499 
8447 
8451 
8509 
8507 
8460 
8443 
8502 
8479 
8461 
8456 
8463 
8489 
8469 
8458 
8505 
8505 
8473 
8457 
8493 
8472 
8483 
8461 
8469 
8491 
8462 
8486 
8451 
8445 
8445 
8446 
8431 
8441 
8465 
8437 
8445 
8475 
8460 
8426 
8415 
8458 
8481 
8462 
8403 
8449 
8474 
8458 
8443 
8428 
8455 
8447 
8457 
8464 
8482 
8473 
8481 
8457 
8500 
8455 
8406 
8452 
8461 
8426 
8388 
8351 
8359 
8357 
8345 
8326 
8368 
8357 
8346 
8341 
8346 
8334 
8338 
8318 
8266 
8292 
8258 
8241 
8288 
8406 
8507 
8533 
8600 
8619 
8532 
8416 
8313 
8295 
8283 
8211 
8228 
8286 
8311 
8289 
8284 
8278 
8298 
8269 
8260 
8221 
8270 
8273 
8241 
8251 
8281 
8296 
8250 
8238 
8301 
8289 
8242 
8222 
8297 
8304 
8280 
8275 
8266 
8282 
8308 
8253 
8273 
8326 
8338 
8339 
8273 
8329 
8318 
8291 
8332 
8402 
8374 
8345 
8339 
8381 
8399 
8391 
8364 
8423 
8448 
8438 
8429 
8501 
8496 
8481 
8472 
8513 
8542 
8518 
8504 
8513 
8558 
8568 
8502 
8472 
8491 
8492 
8446 
8420 
8383 
8327 
8300 
8249 
8232 
8241 
8219 
8170 
8145 
8154 
8151 
8096 
8114 
8122 
8044 
7954 
7948 
7983 
7977 
7973 
7945 
7945 
7949 
7920 
7911 
7937 
7932 
7906 
7908 
7946 
7984 
7913 
7868 
7897 
7975 
7936 
7887 
7916 
7924 
7918 
7872 
7876 
7903 
7898 
7869 
7845 
7873 
7901 
7861 
7836 
7886 
7895 
7861 
7841 
7856 
7878 
7871 
7840 
7866 
7863 
7837 
7829 
7862 
7898 
7849 
7816 
7831 
7848 
7828 
7793 
7809 
7849 
7840 
7819 
7827 
7855 
7850 
7799 
7805 
7809 
7829 
7814 
7786 
7790 
7779 
7754 
7757 
7781 
7791 
7770 
7769 
7775 
7775 
7789 
7718 
7740 
7773 
7778 
7756 
7729 
7746 
7783 
7750 
7707 
7751 
7773 
7690 
7715 
7727 
7736 
7724 
7689 
7663 
7696 
7728 
7683 
7673 
7725 
7716 
7701 
7663 
7680 
7691 
7687 
7664 
7648 
7647 
7634 
7641 
7657 
7673 
7649 
7655 
7683 
7662 
7637 
7631 
7616 
7627 
7622 
7596 
7596 
7668 
7651 
7594 
7553 
7608 
7626 
7570 
7549 
7595 
7617 
7611 
7574 
7595 
7610 
7574 
7556 
7589 
7604 
7549 
7553 
7547 
7565 
7585 
7546 
7505 
7559 
7568 
7511 
7492 
7530 
7574 
7510 
7481 
7501 
7490 
7475 
7458 
7479 
7463 
7416 
7398 
7385 
7417 
7424 
7308 
7313 
7344 
7335 
7292 
7280 
7318 
7316 
7279 
7306 
7320 
7292 
7305 
7270 
7256 
7280 
7275 
7253 
7269 
7247 
7239 
7242 
7283 
7337 
7300 
7243 
7265 
7297 
7317 
7297 
7251 
7317 
7326 
7266 
7284 
7310 
7285 
7267 
7253 
7306 
7259 
7235 
7201 
7221 
7231 
7205 
7192 
7164 
7169 
7203 
7161 
7155 
7186 
7181 
7160 
7164 
7203 
7199 
7123 
7089 
7164 
7260 
7346 
7412 
7475 
7460 
7356 
7261 
7191 
7172 
7100 
7091 
7144 
7181 
7180 
7169 
7164 
7188 
7185 
7155 
7151 
7186 
7198 
7150 
7112 
7161 
7182 
7164 
7157 
7177 
7210 
7171 
7114 
7152 
7196 
7180 
7157 
7178 
7196 
7188 
7152 
7155 
7199 
7206 
7173 
7155 
7210 
7228 
7236 
7161 
7214 
7239 
7207 
7208 
7225 
7305 
7250 
7227 
7255 
7275 
7282 
7276 
7269 
7328 
7401 
7329 
7329 
7370 
7372 
7369 
7348 
7428 
7436 
7367 
7341 
7386 
7408 
7357 
7297 
7262 
7269 
7218 
7158 
7130 
7173 
7143 
7068 
7054 
7088 
7094 
7056 
6981 
7030 
7039 
6992 
6971 
6997 
7016 
6935 
6934 
7000 
7013 
6946 
6944 
6964 
7007 
7030 
6947 
6908 
6988 
6980 
6936 
6938 
6968 
6974 
6969 
6960 
6990 
7011 
6972 
6950 
6985 
6992 
6975 
6935 
6937 
6943 
6941 
6921 
6911 
6941 
6929 
6875 
6898 
6946 
6941 
6895 
6912 
6926 
6895 
6893 
6885 
6919 
6933 
6913 
6910 
6920 
6928 
6917 
6882 
6918 
6893 
6911 
6889 
6869 
6911 
6924 
6855 
6855 
6885 
6890 
6891 
6858 
6895 
6893 
6881 
6875 
6896 
6900 
6882 
6897 
6901 
6869 
6861 
6862 
6871 
6899 
6881 
6824 
6844 
6865 
6913 
6868 
6865 
6950 
6896 
6828 
6830 
6880 
6899 
6883 
6864 
6868 
6888 
6857 
6833 
6870 
6923 
6882 
6830 
6839 
6867 
6888 
6874 
6852 
6830 
6826 
6814 
6826 
6885 
6907 
6818 
6801 
6850 
6869 
6834 
6836 
6840 
6852 
6810 
6816 
6871 
6845 
6815 
6783 
6809 
6861 
6856 
6851 
6813 
6826 
6843 
6820 
6820 
6885 
6852 
6809 
6783 
6864 
6851 
6732 
6737 
6788 
6831 
6821 
6779 
6800 
6819 
6774 
6747 
6785 
6835 
6828 
6748 
6770 
6784 
6789 
6756 
6766 
6821 
6834 
6781 
6752 
6788 
6784 
6746 
6746 
6780 
6804 
6768 
6772 
6770 
6758 
6759 
6751 
6730 
6766 
6775 
6765 
6781 
6782 
6766 
6746 
6735 
6771 
6773 
6736 
6716 
6772 
6814 
6755 
6700 
6726 
6757 
6734 
6719 
6752 
6793 
6791 
6758 
6785 
6825 
6821 
6818 
6818 
6811 
6788 
6762 
6752 
6776 
6763 
6731 
6723 
6708 
6691 
6665 
6675 
6723 
6719 
6666 
6666 
6685 
6698 
6684 
6635 
6638 
6686 
6619 
6610 
6672 
6824 
6898 
6911 
6952 
6960 
6869 
6752 
6717 
6684 
6674 
6655 
6647 
6665 
6712 
6681 
6692 
6691 
6692 
6696 
6673 
6667 
6692 
6716 
6726 
6644 
6685 
6707 
6738 
6702 
6671 
6653 
6684 
6674 
6708 
6738 
6699 
6683 
6710 
6750 
6727 
6699 
6733 
6764 
6742 
6741 
6740 
6779 
6768 
6761 
6766 
6744 
6770 
6777 
6781 
6815 
6835 
6824 
6819 
6823 
6850 
6837 
6846 
6887 
6906 
6913 
6898 
6908 
6976 
6945 
6950 
6971 
7012 
6976 
6929 
6917 
6944 
6936 
6862 
6838 
6798 
6774 
6756 
6660 
6663 
6696 
6654 
6613 
6583 
6599 
6599 
6568 
6574 
6560 
6555 
6530 
6543 
6572 
6570 
6584 
6522 
6538 
6570 
6542 
6514 
6564 
6611 
6559 
6490 
6510 
6540 
6506 
6498 
6513 
6553 
6536 
6510 
6527 
6539 
6485 
6479 
6495 
6548 
6496 
6487 
6496 
6514 
6491 
6497 
6474 
6501 
6538 
6511 
6528 
6499 
6502 
6481 
6462 
6509 
6555 
6479 
6431 
6435 
6499 
6495 
6484 
6463 
6498 
6508 
6422 
6403 
6432 
6438 
6424 
6436 
6484 
6494 
6475 
6451 
6466 
6491 
6510 
6442 
6430 
6450 
6439 
6440 
6435 
6444 
6422 
6418 
6435 
6431 
6450 
6404 
6381 
6428 
6451 
6417 
6393 
6420 
6470 
6436 
6429 
6410 
6408 
6420 
6431 
6424 
6449 
6459 
6379 
6357 
6423 
6440 
6371 
6364 
6428 
6438 
6383 
6366 
6408 
6438 
6419 
6375 
6403 
6420 
6379 
6353 
6404 
6413 
6395 
6360 
6377 
6433 
6452 
6363 
6352 
6405 
6405 
6360 
6356 
6400 
6408 
6406 
6388 
6381 
6401 
6342 
6354 
6374 
6380 
6383 
6356 
6385 
6414 
6409 
6390 
6399 
6431 
6440 
6397 
6400 
6428 
6434 
6382 
6357 
6410 
6415 
6391 
6388 
6437 
6416 
6399 
6373 
6391 
6405 
6380 
6372 
6413 
6476 
6469 
6366 
6341 
6397 
6398 
6391 
6380 
6408 
6417 
6387 
6372 
6384 
6377 
6363 
6353 
6400 
6403 
6410 
6367 
6364 
6412 
6400 
6384 
6399 
6416 
6389 
6392 
6393 
6437 
6427 
6398 
6417 
6424 
6424 
6415 
6409 
6424 
6465 
6454 
6440 
6469 
6484 
6455 
6432 
6441 
6476 
6431 
6393 
6393 
6478 
6400 
6321 
6338 
6332 
6342 
6321 
6370 
6390 
6346 
6350 
6360 
6354 
6336 
6289 
6293 
6428 
6579 
6610 
6647 
6685 
6686 
6587 
6431 
6370 
6323 
6299 
6282 
6313 
6393 
6384 
6372 
6380 
6419 
6407 
6333 
6326 
6402 
6396 
6380 
6355 
6345 
6369 
6344 
6330 
6377 
6450 
6408 
6343 
6368 
6420 
6420 
6399 
6453 
6428 
6405 
6384 
6385 
6467 
6461 
6426 
6419 
6408 
6444 
6454 
6437 
6443 
6485 
6483 
6452 
6493 
6545 
6538 
6520 
6532 
6559 
6560 
6552 
6563 
6649 
6680 
6612 
6570 
6627 
6627 
6618 
6644 
6692 
6698 
6630 
6627 
6644 
6661 
6613 
6560 
6536 
6527 
6504 
6436 
6409 
6404 
6389 
6339 
6344 
6392 
6377 
6318 
6302 
6311 
6325 
6328 
6329 
6286 
6293 
6290 
6283 
6308 
6340 
6266 
6259 
6275 
6305 
6304 
6276 
6258 
6305 
6300 
6283 
6279 
6307 
6306 
6264 
6241 
6289 
6299 
6276 
6264 
6282 
6291 
6262 
6238 
6269 
6293 
6238 
6211 
6233 
6274 
6239 
6196 
6207 
6251 
6256 
6217 
6205 
6243 
6274 
6238 
6216 
6285 
6286 
6189 
6145 
6205 
6223 
6200 
6184 
6200 
6241 
6211 
6158 
6181 
6213 
6225 
6202 
6162 
6207 
6204 
6159 
6168 
6209 
6228 
6131 
6121 
6182 
6186 
6157 
6151 
6175 
6223 
6194 
6140 
6165 
6202 
6191 
6150 
6129 
6179 
6174 
6163 
6163 
6156 
6159 
6142 
6149 
6195 
6167 
6137 
6115 
6135 
6168 
6149 
6107 
6132 
6167 
6142 
6123 
6134 
6149 
6154 
6148 
6166 
6157 
6126 
6100 
6117 
6154 
6137 
6115 
6092 
6173 
6120 
6082 
6097 
6148 
6176 
6103 
6058 
6113 
6169 
6149 
6099 
6078 
6108 
6096 
6103 
6125 
6152 
6122 
6082 
6074 
6112 
6104 
6097 
6079 
6141 
6173 
6095 
6078 
6094 
6132 
6105 
6053 
6071 
6133 
6099 
6060 
6061 
6095 
6091 
6083 
6106 
6090 
6089 
6049 
6049 
6122 
6119 
6076 
6064 
6080 
6107 
6121 
6107 
6067 
6054 
6067 
6071 
6086 
6136 
6113 
6084 
6092 
6127 
6116 
6114 
6113 
6152 
6136 
6155 
6143 
6202 
6151 
6098 
6085 
6109 
6097 
6067 
6038 
6085 
6079 
6052 
6036 
6072 
6107 
6044 
6013 
6023 
6053 
6032 
6011 
6003 
6027 
6045 
6024 
6049 
6204 
6299 
6289 
6316 
6268 
6212 
6070 
5939 
5919 
6016 
6033 
6012 
6017 
6057 
6061 
6041 
6036 
6062 
6062 
6023 
6032 
6102 
6085 
6027 
6023 
6075 
6100 
6067 
6036 
6060 
6102 
6080 
6025 
6078 
6107 
6086 
6056 
6078 
6122 
6158 
6059 
6079 
6127 
6148 
6107 
6090 
6139 
6127 
6116 
6113 
6157 
6189 
6143 
6161 
6219 
6212 
6225 
6170 
6197 
6265 
6253 
6227 
6231 
6298 
6308 
6285 
6314 
6338 
6349 
6325 
6321 
6363 
6363 
6338 
6319 
6305 
6305 
6255 
6225 
6210 
6187 
6141 
6077 
6096 
6119 
6050 
6013 
6019 
6042 
6004 
5984 
6016 
6011 
6003 
5983 
5936 
6002 
5993 
5979 
5967 
5971 
6017 
5956 
5958 
5965 
5990 
5973 
5951 
5999 
6044 
5985 
5962 
5978 
6026 
6017 
5998 
6017 
6041 
6039 
6014 
6007 
6044 
6019 
5984 
6010 
6087 
6081 
5960 
5935 
5959 
6009 
5994 
5954 
5992 
6008 
5992 
5964 
6057 
6063 
5969 
5945 
5923 
5984 
6031 
6012 
5992 
6012 
6034 
6006 
5989 
6048 
6070 
5986 
5966 
5992 
6019 
6022 
5990 
5986 
6011 
5995 
5990 
5985 
6035 
6017 
5954 
5982 
6016 
6018 
5983 
5992 
6021 
6020 
5979 
5929 
5975 
6015 
6011 
5953 
5981 
6039 
5965 
5944 
5974 
6012 
5966 
5941 
5954 
6005 
5995 
5968 
5975 
6026 
5999 
5959 
5939 
5982 
6004 
5970 
5954 
5986 
5986 
5954 
5903 
5946 
5998 
5987 
5920 
5916 
5936 
5948 
5936 
5909 
5967 
5982 
5942 
5928 
5990 
5984 
5919 
5900 
5936 
5957 
5955 
5913 
5910 
5938 
5935 
5901 
5945 
5957 
5899 
5895 
5926 
5975 
5942 
5900 
5922 
5942 
5914 
5891 
5902 
5953 
5970 
5939 
5885 
5894 
5938 
5906 
5860 
5886 
5957 
5920 
5862 
5901 
5947 
5923 
5877 
5894 
5927 
5906 
5855 
5852 
5861 
5857 
5812 
5799 
5884 
5888 
5780 
5768 
5804 
5814 
5780 
5750 
5795 
5836 
5808 
5803 
5824 
5845 
5810 
5788 
5803 
5853 
5867 
5819 
5826 
5879 
5871 
5861 
5870 
5899 
5917 
5864 
5816 
5863 
5865 
5786 
5729 
5755 
5788 
5776 
5758 
5749 
5771 
5780 
5758 
5748 
5773 
5769 
5760 
5750 
5707 
5749 
5760 
5807 
5923 
6018 
6035 
6035 
5999 
5953 
5860 
5727 
5682 
5744 
5779 
5735 
5754 
5796 
5793 
5780 
5787 
5829 
5783 
5763 
5760 
5819 
5801 
5795 
5777 
5771 
5783 
5775 
5753 
5780 
5839 
5794 
5756 
5790 
5811 
5854 
5783 
5788 
5825 
5805 
5791 
5816 
5876 
5929 
5831 
5827 
5875 
5867 
5828 
5835 
5891 
5932 
5907 
5850 
5944 
5993 
5951 
5919 
5949 
6005 
6014 
6021 
6029 
6035 
6025 
6021 
6028 
6086 
6155 
6071 
6045 
6102 
6121 
6071 
6044 
6081 
6083 
6013 
5954 
5906 
5925 
5906 
5848 
5851 
5842 
5794 
5768 
5745 
5815 
5793 
5722 
5742 
5780 
5767 
5713 
5699 
5736 
5779 
5734 
5696 
5709 
5751 
5738 
5698 
5732 
5767 
5738 
5706 
5706 
5764 
5711 
5697 
5701 
5770 
5767 
5712 
5699 
5736 
5718 
5691 
5706 
5763 
5801 
5717 
5677 
5703 
5753 
5750 
5699 
5702 
5719 
5724 
5685 
5704 
5757 
5751 
5721 
5705 
5727 
5711 
5738 
5742 
5691 
5704 
5699 
5665 
5712 
5733 
5693 
5673 
5727 
5768 
5725 
5657 
5659 
5704 
5704 
5678 
5690 
5745 
5725 
5715 
5690 
5690 
5692 
5695 
5677 
5694 
5712 
5683 
5682 
5695 
5682 
5679 
5668 
5686 
5716 
5716 
5715 
5710 
5707 
5700 
5669 
5690 
5708 
5676 
5646 
5662 
5748 
5703 
5640 
5626 
5691 
5681 
5664 
5658 
5684 
5732 
5660 
5642 
5671 
5687 
5652 
5625 
5640 
5696 
5694 
5649 
5650 
5670 
5628 
5596 
5624 
5685 
5640 
5645 
5608 
5652 
5632 
5606 
5604 
5644 
5648 
5607 
5588 
5605 
5659 
5678 
5616 
5643 
5664 
5623 
5595 
5605 
5688 
5681 
5615 
5591 
5638 
5661 
5625 
5603 
5654 
5672 
5623 
5603 
5635 
5677 
5629 
5653 
5645 
5644 
5650 
5644 
5625 
5674 
5674 
5637 
5638 
5707 
5681 
5614 
5620 
5654 
5682 
5653 
5594 
5633 
5664 
5646 
5664 
5670 
5685 
5668 
5643 
5687 
5749 
5685 
5649 
5672 
5720 
5696 
5669 
5655 
5706 
5746 
5655 
5655 
5695 
5704 
5665 
5687 
5721 
5742 
5735 
5668 
5703 
5752 
5743 
5725 
5767 
5789 
5749 
5722 
5706 
5738 
5754 
5695 
5668 
5692 
5703 
5642 
5623 
5635 
5653 
5635 
5570 
5629 
5677 
5672 
5619 
5629 
5629 
5594 
5572 
5601 
5661 
5732 
5812 
5854 
5941 
5959 
5858 
5746 
5741 
5682 
5555 
5552 
5640 
5696 
5641 
5618 
5670 
5706 
5703 
5677 
5667 
5693 
5659 
5620 
5642 
5693 
5713 
5634 
5639 
5704 
5711 
5674 
5660 
5720 
5721 
5684 
5678 
5714 
5754 
5778 
5698 
5677 
5693 
5714 
5718 
5764 
5791 
5759 
5711 
5730 
5808 
5789 
5758 
5774 
5814 
5844 
5819 
5795 
5825 
5853 
5849 
5877 
5909 
5919 
5894 
5904 
5964 
6015 
5979 
5943 
5941 
5989 
5982 
5950 
5963 
5986 
5978 
5922 
5875 
5892 
5878 
5783 
5753 
5775 
5765 
5668 
5620 
5661 
5697 
5628 
5559 
5575 
5578 
5563 
5538 
5567 
5586 
5555 
5519 
5552 
5586 
5562 
5518 
5550 
5605 
5589 
5548 
5548 
5642 
5599 
5515 
5545 
5569 
5565 
5562 
5540 
5565 
5601 
5577 
5519 
5543 
5595 
5575 
5531 
5541 
5588 
5577 
5559 
5593 
5593 
5547 
5521 
5508 
5595 
5550 
5541 
5497 
5503 
5520 
5538 
5525 
5544 
5544 
5556 
5517 
5483 
5543 
5554 
5508 
5511 
5556 
5528 
5465 
5461 
5519 
5545 
5486 
5473 
5517 
5519 
5483 
5451 
5476 
5513 
5493 
5465 
5472 
5517 
5471 
5451 
5520 
5542 
5503 
5442 
5447 
5486 
5490 
5465 
5474 
5495 
5474 
5502 
5471 
5460 
5504 
5452 
5446 
5474 
5480 
5492 
5432 
5427 
5463 
5484 
5446 
5415 
5472 
5522 
5431 
5409 
5461 
5475 
5438 
5422 
5476 
5497 
5454 
5426 
5471 
5492 
5451 
5442 
5517 
5477 
5425 
5418 
5442 
5429 
5444 
5405 
5412 
5457 
5451 
5443 
5472 
5500 
5482 
5468 
5408 
5436 
5460 
5436 
5427 
5461 
5500 
5476 
5420 
5440 
5495 
5484 
5431 
5430 
5524 
5487 
5386 
5410 
5484 
5488 
5430 
5412 
5451 
5473 
5444 
5435 
5448 
5488 
5480 
5400 
5415 
5449 
5428 
5425 
5458 
5492 
5434 
5409 
5431 
5484 
5520 
5459 
5422 
5477 
5442 
5419 
5432 
5471 
5481 
5440 
5455 
5469 
5481 
5447 
5413 
5478 
5504 
5466 
5448 
5492 
5488 
5478 
5482 
5485 
5492 
5492 
5470 
5477 
5539 
5561 
5538 
5522 
5559 
5542 
5497 
5480 
5490 
5494 
5438 
5414 
5460 
5481 
5467 
5404 
5409 
5439 
5444 
5422 
5417 
5466 
5465 
5408 
5380 
5420 
5431 
5464 
5584 
5742 
5759 
5737 
5667 
5625 
5527 
5389 
5321 
5363 
5430 
5440 
5424 
5442 
5495 
5474 
5445 
5435 
5470 
5471 
5457 
5465 
5527 
5509 
5438 
5454 
5531 
5524 
5459 
5469 
5524 
5527 
5473 
5486 
5561 
5553 
5516 
5483 
5517 
5555 
5521 
5486 
5497 
5555 
5579 
5580 
5550 
5590 
5588 
5549 
5540 
5589 
5598 
5579 
5613 
5678 
5677 
5676 
5631 
5601 
5662 
5675 
5668 
5718 
5766 
5714 
5727 
5738 
5763 
5784 
5762 
5765 
5803 
5799 
5752 
5704 
5727 
5754 
5666 
5591 
5606 
5614 
5555 
5487 
5484 
5516 
5528 
5449 
5393 
5471 
5407 
5372 
5386 
5436 
5428 
5356 
5337 
5420 
5458 
5396 
5373 
5397 
5417 
5392 
5388 
5427 
5439 
5401 
5395 
5392 
5448 
5428 
5361 
5368 
5423 
5432 
5420 
5398 
5430 
5434 
5425 
5380 
5403 
5414 
5409 
5387 
5424 
5410 
5400 
5413 
5453 
5442 
5388 
5354 
5404 
5445 
5346 
5332 
5364 
5418 
5422 
5376 
5362 
5443 
5435 
5357 
5335 
5369 
5396 
5369 
5355 
5394 
5438 
5396 
5368 
5385 
5380 
5359 
5336 
5423 
5444 
5363 
5334 
5339 
5385 
5381 
5353 
5356 
5408 
5396 
5359 
5352 
5385 
5413 
5388 
5365 
5414 
5428 
5337 
5340 
5388 
5427 
5375 
5344 
5357 
5383 
5360 
5351 
5364 
5384 
5400 
5354 
5320 
5354 
5370 
5333 
5350 
5408 
5428 
5369 
5322 
5341 
5365 
5361 
5338 
5368 
5387 
5339 
5303 
5313 
5349 
5357 
5299 
5329 
5375 
5334 
5298 
5297 
5350 
5383 
5335 
5256 
5307 
5334 
5289 
5289 
5340 
5366 
5314 
5294 
5307 
5333 
5271 
5240 
5273 
5311 
5298 
5267 
5271 
5315 
5295 
5278 
5281 
5349 
5346 
5287 
5279 
5316 
5332 
5306 
5313 
5294 
5317 
5292 
5240 
5274 
5347 
5319 
5301 
5269 
5327 
5301 
5273 
5315 
5328 
5336 
5319 
5308 
5354 
5356 
5346 
5316 
5311 
5346 
5345 
5324 
5362 
5404 
5343 
5330 
5355 
5367 
5366 
5294 
5251 
5265 
5277 
5246 
5259 
5312 
5296 
5233 
5221 
5277 
5287 
5261 
5226 
5272 
5298 
5244 
5256 
5278 
5371 
5469 
5508 
5578 
5591 
5491 
5333 
5250 
5250 
5214 
5239 
5211 
5251 
5276 
5265 
5266 
5307 
5313 
5279 
5263 
5313 
5331 
5323 
5264 
5298 
5331 
5313 
5278 
5287 
5327 
5341 
5323 
5283 
5363 
5368 
5268 
5262 
5319 
5356 
5330 
5334 
5350 
5348 
5310 
5338 
5360 
5396 
5346 
5315 
5356 
5401 
5396 
5379 
5432 
5415 
5412 
5394 
5433 
5478 
5460 
5446 
5455 
5502 
5513 
5499 
5463 
5534 
5567 
5544 
5545 
5604 
5618 
5607 
5550 
5553 
5567 
5534 
5479 
5483 
5503 
5432 
5340 
5325 
5392 
5351 
5274 
5267 
5303 
5284 
5241 
5223 
5251 
5270 
5261 
5214 
5208 
5245 
5200 
5180 
5218 
5216 
5224 
5215 
5197 
5224 
5209 
5185 
5180 
5230 
5253 
5209 
5199 
5231 
5239 
5220 
5207 
5239 
5265 
5222 
5181 
5216 
5262 
5221 
5194 
5230 
5274 
5227 
5176 
5182 
5229 
5195 
5161 
5154 
5223 
5214 
5172 
5175 
5216 
5235 
5212 
5195 
5205 
5199 
5183 
5160 
5187 
5220 
5188 
5181 
5196 
5217 
5213 
5170 
5161 
5199 
5180 
5187 
5126 
5208 
5213 
5169 
5150 
5195 
5227 
5228 
5172 
5163 
5206 
5164 
5156 
5213 
5222 
5201 
5173 
5197 
5247 
5228 
5174 
5181 
5233 
5204 
5173 
5198 
5192 
5171 
5163 
5153 
5204 
5217 
5198 
5165 
5169 
5190 
5181 
5165 
5196 
5237 
5229 
5188 
5172 
5243 
5236 
5196 
5160 
5212 
5240 
5217 
5214 
5231 
5199 
5153 
5158 
5198 
5240 
5208 
5167 
5196 
5221 
5211 
5204 
5180 
5193 
5193 
5166 
5191 
5236 
5217 
5219 
5229 
5246 
5240 
5219 
5225 
5260 
5223 
5203 
5183 
5262 
5273 
5191 
5173 
5200 
5217 
5221 
5205 
5212 
5249 
5230 
5196 
5208 
5252 
5255 
5237 
5235 
5247 
5253 
5226 
5217 
5257 
5268 
5233 
5226 
5266 
5258 
5212 
5190 
5206 
5259 
5244 
5193 
5221 
5253 
5247 
5180 
5207 
5273 
5266 
5237 
5234 
5283 
5299 
5298 
5230 
5236 
5274 
5288 
5253 
5317 
5289 
5269 
5267 
5265 
5302 
5290 
5252 
5235 
5259 
5277 
5204 
5151 
5191 
5186 
5166 
5181 
5227 
5228 
5213 
5185 
5198 
5211 
5177 
5156 
5189 
5186 
5174 
5218 
5381 
5526 
5495 
5475 
5517 
5476 
5322 
5250 
5141 
5159 
5202 
5211 
5223 
5297 
5329 
5303 
5263 
5271 
5317 
5279 
5227 
5286 
5311 
5277 
5240 
5289 
5308 
5299 
5281 
5300 
5321 
5309 
5293 
5312 
5354 
5354 
5325 
5310 
5391 
5451 
5319 
5308 
5331 
5366 
5363 
5339 
5364 
5404 
5392 
5370 
5413 
5471 
5457 
5393 
5429 
5487 
5486 
5462 
5460 
5524 
5557 
5511 
5523 
5581 
5641 
5577 
5558 
5622 
5646 
5620 
5600 
5653 
5695 
5632 
5552 
5583 
5601 
5559 
5521 
5516 
5502 
5471 
5414 
5346 
5351 
5353 
5309 
5285 
5303 
5310 
5300 
5281 
5323 
5349 
5277 
5242 
5278 
5331 
5333 
5341 
5315 
5335 
5325 
5317 
5379 
5389 
5386 
5329 
5353 
5456 
5460 
5426 
5410 
5461 
5464 
5423 
5400 
5466 
5475 
5447 
5394 
5412 
5473 
5454 
5391 
5410 
5462 
5506 
5448 
5385 
5408 
5432 
5397 
5396 
5468 
5484 
5408 
5416 
5429 
5444 
5421 
5406 
5449 
5474 
5469 
5415 
5407 
5440 
5455 
5444 
5449 
5485 
5452 
5429 
5448 
5486 
5499 
5417 
5433 
5488 
5478 
5464 
5443 
5453 
5468 
5419 
5365 
5429 
5488 
5476 
5422 
5434 
5498 
5465 
5401 
5424 
5459 
5467 
5423 
5426 
5494 
5462 
5418 
5413 
5464 
5484 
5437 
5435 
5502 
5501 
5447 
5404 
5432 
5487 
5492 
5463 
5502 
5507 
5484 
5476 
5454 
5506 
5515 
5473 
5477 
5512 
5524 
5494 
5480 
5526 
5570 
5526 
5539 
5597 
5609 
5579 
5560 
5610 
5672 
5615 
5606 
5643 
5687 
5681 
5639 
5662 
5675 
5673 
5633 
5656 
5703 
5729 
5694 
5702 
5751 
5792 
5781 
5755 
5789 
5839 
5829 
5811 
5843 
5869 
5862 
5846 
5846 
5860 
5850 
5818 
5853 
5871 
5883 
5826 
5794 
5849 
5858 
5815 
5818 
5905 
5891 
5825 
5796 
5846 
5874 
5860 
5841 
5861 
5902 
5894 
5866 
5883 
5953 
5975 
5900 
5897 
5939 
5939 
5894 
5871 
5912 
5930 
5904 
5874 
5878 
5854 
5783 
5759 
5804 
5851 
5801 
5785 
5800 
5818 
5806 
5787 
5784 
5818 
5794 
5785 
5753 
5770 
5821 
5878 
5988 
6091 
6151 
6092 
5992 
5957 
5858 
5730 
5657 
5698 
5791 
5783 
5728 
5761 
5820 
5806 
5785 
5806 
5811 
5808 
5763 
5769 
5833 
5813 
5775 
5754 
5824 
5823 
5760 
5775 
5824 
5841 
5821 
5781 
5789 
5868 
5820 
5778 
5853 
5888 
5836 
5823 
5878 
5854 
5827 
5817 
5820 
5890 
5902 
5878 
5865 
5914 
5924 
5890 
5893 
5980 
5971 
5940 
5931 
5956 
6008 
6004 
5983 
6015 
6071 
6090 
6048 
5995 
6067 
6062 
6037 
6038 
6062 
6067 
6017 
6022 
6003 
5949 
5898 
5865 
5842 
5847 
5781 
5709 
5734 
5760 
5721 
5667 
5667 
5697 
5669 
5647 
5661 
5703 
5677 
5619 
5606 
5640 
5662 
5669 
5664 
5687 
5677 
5598 
5575 
5646 
5662 
5597 
5573 
5616 
5687 
5678 
5620 
5631 
5683 
5658 
5611 
5617 
5682 
5668 
5624 
5635 
5682 
5677 
5630 
5609 
5690 
5692 
5611 
5575 
5631 
5681 
5646 
5604 
5654 
5686 
5662 
5631 
5618 
5679 
5677 
5629 
5620 
5651 
5704 
5660 
5626 
5703 
5715 
5640 
5610 
5683 
5712 
5662 
5660 
5695 
5708 
5691 
5664 
5672 
5698 
5686 
5681 
5692 
5719 
5712 
5674 
5674 
5743 
5746 
5704 
5702 
5759 
5742 
5716 
5709 
5761 
5754 
5745 
5728 
5736 
5772 
5753 
5744 
5767 
5835 
5796 
5765 
5784 
5820 
5825 
5823 
5851 
5855 
5878 
5818 
5790 
5851 
5876 
5852 
5839 
5885 
5901 
5878 
5861 
5899 
5935 
5911 
5860 
5897 
5942 
5921 
5899 
5899 
5947 
5918 
5918 
5915 
5943 
5959 
5926 
5908 
5967 
6000 
5945 
5929 
5964 
6009 
5988 
5974 
5990 
6008 
5972 
5943 
5982 
6063 
6044 
5963 
5977 
6039 
6022 
6010 
5989 
6042 
6031 
5998 
5984 
6029 
6072 
6041 
5975 
6040 
6078 
6026 
5995 
6079 
6162 
6080 
6091 
6107 
6093 
6096 
6080 
6097 
6157 
6167 
6138 
6143 
6227 
6211 
6130 
6118 
6160 
6173 
6131 
6089 
6117 
6162 
6134 
6088 
6110 
6192 
6166 
6107 
6106 
6167 
6170 
6139 
6117 
6175 
6215 
6093 
6089 
6184 
6265 
6346 
6429 
6506 
6540 
6452 
6331 
6272 
6254 
6206 
6191 
6258 
6310 
6282 
6285 
6302 
6330 
6316 
6295 
6315 
6366 
6366 
6291 
6296 
6423 
6459 
6385 
6381 
6410 
6452 
6425 
6401 
6465 
6518 
6488 
6470 
6509 
6555 
6546 
6527 
6573 
6616 
6607 
6583 
6611 
6685 
6660 
6619 
6628 
6676 
6693 
6682 
6662 
6743 
6801 
6809 
6715 
6748 
6818 
6817 
6785 
6806 
6873 
6855 
6846 
6883 
6966 
6948 
6912 
6932 
6988 
6999 
6982 
6972 
7025 
6986 
6957 
6891 
6903 
6893 
6842 
6769 
6779 
6800 
6751 
6731 
6737 
6708 
6707 
6698 
6679 
6689 
6672 
6641 
6645 
6701 
6674 
6659 
6673 
6699 
6689 
6660 
6659 
6722 
6734 
6697 
6684 
6730 
6761 
6717 
6670 
6701 
6750 
6742 
6734 
6720 
6815 
6790 
6710 
6714 
6745 
6754 
6744 
6724 
6772 
6794 
6770 
6736 
6769 
6792 
6756 
6728 
6762 
6809 
6800 
6753 
6739 
6798 
6792 
6754 
6744 
6802 
6789 
6736 
6740 
6826 
7206 
7246 
7034 
6999 
6981 
6890 
6859 
6898 
6922 
6853 
6819 
6824 
6842 
6836 
6799 
6822 
6850 
6875 
6828 
6806 
6844 
6835 
6825 
6809 
6848 
6856 
6834 
6805 
6838 
6862 
6850 
6839 
6867 
6858 
6815 
6792 
6826 
6885 
6835 
6813 
6836 
6909 
6844 
6819 
6830 
6859 
6874 
6834 
6837 
6890 
6896 
6865 
6857 
6843 
6873 
6847 
6819 
6890 
6942 
6864 
6822 
6856 
6890 
6879 
6847 
6891 
6928 
6880 
6848 
6857 
6920 
6911 
6903 
6863 
6927 
6945 
6897 
6860 
6907 
6935 
6901 
6859 
6903 
6943 
6925 
6875 
6905 
6924 
6921 
6894 
6919 
6973 
6938 
6868 
6899 
6992 
6962 
6918 
6912 
6935 
6946 
6906 
6901 
6942 
7004 
6925 
6890 
6909 
6938 
6906 
6863 
6885 
6942 
6942 
6890 
6889 
6936 
6932 
6890 
6898 
6952 
6952 
6913 
6877 
6914 
6932 
6891 
6883 
6929 
7004 
6928 
6886 
6937 
6980 
6964 
6935 
6979 
7038 
7004 
6995 
7020 
7085 
7119 
7057 
7048 
7107 
7139 
7123 
7068 
7080 
7097 
7052 
7050 
7074 
7059 
7031 
7012 
7051 
7056 
7013 
6999 
7036 
7105 
7077 
6989 
7016 
7078 
7069 
7030 
6995 
7058 
7177 
7248 
7286 
7354 
7365 
7305 
7192 
7147 
7119 
7022 
6967 
7032 
7053 
7041 
7039 
7046 
7089 
7051 
7017 
7001 
7054 
7076 
7030 
7016 
7061 
7046 
7023 
6984 
7032 
7066 
7010 
6953 
7008 
7015 
6970 
6946 
6960 
6999 
6972 
6930 
6920 
6911 
6887 
6832 
6813 
6845 
6827 
6788 
6782 
6750 
6736 
6650 
6588 
6609 
6582 
6548 
6538 
6554 
6539 
6471 
6421 
6427 
6459 
6392 
6316 
6321 
6324 
6272 
6187 
6177 
6213 
6191 
6064 
5688 
5426 
5626 
5669 
5661 
5681 
5687 
5640 
5559 
5529 
5503 
5456 
5365 
5373 
5421 
5372 
5300 
5289 
5326 
5310 
5251 
5231 
5284 
5281 
5243 
5196 
5249 
5263 
5235 
5190 
5226 
5238 
5187 
5136 
5160 
5218 
5201 
5149 
5153 
5161 
5135 
5147 
5143 
5166 
5151 
5093 
5112 
5166 
5136 
5095 
5087 
5170 
5170 
5040 
5023 
5071 
5121 
5084 
5030 
5050 
5147 
5547 
5536 
5340 
5294 
5213 
5173 
5176 
5179 
5152 
5103 
5084 
5120 
5069 
5011 
5034 
5092 
5077 
5033 
5001 
5077 
5079 
5018 
4987 
5037 
5081 
5032 
4995 
5016 
5076 
5025 
4981 
4974 
5018 
4992 
4957 
4958 
4986 
5008 
4972 
4942 
5003 
5010 
4949 
4911 
4957 
5000 
4973 
4923 
4940 
5003 
4948 
4906 
4926 
4987 
4998 
4962 
4939 
4987 
4966 
4923 
4926 
4962 
4955 
4917 
4891 
4972 
4990 
4933 
4921 
4979 
5019 
4949 
4906 
4940 
5004 
4938 
4880 
4906 
4968 
4942 
4887 
4909 
4981 
4929 
4891 
4868 
4908 
4924 
4876 
4882 
4966 
4960 
4883 
4859 
4909 
4937 
4945 
4930 
4979 
4931 
4872 
4846 
4881 
4949 
4920 
4867 
4881 
4957 
4958 
4878 
4878 
4948 
4949 
4888 
4845 
4897 
4918 
4894 
4869 
4906 
4941 
4926 
4884 
4906 
4910 
4896 
4871 
4854 
4892 
4910 
4893 
4881 
4955 
4963 
4871 
4858 
4914 
4881 
4903 
4889 
4910 
4963 
4933 
4868 
4928 
4948 
4915 
4882 
4875 
4936 
4906 
4837 
4834 
4877 
4864 
4881 
4861 
4859 
4839 
4766 
4773 
4845 
4837 
4820 
4798 
4848 
4849 
4800 
4766 
4850 
4982 
5025 
5039 
5112 
5178 
5092 
4929 
4837 
4814 
4765 
4752 
4798 
4856 
4845 
4826 
4841 
4907 
4919 
4825 
4787 
4877 
4913 
4875 
4847 
4881 
4915 
4874 
4853 
4911 
4938 
4894 
4868 
4881 
4958 
4954 
4932 
4865 
4921 
4942 
4945 
4895 
4950 
4954 
4939 
4926 
4987 
4981 
4970 
4958 
5001 
5027 
5009 
4978 
5028 
5101 
5077 
5019 
5032 
5114 
5095 
5064 
5118 
5199 
5155 
5117 
5116 
5191 
5178 
5169 
5142 
5200 
5238 
5184 
4888 
4604 
4833 
4900 
4878 
4931 
4999 
4933 
4856 
4874 
4920 
4882 
4810 
4821 
4843 
4828 
4781 
4781 
4808 
4801 
4749 
4758 
4794 
4818 
4802 
4760 
4771 
4808 
4803 
4763 
4791 
4817 
4789 
4765 
4773 
4835 
4828 
4787 
4772 
4828 
4827 
4782 
4780 
4829 
4872 
4847 
4806 
4852 
4892 
4827 
4780 
4861 
4875 
4816 
4791 
4823 
4891 
4849 
4775 
4777 
5135 
5497 
5153 
5024 
5030 
4988 
4937 
4888 
4899 
4911 
4899 
4878 
4897 
4934 
4864 
4815 
4884 
4893 
4850 
4836 
4844 
4901 
4854 
4804 
4816 
4869 
4848 
4831 
4804 
4839 
4852 
4819 
4792 
4853 
4908 
4816 
4776 
4821 
4841 
4829 
4810 
4853 
4894 
4837 
4788 
4805 
4867 
4846 
4811 
4809 
4879 
4860 
4777 
4769 
4832 
4859 
4820 
4789 
4812 
4849 
4823 
4784 
4822 
4860 
4839 
4807 
4861 
4902 
4814 
4775 
4817 
4872 
4865 
4802 
4835 
4873 
4845 
4799 
4772 
4854 
4867 
4816 
4801 
4849 
4873 
4826 
4780 
4836 
4879 
4849 
4813 
4813 
4862 
4866 
4837 
4806 
4827 
4816 
4819 
4823 
4846 
4849 
4816 
4791 
4856 
4862 
4835 
4794 
4831 
4865 
4834 
4798 
4838 
4891 
4839 
4783 
4851 
4904 
4833 
4822 
4821 
4885 
4872 
4801 
4797 
4844 
4858 
4848 
4835 
4838 
4854 
4813 
4776 
4861 
4881 
4837 
4810 
4853 
4889 
4850 
4805 
4815 
4868 
4849 
4825 
4833 
4900 
4886 
4790 
4790 
4836 
4855 
4845 
4788 
4834 
4866 
4829 
4779 
4856 
4912 
4850 
4840 
4881 
4907 
4886 
4865 
4896 
4930 
4919 
4917 
4891 
4930 
4912 
4895 
4887 
4945 
4951 
4855 
4799 
4846 
4885 
4827 
4805 
4840 
4883 
4866 
4822 
4865 
4863 
4839 
4817 
4816 
4861 
4828 
4760 
4825 
4960 
5019 
5052 
5091 
5188 
5190 
5028 
4916 
4935 
4872 
4808 
4791 
4863 
4926 
4898 
4853 
4888 
4932 
4898 
4842 
4865 
4927 
4893 
4861 
4890 
4946 
4964 
4901 
4867 
4922 
4951 
4898 
4871 
4937 
4961 
4946 
4937 
4979 
5030 
4960 
4912 
4937 
4997 
4989 
4944 
4987 
5031 
4996 
4965 
5006 
5081 
5066 
5022 
5023 
5101 
5096 
5073 
5048 
5087 
5146 
5121 
5105 
5174 
5233 
5175 
5150 
5230 
5252 
5255 
5197 
4835 
4695 
4907 
4991 
5054 
5121 
5126 
5066 
5032 
5076 
5103 
5003 
4938 
4961 
4979 
4952 
4906 
4921 
4949 
4914 
4834 
4860 
4917 
4884 
4829 
4843 
4914 
4922 
4850 
4865 
4927 
4891 
4875 
4857 
4889 
4959 
4896 
4845 
4909 
4919 
4898 
4909 
4910 
4936 
4916 
4889 
4901 
4954 
4908 
4868 
4898 
4955 
4929 
4902 
4912 
4958 
4962 
4912 
5072 
5616 
5422 
5199 
5107 
5105 
5080 
5022 
4995 
5016 
5041 
5012 
4986 
4975 
5016 
4976 
4934 
4979 
5029 
4989 
4948 
4942 
5034 
5060 
4971 
4928 
4991 
5004 
4976 
4930 
4944 
4990 
4977 
4975 
4996 
4996 
4987 
4951 
4932 
5006 
4976 
4932 
4953 
5006 
4983 
4934 
4950 
5007 
4992 
4975 
4931 
4990 
4981 
4953 
4952 
4991 
5037 
5014 
4938 
4954 
5008 
4970 
4915 
4962 
5004 
4983 
4954 
4926 
5003 
5025 
4966 
4947 
5015 
5041 
4987 
4953 
4994 
4986 
4947 
4952 
5004 
5027 
4963 
4938 
4983 
5024 
4996 
4968 
4970 
5040 
5007 
4966 
4968 
5028 
5005 
4960 
4962 
5024 
5039 
4994 
4966 
5034 
5046 
4971 
4954 
5027 
5047 
5009 
4976 
4989 
5034 
5020 
4980 
4990 
5040 
5035 
4987 
4972 
5029 
5010 
4964 
4982 
5047 
5058 
5007 
5012 
5024 
5014 
4965 
4982 
5032 
5061 
5006 
4966 
5012 
5064 
5020 
4989 
5013 
5069 
5040 
5005 
5000 
5080 
5050 
4974 
4994 
5064 
5062 
4996 
5012 
5060 
5077 
5045 
5028 
5054 
5086 
5072 
5044 
5099 
5126 
5123 
5056 
5082 
5155 
5136 
5104 
5110 
5147 
5123 
5055 
5049 
5112 
5113 
5000 
4992 
5087 
5083 
5027 
4988 
5080 
5123 
5031 
4979 
5012 
5060 
5035 
5004 
4982 
5024 
5079 
5116 
5228 
5322 
5394 
5354 
5299 
5267 
5141 
5018 
4976 
5045 
5059 
5046 
5038 
5106 
5150 
5110 
5093 
5086 
5133 
5099 
5065 
5099 
5129 
5112 
5075 
5093 
5154 
5137 
5107 
5115 
5172 
5187 
5104 
5124 
5202 
5186 
5160 
5141 
5168 
5208 
5171 
5154 
5194 
5222 
5202 
5174 
5211 
5270 
5233 
5206 
5228 
5292 
5286 
5283 
5267 
5306 
5346 
5304 
5290 
5364 
5390 
5360 
5371 
5442 
5448 
5419 
5393 
5432 
5493 
5028 
4834 
5103 
5273 
5312 
5260 
5294 
5332 
5291 
5223 
5220 
5252 
5217 
5171 
5111 
5143 
5206 
5141 
5013 
5067 
5104 
5045 
5039 
5087 
5115 
5084 
5036 
5065 
5115 
5099 
5061 
5103 
5146 
5119 
5071 
5091 
5160 
5116 
5079 
5059 
5133 
5192 
5165 
5083 
5107 
5158 
5121 
5089 
5146 
5172 
5133 
5088 
5101 
5166 
5174 
5121 
5142 
5196 
5480 
5753 
5493 
5447 
5347 
5258 
5226 
5263 
5261 
5201 
5162 
5194 
5260 
5225 
5149 
5178 
5258 
5181 
5133 
5162 
5234 
5227 
5148 
5152 
5225 
5198 
5140 
5126 
5194 
5202 
5168 
5167 
5193 
5210 
5183 
5113 
5168 
5221 
5170 
5124 
5152 
5231 
5171 
5116 
5152 
5192 
5176 
5144 
5163 
5222 
5194 
5138 
5159 
5187 
5226 
5168 
5129 
5185 
5228 
5208 
5122 
5146 
5202 
5156 
5125 
5176 
5221 
5185 
5160 
5181 
5226 
5231 
5196 
5166 
5190 
5182 
5142 
5147 
5212 
5217 
5182 
5156 
5174 
5206 
5182 
5154 
5147 
5197 
5179 
5154 
5166 
5228 
5183 
5140 
5191 
5225 
5230 
5123 
5114 
5201 
5193 
5123 
5115 
5185 
5215 
5204 
5124 
5149 
5186 
5155 
5111 
5156 
5221 
5171 
5145 
5174 
5233 
5202 
5148 
5147 
5207 
5204 
5154 
5206 
5208 
5182 
5169 
5159 
5215 
5222 
5148 
5127 
5187 
5221 
5181 
5140 
5184 
5237 
5171 
5170 
5203 
5232 
5195 
5165 
5208 
5249 
5236 
5204 
5207 
5271 
5301 
5216 
5195 
5263 
5278 
5245 
5190 
5264 
5330 
5272 
5140 
5154 
5205 
5167 
5131 
5169 
5258 
5218 
5141 
5153 
5202 
5197 
5180 
5172 
5193 
5180 
5151 
5137 
5213 
5342 
5405 
5402 
5474 
5493 
5364 
5209 
5190 
5189 
5146 
5121 
5190 
5268 
5260 
5236 
5249 
5249 
5250 
5189 
5174 
5245 
5264 
5203 
5185 
5243 
5262 
5225 
5175 
5261 
5303 
5262 
5209 
5250 
5302 
5282 
5245 
5265 
5328 
5311 
5277 
5321 
5331 
5325 
5286 
5272 
5332 
5344 
5312 
5309 
5338 
5357 
5331 
5317 
5366 
5404 
5378 
5352 
5419 
5480 
5438 
5423 
5463 
5515 
5503 
5468 
5371 
4930 
5072 
5221 
5324 
5456 
5491 
5411 
5416 
5494 
5487 
5443 
5379 
5421 
5378 
5279 
5223 
5240 
5274 
5246 
5177 
5180 
5248 
5227 
5153 
5148 
5209 
5191 
5147 
5123 
5189 
5228 
5185 
5165 
5259 
5228 
5150 
5145 
5206 
5209 
5205 
5164 
5170 
5209 
5199 
5174 
5191 
5241 
5236 
5190 
5199 
5268 
5251 
5173 
5216 
5257 
5252 
5208 
5196 
5269 
5636 
5876 
5580 
5481 
5448 
5372 
5312 
5355 
5416 
5345 
5281 
5280 
5335 
5318 
5268 
5274 
5329 
5329 
5269 
5245 
5306 
5309 
5253 
5253 
5324 
5340 
5261 
5257 
5275 
5315 
5270 
5234 
5299 
5326 
5265 
5224 
5268 
5332 
5281 
5222 
5252 
5305 
5282 
5261 
5268 
5300 
5346 
5265 
5215 
5273 
5312 
5283 
5282 
5293 
5313 
5291 
5250 
5261 
5318 
5312 
5230 
5247 
5319 
5312 
5286 
5267 
5321 
5324 
5286 
5245 
5276 
5306 
5266 
5246 
5315 
5338 
5275 
5259 
5283 
5324 
5300 
5268 
5304 
5328 
5279 
5248 
5265 
5345 
5333 
5231 
5260 
5369 
5377 
5233 
5230 
5318 
5330 
5288 
5243 
5296 
5354 
5320 
5257 
5306 
5376 
5330 
5263 
5278 
5332 
5323 
5287 
5323 
5392 
5343 
5251 
5284 
5348 
5356 
5302 
5277 
5338 
5348 
5326 
5286 
5327 
5359 
5308 
5268 
5346 
5368 
5324 
5319 
5345 
5338 
5330 
5272 
5272 
5374 
5377 
5304 
5311 
5371 
5344 
5304 
5294 
5355 
5377 
5357 
5330 
5383 
5427 
5382 
5363 
5383 
5443 
5416 
5361 
5363 
5408 
5398 
5369 
5417 
5424 
5384 
5335 
5357 
5401 
5393 
5288 
5288 
5357 
5378 
5344 
5317 
5364 
5376 
5324 
5299 
5369 
5403 
5313 
5260 
5274 
5406 
5493 
5527 
5587 
5713 
5719 
5581 
5522 
5488 
5392 
5294 
5319 
5399 
5453 
5390 
5353 
5424 
5449 
5423 
5360 
5364 
5414 
5395 
5341 
5352 
5401 
5386 
5323 
5332 
5387 
5373 
5346 
5369 
5394 
5415 
5345 
5348 
5409 
5459 
5402 
5358 
5397 
5446 
5429 
5418 
5425 
5471 
5444 
5451 
5523 
5550 
5481 
5467 
5483 
5540 
5559 
5541 
5579 
5583 
5610 
5587 
5580 
5658 
5702 
5656 
5674 
5736 
5589 
5099 
5261 
5491 
5614 
5607 
5592 
5634 
5705 
5702 
5617 
5545 
5580 
5537 
5431 
5370 
5401 
5357 
5225 
5177 
5150 
5127 
5073 
5014 
5028 
5030 
5000 
4958 
4941 
4937 
4864 
4834 
4855 
4913 
4860 
4812 
4797 
4829 
4810 
4772 
4745 
4774 
4772 
4714 
4670 
4717 
4720 
4670 
4657 
4687 
4649 
4589 
4507 
4517 
4553 
4511 
4452 
4447 
4468 
4832 
4984 
4727 
4652 
4565 
4459 
4414 
4411 
4430 
4394 
4319 
4334 
4343 
4283 
4214 
4249 
4282 
4243 
4174 
4175 
4195 
4144 
4098 
4070 
4084 
4112 
4029 
3973 
3989 
3957 
3862 
3786 
3788 
3717 
3580 
3486 
3460 
3471 
3403 
3379 
3403 
3398 
3379 
3330 
3356 
3349 
3302 
3244 
3243 
3293 
3293 
3234 
3197 
3257 
3252 
3174 
3150 
3192 
3169 
3109 
3115 
3169 
3122 
3058 
2992 
3014 
3068 
3023 
2942 
2983 
3025 
2969 
2923 
2898 
2955 
2886 
2809 
2811 
2855 
2831 
2806 
2766 
2795 
2787 
2720 
2637 
2689 
2681 
2627 
2571 
2589 
2629 
2545 
2473 
2487 
2547 
2507 
2473 
2487 
2519 
2508 
2449 
2437 
2493 
2493 
2445 
2413 
2452 
2478 
2436 
2421 
2457 
2486 
2441 
2391 
2436 
2475 
2420 
2391 
2414 
2430 
2435 
2391 
2419 
2421 
2385 
2364 
2369 
2423 
2418 
2391 
2385 
2408 
2402 
2359 
2335 
2364 
2388 
2362 
2340 
2343 
2372 
2331 
2324 
2345 
2387 
2366 
2292 
2289 
2370 
2381 
2335 
2326 
2354 
2355 
2317 
2292 
2377 
2428 
2345 
2320 
2394 
2415 
2356 
2286 
2333 
2364 
2317 
2245 
2237 
2314 
2298 
2248 
2256 
2314 
2277 
2209 
2255 
2290 
2257 
2214 
2193 
2230 
2214 
2190 
2222 
2365 
2504 
2535 
2526 
2502 
2472 
2359 
2205 
2159 
2198 
2210 
2176 
2180 
2259 
2268 
2227 
2207 
2256 
2248 
2249 
2240 
2229 
2276 
2231 
2196 
2270 
2284 
2259 
2245 
2253 
2281 
2276 
2236 
2259 
2299 
2285 
2242 
2241 
2308 
2316 
2262 
2240 
2320 
2334 
2299 
2301 
2379 
2377 
2313 
2286 
2365 
2385 
2372 
2375 
2386 
2414 
2396 
2392 
2417 
2450 
2442 
2316 
1796 
1931 
2164 
2234 
2281 
2387 
2430 
2406 
2384 
2465 
2505 
2461 
2441 
2430 
2464 
2409 
2329 
2316 
2356 
2293 
2219 
2218 
2301 
2261 
2189 
2161 
2225 
2222 
2159 
2148 
2190 
2190 
2145 
2136 
2196 
2216 
2161 
2118 
2153 
2213 
2193 
2154 
2181 
2239 
2217 
2150 
2178 
2244 
2242 
2183 
2167 
2216 
2229 
2198 
2189 
2237 
2252 
2237 
2694 
2854 
2671 
2532 
2406 
2405 
2401 
2340 
2290 
2304 
2353 
2335 
2270 
2290 
2316 
2328 
2270 
2249 
2291 
2281 
2237 
2232 
2296 
2331 
2280 
2238 
2265 
2315 
2285 
2218 
2250 
2281 
2249 
2225 
2236 
2281 
2239 
2191 
2240 
2309 
2278 
2229 
2240 
2295 
2295 
2233 
2201 
2289 
2292 
2247 
2233 
2250 
2281 
2252 
2247 
2254 
2292 
2256 
2237 
2235 
2287 
2308 
2234 
2233 
2283 
2285 
2253 
2262 
2295 
2287 
2247 
2248 
2309 
2283 
2256 
2230 
2275 
2312 
2313 
2267 
2265 
2297 
2270 
2265 
2289 
2296 
2271 
2264 
2262 
2291 
2292 
2249 
2243 
2306 
2304 
2272 
2272 
2300 
2343 
2298 
2263 
2281 
2315 
2289 
2258 
2292 
2340 
2311 
2259 
2279 
2331 
2278 
2253 
2273 
2340 
2321 
2259 
2273 
2312 
2326 
2292 
2270 
2342 
2360 
2306 
2245 
2346 
2373 
2292 
2262 
2295 
2338 
2298 
2267 
2294 
2352 
2326 
2287 
2282 
2344 
2361 
2318 
2287 
2335 
2339 
2294 
2260 
2347 
2386 
2297 
2282 
2349 
2360 
2314 
2283 
2335 
2370 
2348 
2303 
2348 
2395 
2331 
2280 
2290 
2351 
2333 
2295 
2305 
2363 
2363 
2312 
2280 
2357 
2398 
2356 
2312 
2371 
2370 
2314 
2311 
2352 
2443 
2411 
2350 
2341 
2392 
2412 
2355 
2363 
2456 
2445 
2388 
2379 
2422 
2450 
2416 
2373 
2428 
2427 
2383 
2325 
2339 
2376 
2346 
2298 
2321 
2390 
2349 
2282 
2294 
2354 
2347 
2298 
2327 
2395 
2346 
2280 
2277 
2393 
2548 
2562 
2581 
2659 
2660 
2537 
2386 
2411 
2365 
2279 
2284 
2343 
2408 
2392 
2352 
2355 
2413 
2425 
2357 
2357 
2412 
2399 
2370 
2368 
2445 
2449 
2402 
2359 
2425 
2480 
2417 
2376 
2432 
2473 
2431 
2426 
2476 
2521 
2497 
2455 
2466 
2523 
2519 
2480 
2481 
2532 
2511 
2484 
2484 
2569 
2596 
2535 
2526 
2599 
2664 
2637 
2594 
2624 
2668 
2637 
2617 
2683 
2599 
2074 
2187 
2390 
2535 
2577 
2548 
2583 
2649 
2669 
2646 
2635 
2715 
2689 
2627 
2583 
2639 
2622 
2534 
2480 
2505 
2544 
2473 
2401 
2430 
2485 
2442 
2394 
2423 
2461 
2428 
2380 
2377 
2459 
2443 
2397 
2383 
2444 
2459 
2423 
2384 
2452 
2511 
2476 
2432 
2497 
2559 
2456 
2383 
2439 
2484 
2479 
2446 
2443 
2499 
2846 
3155 
2858 
2798 
2761 
2678 
2621 
2598 
2626 
2582 
2550 
2595 
2597 
2559 
2512 
2524 
2572 
2560 
2515 
2535 
2589 
2566 
2521 
2507 
2550 
2532 
2502 
2520 
2556 
2549 
2524 
2487 
2537 
2558 
2495 
2479 
2541 
2575 
2518 
2455 
2488 
2547 
2525 
2486 
2531 
2580 
2532 
2491 
2522 
2591 
2569 
2505 
2491 
2557 
2571 
2503 
2471 
2544 
2559 
2507 
2494 
2555 
2576 
2510 
2494 
2561 
2580 
2538 
2508 
2514 
2578 
2563 
2522 
2543 
2581 
2585 
2540 
2530 
2606 
2587 
2540 
2534 
2585 
2602 
2536 
2529 
2588 
2645 
2583 
2535 
2570 
2600 
2565 
2507 
2548 
2615 
2580 
2540 
2557 
2620 
2633 
2568 
2547 
2590 
2585 
2562 
2557 
2603 
2628 
2600 
2595 
2609 
2641 
2594 
2590 
2633 
2657 
2633 
2618 
2619 
2630 
2636 
2597 
2615 
2649 
2632 
2574 
2583 
2659 
2667 
2604 
2572 
2692 
2720 
2629 
2617 
2660 
2684 
2660 
2636 
2667 
2729 
2718 
2680 
2698 
2756 
2768 
2708 
2714 
2810 
2806 
2763 
2731 
2784 
2798 
2758 
2751 
2803 
2820 
2722 
2671 
2707 
2743 
2717 
2676 
2720 
2776 
2747 
2695 
2740 
2775 
2747 
2712 
2701 
2763 
2759 
2709 
2745 
2877 
2971 
3006 
3021 
3078 
3090 
2768 
2057 
2202 
2412 
2504 
2522 
2560 
2681 
2704 
2676 
2728 
2794 
2771 
2740 
2762 
2820 
2811 
2745 
2777 
2838 
2811 
2780 
2782 
2865 
2881 
2838 
2787 
2835 
2901 
2873 
2857 
2909 
2919 
2886 
2860 
2893 
2950 
2953 
2913 
2925 
3035 
2992 
2934 
2931 
2982 
3050 
3012 
2974 
3037 
3068 
3051 
3005 
3055 
3126 
3102 
3099 
3136 
3162 
3151 
3123 
3149 
3195 
3227 
3182 
3164 
3237 
3231 
3163 
3148 
3210 
3187 
3100 
3081 
3088 
3105 
3013 
2944 
2972 
2980 
2937 
2870 
2876 
2903 
2858 
2819 
2827 
2868 
2853 
2827 
2835 
2870 
2838 
2806 
2805 
2858 
2857 
2842 
2816 
2874 
2906 
2865 
2827 
2852 
2894 
2880 
2843 
2861 
2904 
2894 
2859 
2872 
2919 
2926 
2855 
2847 
3274 
3615 
3290 
3141 
3182 
3119 
2999 
2968 
3028 
3027 
2980 
2932 
2965 
2995 
2927 
2901 
2936 
2978 
2971 
2887 
2909 
2955 
2926 
2877 
2858 
2957 
2928 
2881 
2867 
2927 
2905 
2862 
2838 
2907 
2940 
2899 
2836 
2862 
2941 
2901 
2844 
2893 
2924 
2873 
2847 
2867 
2921 
2902 
2844 
2827 
2901 
2937 
2874 
2841 
2897 
2914 
2878 
2838 
2900 
2942 
2870 
2853 
2891 
2914 
2876 
2846 
2889 
2957 
2939 
2827 
2860 
2940 
2950 
2879 
2835 
2922 
2964 
2839 
2826 
2906 
2933 
2884 
2852 
2901 
2944 
2891 
2834 
2887 
2954 
2939 
2864 
2872 
2950 
2914 
2849 
2858 
2943 
2921 
2858 
2870 
2972 
2937 
2894 
2863 
2907 
2945 
2900 
2883 
2938 
2933 
2882 
2860 
2917 
2960 
2932 
2880 
2900 
2953 
2938 
2905 
2921 
2963 
2930 
2873 
2866 
2938 
2971 
2915 
2870 
2912 
2955 
2898 
2861 
2905 
2939 
2927 
2914 
2915 
2943 
2934 
2906 
2935 
2968 
2939 
2904 
2920 
2980 
3031 
2966 
2974 
3017 
3017 
2983 
2968 
3005 
3013 
2963 
2880 
2908 
2954 
2892 
2838 
2883 
2932 
2917 
2872 
2872 
2935 
2917 
2864 
2842 
2907 
2904 
2848 
2842 
2921 
2968 
3034 
3071 
3187 
3254 
3189 
3061 
3036 
3007 
2898 
2808 
2893 
2972 
2909 
2905 
2940 
3000 
2987 
2936 
2910 
3001 
2984 
2916 
2910 
2974 
3016 
2973 
2972 
3028 
3057 
2971 
2919 
3009 
3057 
3045 
3026 
3047 
3092 
3092 
3062 
3057 
3154 
3137 
3080 
3106 
3137 
3166 
3078 
3088 
3172 
3182 
3161 
3129 
3187 
3215 
3187 
3166 
3218 
3270 
3222 
3196 
3264 
3296 
2835 
2591 
2859 
3048 
3071 
3081 
3140 
3208 
3210 
3192 
3203 
3234 
3233 
3189 
3122 
3157 
3132 
3077 
3016 
3028 
3050 
2992 
2935 
2957 
2985 
2955 
2890 
2886 
2958 
2945 
2874 
2869 
2933 
2955 
2873 
2864 
2935 
2957 
2942 
2870 
2949 
2961 
2924 
2883 
2912 
2974 
2940 
2889 
2926 
2992 
2992 
2962 
2937 
2984 
2988 
2930 
3033 
3650 
3558 
3280 
3166 
3181 
3154 
3069 
3028 
3068 
3097 
3100 
2988 
3001 
3071 
3030 
3015 
3029 
3037 
3012 
2970 
2979 
3039 
3037 
2973 
2966 
3042 
3009 
2954 
2952 
3021 
3021 
2981 
2952 
2987 
3015 
2994 
2947 
2963 
3039 
2962 
2917 
2950 
2988 
2946 
2936 
2945 
2969 
2960 
2931 
2937 
2988 
2978 
2908 
2894 
2988 
2991 
2924 
2894 
2944 
2989 
2956 
2914 
2962 
3020 
2963 
2917 
2932 
3003 
3003 
2948 
2916 
2970 
2981 
2932 
2902 
2958 
2980 
2947 
2903 
2976 
3001 
2954 
2939 
2952 
2999 
2976 
2931 
2953 
2986 
2961 
2935 
2961 
2997 
2968 
2911 
2914 
3007 
2972 
2910 
2923 
2983 
3001 
2933 
2887 
2992 
3021 
2947 
2899 
2944 
3002 
2977 
2939 
2966 
2983 
2962 
2927 
2948 
3010 
2985 
2933 
2945 
3011 
3006 
2975 
2935 
2984 
3003 
2946 
2938 
3046 
3007 
2945 
2919 
2980 
2979 
2962 
2937 
2955 
3001 
2962 
2932 
2963 
3039 
3028 
2971 
2939 
2981 
2971 
2916 
2909 
2976 
3005 
2937 
2924 
3005 
3006 
2985 
2985 
3021 
3063 
3017 
3013 
3005 
3096 
3090 
3058 
3042 
3116 
3103 
3012 
3013 
3058 
3064 
3007 
2962 
2900 
2345 
2427 
2614 
2744 
2789 
2791 
2802 
2882 
2919 
2893 
2845 
2859 
2918 
2943 
2994 
3114 
3224 
3243 
3222 
3181 
3148 
3027 
2896 
2807 
2900 
2955 
2926 
2940 
3027 
3055 
3023 
2985 
3009 
3046 
2999 
2983 
2994 
3032 
3017 
2977 
3016 
3089 
3104 
3019 
2999 
3063 
3094 
3054 
3052 
3101 
3121 
3085 
3042 
3100 
3135 
3112 
3070 
3113 
3141 
3137 
3074 
3101 
3184 
3205 
3114 
3103 
3187 
3190 
3161 
3151 
3234 
3216 
3193 
3200 
3272 
3317 
3311 
3265 
3307 
3342 
3310 
3277 
3340 
3386 
3355 
3334 
3358 
3426 
3377 
3308 
3306 
3359 
3330 
3230 
3180 
3221 
3207 
3096 
3057 
3116 
3114 
3050 
3007 
3040 
3064 
3021 
2955 
2990 
3022 
2994 
2935 
2950 
3003 
2992 
2937 
2965 
3047 
3030 
2964 
2989 
3065 
3056 
3005 
3009 
3044 
3044 
3021 
2976 
2993 
3075 
2994 
2950 
3008 
3062 
3050 
3001 
3014 
3084 
3048 
2988 
2976 
3046 
3061 
3003 
2969 
3040 
3075 
3013 
2985 
3034 
3059 
3016 
2977 
3025 
3047 
3007 
2956 
2992 
3482 
3703 
3396 
3300 
3276 
3205 
3118 
3112 
3164 
3162 
3077 
3035 
3116 
3141 
3067 
3055 
3089 
3105 
3049 
3017 
3052 
3082 
3063 
3011 
3038 
3081 
3060 
3042 
3075 
3087 
3068 
3011 
2990 
3077 
3059 
3026 
2999 
3049 
3083 
3040 
3007 
3052 
3084 
3045 
3014 
3055 
3099 
3071 
3015 
3071 
3118 
3043 
2989 
3035 
3085 
3068 
3030 
3005 
3078 
3099 
3024 
3001 
3089 
3104 
3061 
3009 
3049 
3091 
3052 
2993 
3045 
3105 
3057 
3006 
3018 
3083 
3069 
3024 
3048 
3138 
3096 
3018 
3008 
3066 
3081 
3026 
3012 
3069 
3078 
3018 
3001 
3087 
3102 
3049 
3033 
3053 
3112 
3076 
3029 
3037 
3091 
3083 
3037 
3068 
3111 
3102 
3068 
3044 
3116 
3156 
3057 
2999 
3070 
3104 
3052 
3015 
3059 
3120 
3095 
3033 
2926 
2451 
2576 
2692 
2799 
2921 
2942 
2901 
2923 
3009 
3021 
2988 
2963 
3036 
3053 
3010 
3003 
3089 
3131 
3036 
2989 
3061 
3096 
3061 
3019 
3050 
3109 
3095 
3087 
3095 
3160 
3122 
3052 
3064 
3169 
3175 
3133 
3125 
3190 
3208 
3166 
3137 
3180 
3232 
3167 
3101 
3147 
3195 
3125 
3061 
3078 
3130 
3112 
3062 
3070 
3116 
3109 
3069 
3066 
3156 
3136 
3062 
3067 
3137 
3128 
3113 
3186 
3369 
3420 
3412 
3397 
3418 
3345 
3219 
3125 
3075 
3140 
3170 
3153 
3177 
3282 
3257 
3172 
3165 
3215 
3226 
3205 
3154 
3234 
3248 
3199 
3174 
3234 
3251 
3225 
3188 
3254 
3347 
3249 
3211 
3269 
3296 
3269 
3221 
3240 
3311 
3297 
3253 
3281 
3342 
3325 
3263 
3274 
3375 
3365 
3303 
3281 
3343 
3381 
3349 
3314 
3380 
3425 
3409 
3382 
3442 
3475 
3468 
3433 
3448 
3510 
3504 
3451 
3449 
3534 
3554 
3509 
3477 
3541 
3576 
3535 
3489 
3508 
3554 
3442 
3364 
3354 
3399 
3346 
3280 
3278 
3325 
3286 
3202 
3240 
3281 
3250 
3146 
3133 
3206 
3216 
3142 
3144 
3216 
3247 
3141 
3133 
3178 
3206 
3186 
3138 
3161 
3208 
3183 
3110 
3130 
3224 
3215 
3134 
3140 
3248 
3220 
3171 
3134 
3214 
3245 
3183 
3138 
3192 
3219 
3160 
3136 
3210 
3258 
3204 
3142 
3172 
3219 
3176 
3122 
3157 
3231 
3220 
3201 
3130 
3200 
3201 
3125 
3118 
3168 
3180 
3157 
3122 
3201 
3217 
3164 
3123 
3178 
3234 
3196 
3157 
3161 
3202 
3168 
3111 
3178 
3238 
3199 
3141 
3154 
3221 
3220 
3167 
3166 
3236 
3209 
3166 
3156 
3236 
3255 
3145 
3118 
3215 
3241 
3206 
3139 
3173 
3213 
3202 
3178 
3207 
3235 
3227 
3162 
3181 
3237 
3236 
3186 
3163 
3256 
3266 
3220 
3192 
3262 
3261 
3220 
3217 
3245 
3277 
3254 
3210 
3248 
3291 
3301 
3240 
3249 
3316 
3305 
3246 
3241 
3338 
3340 
3256 
3240 
3321 
3330 
3292 
3246 
3309 
3339 
3309 
3257 
3317 
3358 
3331 
3274 
3299 
3362 
3331 
3256 
3274 
3346 
3332 
3272 
3273 
3345 
3362 
3301 
3284 
3365 
3400 
3308 
3269 
3330 
3366 
3326 
3277 
3347 
3399 
3348 
3295 
3289 
3350 
3333 
3291 
3284 
3346 
3366 
3302 
3265 
3340 
3359 
3280 
3279 
3353 
3383 
3303 
3255 
3322 
3367 
3302 
3267 
3305 
3346 
3308 
3274 
3289 
3335 
3309 
3281 
3277 
3339 
3331 
3301 
3304 
3345 
3378 
3348 
3314 
3370 
3383 
3330 
3317 
3375 
3410 
3376 
3358 
3418 
3444 
3414 
3389 
3401 
3464 
3439 
3347 
3359 
3418 
3371 
3309 
3284 
3336 
3360 
3302 
3313 
3351 
3390 
3335 
3279 
3331 
3367 
3340 
3285 
3324 
3354 
3345 
3385 
3521 
3632 
3660 
3650 
3570 
3546 
3431 
3304 
3239 
3310 
3361 
3341 
3316 
3379 
3410 
3393 
3354 
3403 
3460 
3412 
3339 
3383 
3438 
3395 
3332 
3379 
3454 
3425 
3366 
3375 
3447 
3443 
3385 
3370 
3464 
3500 
3426 
3406 
3481 
3504 
3456 
3419 
3478 
3514 
3490 
3452 
3472 
3541 
3524 
3475 
3526 
3608 
3574 
3523 
3519 
3586 
3637 
3581 
3544 
3620 
3673 
3605 
3602 
3675 
3736 
3679 
3645 
3708 
3762 
3717 
3688 
3755 
3804 
3746 
3690 
3687 
3712 
3702 
3627 
3589 
3626 
3594 
3517 
3476 
3549 
3527 
3452 
3412 
3444 
3475 
3439 
3391 
3456 
3461 
3401 
3365 
3415 
3471 
3446 
3389 
3407 
3483 
3463 
3411 
3408 
3461 
3490 
3417 
3371 
3460 
3451 
3386 
3365 
3416 
3472 
3431 
3347 
3375 
3444 
3422 
3379 
3400 
3437 
3405 
3364 
3375 
3449 
3438 
3361 
3333 
3400 
3418 
3354 
3320 
3420 
3471 
3389 
3363 
3402 
3413 
3357 
3307 
3327 
3388 
3373 
3316 
3340 
3391 
3350 
3247 
3234 
3309 
3308 
3272 
3261 
3316 
3298 
3258 
3223 
3283 
3309 
3267 
3253 
3296 
3332 
3290 
3236 
3271 
3333 
3291 
3241 
3263 
3324 
3287 
3257 
3239 
3314 
3339 
3276 
3264 
3327 
3335 
3263 
3247 
3296 
3345 
3286 
3234 
3293 
3350 
3297 
3262 
3279 
3316 
3273 
3217 
3233 
3334 
3324 
3252 
3243 
3315 
3294 
3231 
3213 
3279 
3307 
3257 
3242 
3293 
3280 
3238 
3198 
3252 
3288 
3271 
3223 
3226 
3298 
3286 
3242 
3275 
3295 
3257 
3200 
3205 
3286 
3280 
3213 
3222 
3286 
3310 
3232 
3182 
3252 
3302 
3262 
3242 
3243 
3251 
3211 
3163 
3212 
3271 
3242 
3200 
3200 
3275 
3270 
3223 
3238 
3278 
3274 
3201 
3180 
3261 
3298 
3230 
3187 
3259 
3293 
3237 
3179 
3240 
3334 
3306 
3221 
3249 
3325 
3300 
3200 
3216 
3298 
3290 
3249 
3229 
3307 
3337 
3293 
3272 
3352 
3392 
3308 
3264 
3334 
3371 
3345 
3291 
3309 
3325 
3262 
3203 
3231 
3288 
3261 
3192 
3205 
3313 
3274 
3206 
3203 
3293 
3275 
3220 
3179 
3226 
3255 
3200 
3178 
3293 
3416 
3449 
3458 
3523 
3576 
3467 
3313 
3263 
3269 
3232 
3192 
3198 
3273 
3293 
3220 
3231 
3300 
3291 
3215 
3190 
3257 
3289 
3264 
3237 
3263 
3280 
3235 
3210 
3271 
3298 
3291 
3215 
3243 
3309 
3301 
3243 
3262 
3329 
3319 
3269 
3262 
3353 
3346 
3278 
3270 
3339 
3388 
3369 
3284 
3333 
3422 
3349 
3309 
3356 
3424 
3381 
3332 
3391 
3482 
3466 
3404 
3409 
3503 
3524 
3477 
3478 
3574 
3565 
3521 
3504 
3569 
3602 
3582 
3494 
3526 
3568 
3512 
3445 
3450 
3476 
3396 
3311 
3297 
3366 
3316 
3246 
3223 
3269 
3270 
3199 
3146 
3204 
3230 
3184 
3169 
3233 
3227 
3160 
3094 
3126 
3166 
3115 
3048 
3108 
3188 
3141 
3087 
3098 
3144 
3145 
3100 
3073 
3173 
3210 
3110 
3064 
3104 
3153 
3100 
3076 
3109 
3141 
3086 
3039 
3107 
3151 
3092 
3051 
3101 
3186 
3123 
3069 
3063 
3137 
3135 
3098 
3076 
3149 
3135 
3072 
3068 
3126 
3141 
3105 
3024 
3098 
3147 
3102 
3047 
3086 
3143 
3112 
3071 
3093 
3169 
3141 
3053 
3032 
3125 
3136 
3045 
3061 
3147 
3147 
3107 
3050 
3115 
3127 
3079 
3050 
3112 
3184 
3116 
3075 
3119 
3150 
3115 
3071 
3095 
3154 
3112 
3072 
3105 
3151 
3129 
3088 
3062 
3120 
3162 
3117 
3077 
3113 
3164 
3068 
3055 
3110 
3150 
3122 
3092 
3117 
3151 
3124 
3075 
3108 
3194 
3184 
3078 
3067 
3146 
3140 
3102 
3080 
3138 
3182 
3154 
3139 
3175 
3172 
3119 
3077 
3117 
3175 
3139 
3095 
3122 
3216 
3174 
3094 
3121 
3186 
3176 
3123 
3127 
3203 
3176 
3131 
3132 
3186 
3206 
3141 
3124 
3197 
3203 
3159 
3126 
3170 
3207 
3193 
3134 
3181 
3233 
3200 
3166 
3166 
3230 
3220 
3152 
3159 
3249 
3258 
3217 
3189 
3272 
3306 
3237 
3227 
3259 
3287 
3236 
3215 
3299 
3347 
3271 
3221 
3237 
3277 
3244 
3210 
3243 
3318 
3251 
3156 
3173 
3262 
3274 
3219 
3185 
3260 
3313 
3261 
3163 
3227 
3271 
3266 
3280 
3381 
3510 
3510 
3507 
3519 
3510 
3397 
3233 
3195 
3250 
3284 
3274 
3290 
3349 
3294 
3257 
3236 
3296 
3353 
3306 
3263 
3318 
3367 
3348 
3298 
3289 
3367 
3347 
3285 
3320 
3386 
3367 
3342 
3380 
3417 
3380 
3315 
3321 
3395 
3426 
3419 
3358 
3373 
3438 
3406 
3376 
3435 
3489 
3460 
3441 
3492 
3538 
3532 
3469 
3504 
3576 
3577 
3520 
3512 
3582 
3618 
3609 
3599 
3705 
3726 
3623 
3628 
3717 
3757 
3681 
3658 
3711 
3765 
3713 
3621 
3656 
3729 
3651 
3565 
3559 
3574 
3506 
3440 
3446 
3497 
3473 
3389 
3352 
3411 
3426 
3360 
3339 
3413 
3407 
3348 
3310 
3365 
3418 
3348 
3299 
3337 
3410 
3386 
3319 
3328 
3362 
3370 
3308 
3318 
3386 
3373 
3321 
3295 
3403 
3421 
3351 
3327 
3384 
3402 
3347 
3318 
3391 
3435 
3388 
3309 
3330 
3395 
3350 
3304 
3307 
3398 
3412 
3309 
3298 
3375 
3369 
3331 
3310 
3370 
3363 
3332 
3308 
3360 
3404 
3362 
3315 
3336 
3360 
3318 
3273 
3310 
3387 
3356 
3274 
3286 
3354 
3327 
3274 
3288 
3362 
3350 
3295 
3281 
3342 
3342 
3283 
3256 
3309 
3337 
3272 
3246 
3269 
3334 
3276 
3223 
3270 
3346 
3313 
3243 
3272 
3358 
3333 
3270 
3265 
3352 
3353 
3265 
3227 
3239 
3182 
3141 
3180 
3236 
3231 
3196 
3177 
3224 
3283 
3240 
3184 
3232 
3305 
3287 
3236 
3201 
3287 
3309 
3254 
3223 
3318 
3306 
3223 
3193 
3286 
3316 
3269 
3227 
3308 
3327 
3266 
3226 
3270 
3322 
3292 
3264 
3258 
3286 
3274 
3230 
3278 
3311 
3294 
3245 
3218 
3296 
3310 
3244 
3229 
3272 
3316 
3307 
3270 
3285 
3320 
3291 
3230 
3282 
3351 
3338 
3285 
3317 
3367 
3337 
3288 
3314 
3405 
3408 
3345 
3372 
3420 
3386 
3334 
3296 
3349 
3365 
3318 
3247 
3303 
3362 
3308 
3263 
3323 
3358 
3317 
3268 
3283 
3333 
3309 
3251 
3257 
3282 
3217 
3170 
3254 
3427 
3479 
3393 
3377 
3415 
3346 
3219 
3155 
3154 
3221 
3232 
3206 
3256 
3310 
3293 
3244 
3267 
3360 
3348 
3294 
3275 
3401 
3396 
3314 
3305 
3362 
3358 
3321 
3300 
3400 
3429 
3343 
3322 
3387 
3442 
3403 
3339 
3397 
3468 
3436 
3393 
3414 
3480 
3486 
3444 
3428 
3502 
3534 
3495 
3460 
3547 
3618 
3542 
3478 
3544 
3589 
3570 
3551 
3603 
3672 
3666 
3609 
3651 
3688 
3680 
3629 
3650 
3757 
3740 
3705 
3701 
3767 
3767 
3691 
3652 
3700 
3708 
3639 
3580 
3596 
3603 
3544 
3478 
3524 
3541 
3443 
3397 
3440 
3481 
3438 
3365 
3402 
3474 
3467 
3393 
3382 
3453 
3456 
3414 
3395 
3448 
3474 
3421 
3333 
3408 
3480 
3433 
3359 
3396 
3464 
3431 
3352 
3351 
3449 
3465 
3372 
3380 
3442 
3430 
3367 
3340 
3392 
3370 
3316 
3298 
3365 
3396 
3342 
3307 
3370 
3408 
3357 
3299 
3316 
3418 
3398 
3288 
3340 
3379 
3331 
3281 
3317 
3405 
3401 
3299 
3255 
3356 
3366 
3307 
3278 
3316 
3368 
3311 
3248 
3273 
3334 
3304 
3266 
3307 
3333 
3317 
3290 
3288 
3350 
3321 
3269 
3270 
3359 
3339 
3249 
3252 
3319 
3346 
3284 
3251 
3333 
3364 
3298 
3260 
3288 
3355 
3329 
3276 
3304 
3374 
3340 
3275 
3290 
3368 
3359 
3281 
3295 
3399 
3390 
3304 
3292 
3371 
3396 
3340 
3275 
3346 
3383 
3346 
3319 
3370 
3405 
3359 
3309 
3341 
3403 
3350 
3301 
3360 
3425 
3402 
3327 
3339 
3429 
3410 
3350 
3346 
3420 
3444 
3404 
3358 
3440 
3484 
3413 
3373 
3431 
3485 
3410 
3372 
3428 
3470 
3458 
3376 
3393 
3491 
3448 
3394 
3401 
3461 
3510 
3441 
3397 
3482 
3508 
3469 
3409 
3460 
3525 
3487 
3431 
3453 
3533 
3517 
3477 
3499 
3541 
3499 
3431 
3439 
3536 
3538 
3469 
3474 
3541 
3543 
3530 
3484 
3532 
3555 
3496 
3470 
3565 
3598 
3548 
3498 
3530 
3617 
3561 
3499 
3562 
3679 
3600 
3530 
3562 
3659 
3650 
3567 
3554 
3609 
3604 
3542 
3482 
3551 
3590 
3524 
3458 
3500 
3583 
3577 
3490 
3513 
3570 
3518 
3467 
3489 
3534 
3487 
3476 
3555 
3694 
3721 
3701 
3706 
3782 
3731 
3592 
3538 
3548 
3556 
3491 
3463 
3577 
3634 
3579 
3532 
3544 
3612 
3583 
3532 
3540 
3636 
3622 
3534 
3543 
3647 
3683 
3614 
3567 
3654 
3680 
3649 
3634 
3670 
3702 
3661 
3624 
3697 
3755 
3732 
3675 
3713 
3778 
3747 
3691 
3700 
3789 
3798 
3746 
3753 
3835 
3841 
3795 
3776 
3879 
3869 
3826 
3820 
3855 
3902 
3862 
3827 
3902 
4006 
3950 
3894 
3957 
4034 
3972 
3925 
3965 
4052 
4032 
3958 
3954 
4021 
4002 
3913 
3828 
3915 
3907 
3805 
3750 
3807 
3821 
3756 
3675 
3708 
3762 
3713 
3644 
3676 
3745 
3730 
3638 
3632 
3722 
3723 
3629 
3619 
3708 
3710 
3672 
3648 
3713 
3763 
3683 
3643 
3732 
3749 
3717 
3680 
3726 
3763 
3716 
3648 
3674 
3764 
3753 
3718 
3726 
3798 
3783 
3701 
3688 
3749 
3737 
3708 
3716 
3758 
3782 
3710 
3673 
3718 
3786 
3726 
3701 
3755 
3790 
3757 
3684 
3712 
3810 
3763 
3682 
3705 
3796 
3788 
3696 
3690 
3804 
3780 
3697 
3691 
3765 
3797 
3750 
3722 
3752 
3791 
3763 
3728 
3775 
3819 
3793 
3721 
3750 
3817 
3797 
3758 
3721 
3786 
3804 
3716 
3724 
3778 
3804 
3777 
3720 
3767 
3808 
3738 
3701 
3761 
3817 
3758 
3736 
3800 
3850 
3802 
3734 
3734 
3832 
3791 
3708 
3711 
3811 
3802 
3751 
3741 
3803 
3806 
3746 
3715 
3787 
3831 
3768 
3724 
3791 
3832 
3787 
3733 
3777 
3849 
3804 
3743 
3735 
3818 
3817 
3765 
3739 
3841 
3829 
3762 
3762 
3849 
3825 
3751 
3712 
3787 
3819 
3771 
3744 
3800 
3869 
3843 
3741 
3758 
3844 
3826 
3759 
3752 
3854 
3861 
3766 
3768 
3862 
3857 
3820 
3777 
3872 
3906 
3834 
3839 
3871 
3912 
3869 
3823 
3813 
3867 
3837 
3759 
3769 
3861 
3834 
3745 
3725 
3795 
3788 
3730 
3706 
3780 
3803 
3731 
3691 
3773 
3795 
3709 
3691 
3836 
4021 
4060 
4033 
4065 
4095 
3973 
3803 
3754 
3788 
3775 
3735 
3789 
3834 
3839 
3780 
3795 
3870 
3853 
3791 
3752 
3829 
3869 
3789 
3752 
3815 
3879 
3798 
3756 
3816 
3886 
3862 
3798 
3813 
3898 
3896 
3834 
3866 
3945 
3909 
3850 
3835 
3918 
3924 
3869 
3850 
3908 
3937 
3880 
3861 
3921 
3979 
3913 
3861 
3935 
4038 
3966 
3927 
3977 
4039 
4050 
3986 
4002 
4088 
4107 
4044 
4060 
4136 
4158 
4092 
4052 
4129 
4169 
4096 
4050 
4054 
4091 
4022 
3936 
3961 
3984 
3930 
3869 
3828 
3863 
3832 
3764 
3763 
3844 
3793 
3720 
3671 
3756 
3786 
3721 
3693 
3760 
3819 
3729 
3666 
3771 
3777 
3730 
3680 
3700 
3768 
3735 
3669 
3695 
3760 
3754 
3707 
3668 
3756 
3771 
3662 
3648 
3729 
3750 
3675 
3619 
3701 
3758 
3713 
3639 
3686 
3730 
3708 
3645 
3644 
3726 
3690 
3631 
3644 
3710 
3696 
3626 
3635 
3719 
3714 
3635 
3595 
3665 
3699 
3605 
3551 
3669 
3741 
3662 
3609 
3664 
3725 
3655 
3584 
3601 
3691 
3686 
3607 
3588 
3656 
3663 
3610 
3587 
3676 
3690 
3601 
3570 
3645 
3665 
3597 
3564 
3599 
3654 
3609 
3565 
3604 
3637 
3610 
3551 
3584 
3691 
3642 
3564 
3575 
3632 
3646 
3638 
3582 
3606 
3626 
3575 
3541 
3626 
3690 
3598 
3546 
3609 
3657 
3602 
3554 
3591 
3661 
3694 
3576 
3587 
3689 
3667 
3596 
3596 
3688 
3703 
3644 
3609 
3716 
3731 
3663 
3621 
3681 
3689 
3633 
3581 
3631 
3652 
3580 
3544 
3596 
3631 
3561 
3499 
3522 
3599 
3547 
3482 
3503 
3607 
3584 
3515 
3492 
3558 
3580 
3581 
3674 
3844 
3857 
3855 
3789 
3750 
3691 
3541 
3430 
3422 
3490 
3491 
3469 
3505 
3597 
3618 
3533 
3463 
3545 
3583 
3550 
3486 
3538 
3578 
3530 
3494 
3525 
3599 
3560 
3487 
3547 
3590 
3556 
3541 
3523 
3587 
3580 
3542 
3547 
3655 
3637 
3555 
3540 
3623 
3654 
3590 
3543 
3618 
3676 
3648 
3621 
3664 
3698 
3669 
3626 
3688 
3737 
3700 
3656 
3691 
3780 
3769 
3745 
3769 
3859 
3817 
3757 
3784 
3872 
3891 
3815 
3767 
3837 
3869 
3817 
3700 
3727 
3746 
3658 
3580 
3602 
3593 
3529 
3448 
3474 
3529 
3501 
3424 
3412 
3461 
3454 
3364 
3371 
3474 
3439 
3385 
3359 
3429 
3457 
3379 
3327 
3369 
3427 
3375 
3314 
3367 
3404 
3354 
3314 
3350 
3429 
3418 
3347 
3319 
3407 
3390 
3329 
3295 
3372 
3390 
3321 
3305 
3370 
3425 
3386 
3350 
3377 
3399 
3374 
3335 
3331 
3395 
3355 
3317 
3355 
3411 
3377 
3315 
3314 
3399 
3396 
3377 
3329 
3368 
3390 
3298 
3262 
3340 
3387 
3316 
3272 
3327 
3411 
3363 
3310 
3350 
3423 
3368 
3303 
3326 
3399 
3385 
3316 
3314 
3397 
3393 
3313 
3309 
3395 
3406 
3311 
3295 
3380 
3417 
3340 
3283 
3333 
3426 
3371 
3299 
3313 
3388 
3386 
3331 
3306 
3357 
3372 
3301 
3300 
3370 
3353 
3295 
3285 
3360 
3378 
3316 
3287 
3357 
3379 
3323 
3276 
3321 
3355 
3316 
3276 
3290 
3348 
3305 
3243 
3254 
3325 
3320 
3294 
3273 
3318 
3333 
3250 
3227 
3337 
3383 
3300 
3241 
3327 
3343 
3284 
3222 
3274 
3364 
3336 
3296 
3296 
3375 
3376 
3286 
3271 
3375 
3405 
3346 
3318 
3387 
3432 
3359 
3330 
3379 
3396 
3330 
3275 
3324 
3354 
3297 
3204 
3229 
3326 
3270 
3232 
3216 
3290 
3258 
3192 
3214 
3298 
3253 
3186 
3162 
3251 
3312 
3324 
3389 
3537 
3633 
3589 
3463 
3397 
3359 
3239 
3136 
3182 
3263 
3237 
3182 
3247 
3326 
3288 
3232 
3234 
3305 
3284 
3214 
3204 
3284 
3315 
3234 
3194 
3298 
3340 
3287 
3254 
3360 
3376 
3284 
3247 
3294 
3385 
3371 
3295 
3314 
3379 
3361 
3320 
3294 
3347 
3373 
3308 
3281 
3390 
3430 
3378 
3337 
3412 
3453 
3436 
3397 
3422 
3478 
3448 
3413 
3428 
3520 
3519 
3475 
3496 
3564 
3577 
3538 
3531 
3621 
3632 
3552 
3505 
3568 
3590 
3518 
3447 
3502 
3513 
3440 
3355 
3385 
3415 
3369 
3285 
3241 
3290 
3239 
3181 
3171 
3226 
3208 
3155 
3151 
3195 
3221 
3145 
3111 
3189 
3258 
3165 
3096 
3153 
3192 
3142 
3112 
3191 
3235 
3172 
3124 
3163 
3233 
3194 
3118 
3116 
3203 
3204 
3119 
3112 
3192 
3171 
3124 
3080 
3157 
3189 
3140 
3066 
3151 
3186 
3123 
3080 
3121 
3181 
3129 
3084 
3103 
3198 
3180 
3062 
3053 
3145 
3168 
3090 
3066 
3135 
3148 
3107 
3081 
3115 
3144 
3078 
3046 
3081 
3116 
3061 
2996 
3052 
3139 
3095 
2973 
2975 
3052 
3054 
3017 
3011 
3087 
3094 
3027 
3024 
3068 
3089 
3011 
2954 
3016 
3060 
3026 
2964 
3013 
3069 
3006 
2951 
2962 
3042 
3019 
2950 
2931 
3007 
3002 
2921 
2899 
2951 
2974 
2929 
2909 
2946 
2983 
2930 
2890 
2965 
3033 
3023 
2957 
3001 
3080 
3030 
2980 
3021 
3092 
3058 
3013 
3033 
3101 
3123 
3025 
3023 
3111 
3110 
3054 
3045 
3124 
3110 
3028 
3010 
3086 
3127 
3081 
3030 
3073 
3116 
3075 
3032 
3084 
3162 
3134 
3094 
3092 
3166 
3183 
3094 
3098 
3183 
3194 
3160 
3099 
3153 
3159 
3096 
3024 
3072 
3118 
3062 
3034 
3044 
3077 
3030 
2963 
3004 
3094 
3076 
2988 
2987 
3062 
3068 
3011 
2951 
3094 
3170 
3189 
3242 
3381 
3467 
3389 
3184 
3131 
3126 
3003 
2924 
3010 
3086 
3049 
3001 
3043 
3145 
3165 
3054 
3071 
3156 
3161 
3072 
3082 
3166 
3194 
3133 
3111 
3186 
3213 
3161 
3091 
3130 
3188 
3176 
3115 
3155 
3228 
3193 
3136 
3143 
3225 
3210 
3145 
3128 
3244 
3250 
3185 
3176 
3278 
3308 
3302 
3253 
3295 
3346 
3310 
3272 
3347 
3393 
3360 
3343 
3391 
3460 
3451 
3396 
3416 
3538 
3521 
3447 
3462 
3534 
3539 
3470 
3505 
3551 
3494 
3411 
3346 
3395 
3407 
3303 
3239 
3270 
3280 
3197 
3143 
3188 
3182 
3136 
3075 
3062 
3129 
3098 
3017 
3005 
3111 
3134 
3077 
3042 
3113 
3133 
3049 
3005 
3087 
3115 
3036 
2992 
3046 
3100 
3079 
3029 
3030 
3101 
3069 
2997 
2985 
3095 
3086 
3025 
2989 
3062 
3089 
3038 
3000 
3061 
3088 
3028 
2991 
3050 
3085 
3007 
2943 
3005 
3077 
3034 
2959 
2993 
3086 
3030 
2970 
3020 
3062 
3018 
2974 
2961 
3018 
3023 
2963 
2928 
2996 
3035 
3009 
2925 
2998 
3053 
3022 
2934 
2976 
3024 
2998 
2938 
2946 
3036 
3015 
2944 
2966 
3041 
3016 
2949 
2930 
3003 
3033 
2959 
2940 
3032 
3051 
2975 
2925 
2988 
3069 
2997 
2904 
2948 
3030 
2986 
2908 
2927 
3009 
3022 
2986 
2954 
3008 
3021 
2934 
2908 
3004 
3012 
2941 
2923 
3008 
3071 
2990 
2927 
2984 
3039 
3020 
2973 
2992 
3055 
3014 
2984 
3034 
3076 
3054 
2971 
2957 
3029 
3020 
2953 
2939 
3033 
2978 
2905 
2874 
2944 
2972 
2929 
2881 
2926 
3010 
2940 
2842 
2918 
2991 
2925 
2861 
2872 
2981 
3034 
3077 
3146 
3297 
3325 
3171 
2985 
2920 
2894 
2828 
2859 
2937 
2961 
2908 
2895 
2977 
3032 
3006 
2891 
2908 
3005 
2984 
2872 
2899 
2985 
2987 
2934 
2931 
3004 
2989 
2957 
2923 
3021 
3075 
2996 
2951 
2991 
3063 
3059 
2988 
3012 
3069 
3031 
2976 
3032 
3116 
3111 
3053 
3030 
3111 
3108 
3044 
3054 
3142 
3198 
3103 
3060 
3155 
3236 
3171 
3130 
3211 
3272 
3214 
3167 
3235 
3315 
3265 
3212 
3250 
3351 
3324 
3266 
3271 
3340 
3309 
3228 
3198 
3229 
3176 
3078 
3029 
3094 
3080 
2998 
2955 
2972 
3022 
3007 
2956 
2958 
3020 
2982 
2879 
2904 
3010 
2984 
2924 
2917 
3006 
2986 
2912 
2905 
3004 
3009 
2968 
2936 
2996 
3019 
2962 
2916 
2988 
3049 
3002 
2953 
2996 
3073 
3049 
2921 
2951 
3044 
3021 
2938 
2967 
3040 
3056 
2979 
2958 
3105 
3126 
2948 
2911 
2993 
3023 
2965 
2938 
3001 
3078 
3016 
2925 
2969 
3061 
3023 
2933 
3438 
3900 
3565 
3343 
3239 
3253 
3219 
3114 
3098 
3159 
3170 
3111 
3053 
3106 
3147 
3085 
3028 
3064 
3119 
3071 
3039 
3099 
3137 
3065 
2992 
3010 
3100 
3079 
3011 
3032 
3107 
3100 
3046 
3015 
3078 
3090 
2986 
2969 
3040 
3094 
3052 
2974 
3038 
3096 
3061 
2984 
3015 
3111 
3123 
2996 
3015 
3111 
3082 
3026 
2975 
3061 
3070 
3010 
2967 
3054 
3117 
3027 
2984 
3064 
3094 
3058 
2990 
3045 
3089 
3052 
2990 
3036 
3113 
3077 
3012 
3024 
3119 
3114 
3030 
3021 
3116 
3080 
3006 
2998 
3103 
3115 
3033 
2985 
3061 
3110 
3051 
2991 
3072 
3125 
3056 
3007 
3055 
3162 
3087 
3027 
3042 
3135 
3122 
3055 
3027 
3116 
3137 
3073 
3042 
3114 
3167 
3149 
3060 
3075 
3180 
3150 
3115 
3163 
3216 
3181 
3122 
3165 
3218 
3204 
3117 
3105 
3190 
3182 
3066 
3031 
3110 
3120 
3064 
3039 
3095 
3153 
3104 
3030 
3081 
3137 
3101 
3012 
3022 
3091 
3076 
3076 
3220 
3363 
3373 
3361 
3352 
3385 
3227 
3089 
3020 
3100 
3154 
3106 
3075 
3133 
3209 
3169 
3093 
3125 
3195 
3138 
3068 
3103 
3167 
3151 
3126 
3128 
3258 
3236 
3082 
3101 
3206 
3228 
3158 
3120 
3219 
3271 
3196 
3135 
3230 
3270 
3196 
3145 
3222 
3303 
3251 
3189 
3216 
3311 
3266 
3208 
3257 
3363 
3341 
3274 
3260 
3387 
3400 
3289 
3288 
3399 
3446 
3404 
3373 
3447 
3509 
3442 
3401 
3481 
3566 
3547 
3454 
3494 
3245 
2662 
2886 
3041 
3172 
3193 
3137 
3133 
3173 
3184 
3093 
3067 
3123 
3142 
3075 
3045 
3115 
3136 
3070 
2972 
3041 
3111 
3075 
3031 
3061 
3141 
3109 
3042 
3067 
3128 
3113 
3064 
3046 
3118 
3164 
3047 
3010 
3097 
3158 
3109 
3044 
3108 
3186 
3133 
3047 
3093 
3164 
3135 
3111 
3120 
3127 
3126 
3066 
3090 
3164 
3150 
3074 
3061 
3152 
3234 
3810 
3778 
3578 
3494 
3360 
3259 
3305 
3342 
3277 
3206 
3186 
3248 
3246 
3129 
3150 
3223 
3193 
3130 
3127 
3187 
3184 
3134 
3077 
3172 
3223 
3102 
3069 
3119 
3169 
3102 
3056 
3124 
3187 
3138 
3084 
3106 
3182 
3152 
3058 
3094 
3165 
3129 
3065 
3052 
3138 
3142 
3071 
3039 
3108 
3143 
3114 
3041 
3099 
3126 
3080 
3028 
3057 
3105 
3069 
3027 
3047 
3129 
3089 
3026 
3043 
3123 
3111 
3076 
3104 
3125 
3076 
3021 
2994 
3075 
3112 
3037 
2989 
3069 
3122 
3069 
2998 
3053 
3145 
3092 
2993 
3046 
3144 
3099 
3025 
3029 
3131 
3088 
