12551.599747133227,12537.831072548757,12494.200467371997,12476.341423552207,12425.960591549945,12395.919847002013,12398.780870292292,12404.659379084038,12357.072515138689,12356.960756416413,12364.15801813102,12350.702267968925,12318.33694199764,12307.228125003354,12319.029846075755,12332.306782282209,12297.616874887572,12319.409825731496,12335.212509061397,12323.433139733452,12330.518642725783,12285.47987764834,12321.980276343857,12349.182349345965,12320.147433298522,12303.942418568424,12338.028828862767,12345.87429116658,12327.903488624514,12294.219409730365,12289.883171306035,12348.176520845476,12340.264003308297,12302.802479601203,12316.168822785476,12338.878195152069,12346.768360944792,12326.160052557,12329.19988980292,12348.400038290029,12364.850922209136,12341.269831808786,12310.066796549178,12332.418541004485,12338.520567240783,12307.563401170184,12276.494476377306,12320.594468187628,12346.008401633311,12357.720715727892,12320.192136787431,12327.612915946595,12351.261061580308,12340.86750040859,12291.313682951175,12311.698473894416,12337.023000362278,12331.323305526175,12334.497253238827,12354.122084870587,12347.953003400924,12338.654677707515,12308.077491292655,12306.132889525044,12306.378758714052,12286.373947426551,12318.113424553088,12306.177593013954,12325.355389756607,12345.941346399946,12318.560459442195,12296.611046387083,12317.91225885299,12328.059950835699,12324.371913000574,12287.71505209387,12313.53131693975,12323.611953689093,12311.385549472041,12286.709223593381,12298.28742722123,12312.301970994708,12301.14845051151,12283.021185758256,12268.604310584584,12261.317641892152,12302.690720878927,12285.390470670518,12318.269886764276,12330.004552603312,12326.987067101845,12296.879267320546,12276.114496721566,12328.082302580155,12329.19988980292,12341.046314364234,12324.930706611956,12345.941346399946,12346.567195244694,12346.544843500238,12325.847128134625,12298.935627810435,12316.928782096957,12333.9608113719,12335.056046850212,12301.14845051151,12328.864613636091,12369.410678078018,12347.997706889833,12335.234860805853,12350.769323202292,12362.436933807961,12344.287317310253,12376.45147758144,12420.059731013744,12418.986847279888,12392.634140567083,12348.757666201314,12376.250311881342,12380.899474728045,12352.557462758716,12365.454419309428,12376.853808981636,12397.082137713687,12426.117053761132,12378.820762493702,12383.581684062683,12385.079250941188,12340.666334708492,12283.132944480532,12281.657729346482,12310.692645393927,12305.887020336035,12300.67906387795,12294.420575430462,12313.53131693975,12316.347636741119,12289.391432928018,12278.684947333926,12288.743232338815,12259.887130247012,12293.951188796902,12314.157165784498,12327.411750246496,12331.524471226272,12320.505061209806,12350.054067379722,12411.566068120726,12452.112132562654,12510.405482102095,12527.504566610405,12497.195601129008,12500.526011052849,12584.34505276025,12653.50135010497,12491.406499315084,12308.457470948395,12316.0570640632,12349.405866790517,12324.126043811566,12343.996744632334,12370.483561811872,12368.740125744358,12348.668259223494,12348.131817356565,12378.664300282515,12357.608957005616,12354.479712781873,12391.047166710756,12393.617617323116,12401.105451715643,12375.69151826996,12394.019948723311,12406.045187240266,12389.191971920965,12369.701250755938,12417.22105946792,12431.436768941496,12429.64862938507,12422.31725720373,12427.547565406272,12423.41249268204,12420.59617288067,12453.296775018785,12445.65247841507,12461.410458256061,12460.628147200126,12447.93235634951,12443.618469669638,12444.400780725573,12469.61354847116,12482.309339321773,12491.674720248548,12539.82037780528,12552.024430277877,12541.228537705963,12531.930212012556,12570.643433409148,12585.306177771829,12583.071003326299,12560.093410026242,12627.707437003546,12685.978434798531,12663.514931620948,12627.796843981367,12673.237940459006,12740.159063358196,12747.065752394887,12737.633316234746,12762.309642113405,12797.290122185961,12827.800253367455,12827.353218478349,12779.67694755518,12784.996662735542,12775.7653922755,12715.639199690724,12643.68893428909,12658.731658307512,12617.11271013173,12590.134154574174,12541.608517361703,12512.864173992179,12505.264580877374,12458.482379732417,12429.26864972933,12422.294905459274,12407.74391981887,12416.326989689707,12396.992730735867,12368.985994933368,12377.1220299151,12377.367899104107,12347.081285367167,12324.327209511663,12359.039468650755,12366.25908210982,12365.409715820519,12330.205718303409,12341.426294019973,12328.797558402724,12327.29999152422,12318.895735609023,12342.700343453926,12352.691573225447,12336.397151517529,12328.641096191537,12338.833491663157,12339.973430630378,12321.15326179901,12326.271811279275,12323.589601944639,12312.503136694806,12331.971506115378,12329.736331669848,12328.01524734679,12354.345602315141,12349.87525342408,12350.72461971338,12320.035674576244,12330.29512528123,12330.429235747963,12351.998669147333,12325.780072901258,12320.192136787431,12331.144491570532,12344.287317310253,12316.548802441217,12332.597354960128,12346.254270822319,12361.252291351831,12354.122084870587,12367.8684077106,12365.789695476258,12348.936480156957,12334.921936383478,12341.985087631356,12359.955890173424,12350.992840646844,12323.164918799988,12372.606977535126,12384.609864307628,12337.738256184848,12332.083264837654,12338.878195152069,12377.099678170644,12397.864448769624,12379.647777038548,12360.246462851343,12381.614730550615,12399.630236581594,12381.234750894875,12323.38843624454,12346.008401633311,12380.251274138842,12373.568102546706,12353.697401725936,12374.238654880364,12387.78381202028,12388.409660865029,12350.702267968925,12369.254215866831,12387.806163764735,12360.335869829163,12326.383570001552,12387.113259686621,12422.049036270266,12389.057861454232,12378.753707260335,12407.252181440852,12423.658361871048,12405.665207584527,12357.340736072152,12345.986049888856,12390.533076588283,12385.906265486034,12388.074384698199,12370.416506578507,12409.59911460866,12418.137480990586,12378.97722470489,12387.180314919988,12368.807180977725,12407.967437263422,12412.773062321314,12394.802259779246,12410.515536131328,12438.142292278088,12438.477568444916,12419.590344380182,12412.0801582432,12466.774876925336,12451.620394184638,12433.627239898115,12434.99069630989,12508.103252423198,12520.329656640251,12524.688246809035,12498.156726140587,12470.37350778264,12486.71263297947,12483.136353866621,12476.073202618743,12499.497830807904,12515.747549026913,12496.010958672878,12490.46772604796,12505.555153555293,12507.23153438944,12476.27436831884,12434.45425444296,12404.815841295223,12440.84685335718,12454.459065730462,12442.07619930222,12417.422225168017,12469.434734515517,12453.229719785419,12454.03438258581,12438.097588789176,12443.685524903003,12473.100420606188,12459.55526346627,12414.941181533479,12410.895515787068,12452.067429073744,12419.277419957807,12465.858455402667,12480.789420698813,12531.326714912262,12550.72802909947,12582.914541115111,12636.804596996857,12645.253556400963,12601.332378546284,12633.45183532856,12695.880257592233,12648.136931435696,12485.9973771569,12419.635047869093,12439.975135323422,12476.363775296662,12462.41628675655,12460.091705333198,12457.32008902074,12463.019783856844,12453.475588974428,12417.265762956831,12407.162774463031,12475.313243307262,12492.52408653785,12475.38029854063,12455.353135508674,12467.37837402563,12486.556170768283,12449.765199394848,12440.51157719035,12483.18105735553,12473.860379917667,12468.540664737304,12476.833161930224,12469.94882463799,12476.98962414141,12468.138333337109,12473.905083406578,12474.03919387331,12472.56397873926,12474.061545617766,12475.760278196369,12473.212179328464,12520.463767106983,12540.982668516956,12509.578467557249,12474.575635740237,12508.326769867752,12494.871019705657,12510.0031507019,12484.164534111564,12484.097478878199,12546.682363353058,12555.53365415736,12580.120573058197,12559.9145960706,12605.243933825963,12649.679201803114,12629.853204471256,12598.806631422834,12642.794864510879,12657.144684451187,12654.12719894972,12670.17575146863,12679.60818762877,12674.511989892959,12707.860792620277,12687.006615043476,12665.303071177374,12711.213554288574,12691.968702312553,12607.59086699377,12594.06806159831,12594.269227298408,12533.852462035711,12473.189827584009,12454.906100619568,12456.202501797976,12419.70210310246,12409.59911460866,12368.40484957753,12342.812102176202,12319.096901309122,12303.942418568424,12311.542011683228,12310.871459349568,12289.078508505645,12309.843279104625,12244.643240528494,12254.61211855556,12326.405921746007,12273.655804831482,12249.202996397376,12276.494476377306,12282.708261335882,12246.409028340464,12236.641316013494,12261.0941244476,12238.205938125366,12214.51308900274,12243.927984705924,12271.174761196944,12287.893866049513,12271.152409452488,12240.84344397109,12257.383734868019,12318.403997231007,12296.14165975352,12285.166953225966,12285.14460148151,12282.28357819123,12282.708261335882,12293.258284718786,12282.082412491132,12279.444906645407,12333.312610782697,12335.413674761496,12315.230049518354,12326.048293834721,12329.15518631401,12336.575965473172,12317.1075960526,12310.469127949373,12381.63708229507,12352.378648803075,12325.847128134625,12334.854881150113,12353.295070325741,12368.78482923327,12363.040430908255,12324.617782189582,12330.406884003507,12367.06374491021,12345.628421977572,12309.060968048689,12349.49527376834,12371.154114145531,12340.956907386411,12324.371913000574,12349.852901679624,12379.200742149442,12351.417523791495,12330.920974125978,12345.15903534401,12350.478750524373,12329.266945036286,12315.542973940728,12315.654732663004,12384.565160818716,12384.54280907426,12349.092942368145,12343.281488809764,12356.580776760671,12316.906430352501,12304.456508690895,12271.107705963577,12270.727726307838,12324.662485678493,12333.849052649624,12293.034767274234,12296.298121964708,12363.487465797361,12328.81991014718,12272.851142031092,12283.445868902907,12259.551854080184,12263.150484937489,12310.20090701591,12318.62751467556,12338.364105029596,12327.143529313033,12282.462392146874,12276.226255443842,12294.353520197097,12277.075621733144,12304.970598813368,12298.265075476775,12308.010436059289,12281.344804924109,12297.549819654205,12293.034767274234,12295.024072530756,12364.314480342207,12399.83140228169,12380.653605539037,12378.127858415588,12380.720660772404,12380.608902050126,12390.30955914373,12415.142347233575,12423.568954893228,12401.127803460098,12372.15994264602,12395.808088279735,12447.261804015852,12416.59521062317,12387.895570742558,12360.045297151244,12405.128765717598,12388.588474820672,12358.950061672935,12323.611953689093,12379.133686916077,12389.773117276802,12363.219244863898,12377.837285737669,12380.787716005769,12390.242503910364,12388.364957376118,12342.968564387389,12348.981183645867,12360.581739018171,12328.372875258074,12312.704302394905,12343.505006254318,12354.166788359498,12362.615747763604,12331.099788081621,12361.92284368549,12429.492167173883,12477.906045664078,12507.835031489734,12524.442377620027,12473.368641539651,12455.196673297487,12546.43649416405,12594.06806159831,12473.078068861732,12335.324267783675,12382.77702126229,12396.679806313492,12392.12005044461,12402.960646505433,12440.600984168172,12432.330838719707,12443.596117925183,12457.141275065098,12454.682583175014,12437.65055390007,12480.968234654456,12512.595953058715,12499.85545871919,12463.08683909021,12503.543496554315,12564.340241472752,12570.039936308855,12550.43745642155,12524.151804942108,12572.38686947666,12584.546218460348,12586.893151628155,12597.756099433434,12612.26238158493,12617.917372932121,12577.214846279008,12575.605520678226,12613.223506596507,12641.096131932276,12611.16714610662,12579.539427702359,12611.614180995724,12624.73465499099,12643.174844166619,12624.488785801983,12625.02522766891,12604.68514021458,12644.02421045592,12663.961966510054,12634.345905106773,12663.425524643128,12709.738339154523,12683.27387371944,12660.832722286312,12705.46915596356,12724.579897472848,12706.542039697415,12712.577010700346,12754.777104231967,12789.645825582245,12783.81202027941,12763.918967714188,12770.736249773056,12783.81202027941,12788.215313937106,12793.490325628558,12776.458296353614,12790.785764549466,12780.414555122205,12702.98811232902,12689.219437744552,12674.511989892959,12631.998971938965,12584.099183571243,12546.972936030978,12542.502587139916,12522.967162485977,12488.724289980448,12453.229719785419,12440.22100451243,12431.235603241397,12414.40473966655,12364.560349531217,12396.366881891117,12442.836158613702,12444.065504558743,12412.057806498744,12387.135611431077,12404.033530239289,12394.69050105697,12353.607994748116,12379.983053205378,12426.474681672416,12418.338646690685,12404.324102917208,12371.377631590085,12413.667132099526,12433.359018964651,12393.572913834205,12402.69242557197,12440.086894045699,12436.085931788199,12410.716701831425,12401.463079626928,12440.064542301243,12434.409550954051,12448.580556938716,12417.511632145839,12427.324047961718,12460.047001844288,12438.611678911648,12401.284265671286,12459.175283810531,12463.37741176813,12450.167530795043,12440.422170212529,12417.93631529049,12448.245280771886,12469.479438004428,12433.671943387026,12438.79049286729,12466.41724901405,12473.65921421757,12455.978984353422,12444.154911536565,12472.742792694902,12485.259769589875,12453.542644207793,12440.17630102352,12482.309339321773,12485.66210099007,12475.335595051718,12441.673867902025,12479.940054409512,12464.0926675907,12459.823484399734,12427.480510172905,12435.013048054345,12462.349231523185,12450.659269173058,12452.000373840378,12491.585313270727,12495.250999361397,12482.219932343953,12452.9391471075,12420.9314490475,12453.922623863535,12465.098496091188,12424.0830450157,12434.610716654148,12485.304473078784,12494.535743538827,12465.098496091188,12416.461100156439,12419.657399613548,12415.477623400406,12423.188975237486,12416.326989689707,12457.811827398757,12476.766106696858,12444.378428981117,12403.139460461076,12405.93342851799,12446.07716155972,12457.744772165392,12421.356132192152,12427.346399706174,12452.335650007208,12469.010051370866,12430.006257296356,12436.912946333045,12473.368641539651,12481.683490477026,12453.855568630168,12441.159777779554,12468.98769962641,12459.264690788352,12475.939092152012,12474.061545617766,12507.633865789638,12515.747549026913,12472.251054316886,12419.433882168994,12457.32008902074,12523.637714819637,12529.896203267122,12500.101327908198,12485.349176567695,12500.749528497403,12490.490077792416,12485.550342267794,12499.006092429889,12520.866098507178,12516.596915316215,12536.266450436886,12546.838825564246,12530.76792130088,12517.155708927598,12530.589107345237,12541.250889450419,12553.47729366747,12557.344145458239,12546.280031952863,12521.179022929553,12532.399598646118,12518.943848484023,12502.828240731746,12470.03823161581,12442.299716746775,12436.443559699484,12443.685524903003,12397.462117369429,12385.995672463856,12452.402705240573,12458.012993098855,12408.414472152528,12407.319236674219,12406.156945962543,12428.396931695574,12411.499012887361,12391.002463221845,12411.633123354093,12391.293035899764,12384.162829418521,12407.0286639963,12435.281268987808,12508.99732220141,12519.614400817682,12515.389921115628,12604.796898936856,12615.391625808672,12534.902994025111,12528.24217417743,12647.712248291045,12666.532417122415,12480.454144531983,12297.952151054402,12384.721623029904,12503.878772721146,12467.423077514539,12443.953745836467,12425.31239096074,12429.335704962696,12447.999411582878,12430.833271841202,12401.396024393562,12438.231699255908,12440.086894045699,12436.711780632948,12419.188012979987,12433.180205009008,12438.321106233729,12436.644725399581,12396.433937124484,12431.280306730308,12473.189827584009,12496.703862750992,12496.413290073073,12514.317037381774,12511.120737924664,12513.445319348017,12459.823484399734,12459.55526346627,12540.021543505376,12526.744607298924,12487.383185313129,12489.260731847375,12544.983630774455,12570.710488642513,12557.411200691606,12545.520072641382,12566.82128510729,12565.904863584623,12557.791180347345,12569.749363630935,12611.435367040083,12623.17003287912,12623.661771257135,12627.796843981367,12656.049448972875,12689.55471391138,12704.329216996339,12682.17863824113,12712.08527232233,12773.999604463532,12785.689566813657,12780.794534777944,12802.073395499398,12845.458131487148,12852.87891064631,12814.076282271897,12802.319264688405,12880.148038881784,12891.569780298447,12864.010079385052,12811.86345957082,12798.966503020109,12784.214351679606,12736.560432500892,12709.850097876799,12704.329216996339,12678.26708296145,12617.40328280965,12560.33927921525,12567.603596163226,12555.9136338131,12546.570604630782,12520.57552582926,12520.977857229454,12527.929249755056,12516.61926706067,12484.902141678589,12444.445484214484,12458.549434965782,12448.267632516341,12471.513446749861,12495.09453715021,12503.85642097669,12512.484194336439,12470.440563016005,12463.690336190502,12511.590124558226,12504.549325054804,12446.054809815265,12427.972248550923,12480.61060674317,12459.376449510628,12459.912891377557,12478.710708464469,12478.66600497556,12480.051813131788,12458.214158798954,12476.877865419134,12466.774876925336,12445.36190573715,12467.154856581075,12480.968234654456,12462.013955356355,12467.333670536718,12457.141275065098,12425.64766712757,12401.999521493855,12440.623335912625,12445.965402837444,12423.010161281843,12437.471739944427,12473.078068861732,12488.903103936089,12478.509542764372,12438.164644022543,12464.159722824064,12468.540664737304,12453.229719785419,12411.610771609638,12436.801187610768,12504.303455865796,12475.581464240726,12419.657399613548,12438.030533555811,12491.85353420419,12516.19458391602,12497.217952873463,12429.916850318534,12445.384257481606,12456.783647153814,12429.670981129526,12431.950859063967,12473.435696773016,12487.986682413422,12497.262656362374,12470.887597905112,12493.75343248289,12482.130525366132,12451.240414528897,12466.976042625432,12496.703862750992,12465.523179235839,12466.797228669791,12483.628092244637,12485.617397501159,12487.561999268772,12470.239397315909,12479.314205564762,12514.875830993156,12513.579429814748,12491.227685359441,12475.313243307262,12442.299716746775,12480.163571854064,12507.499755322904,12482.644615488603,12489.685414992025,12508.438528590028,12479.224798586942,12474.642690973604,12444.84781561468,12473.70391770648,12551.331526199761,12536.937002770544,12503.074109920753,12514.42879610405,12520.039083962332,12518.228592661453,12487.718461479959,12488.701938235992,12532.578412601759,12532.354895157207,12511.366607113672,12492.457031304482,12498.268484862863,12510.919572224568,12551.577395388771,12545.363610430195,12570.06228805331,12565.658994395613,12547.844654064735,12536.512319625894,12559.95929955951,12597.018491866409,12587.29548302835,12544.782465074357,12562.663860638602,12560.406334448617,12577.39366023465,12638.816253997835,12675.026080015432,12670.17575146863,12645.387666867695,12609.78133795039,12619.727864233002,12646.237033156996,12630.210832382541,12623.773529979413,12609.535468761382,12641.766684265935,12622.432425312094,12617.78326246539,12604.282808814385,12610.742462961969,12586.356709761229,12573.72797414398,12560.160465259609,12579.762945146913,12606.562686748826,12575.337299744762,12546.280031952863,12555.041915779342,12574.040898566354,12572.051593309832,12556.941814058044,12572.29746249884,12591.385852263673,12574.219712521997,12553.410238434106,12572.72214564349,12583.428631237583,12590.15650631863,12631.9319167056,12682.670376619146,12750.463217552093,12793.445622139649,12791.81394479441,12701.065862305864,12718.23200204754,12823.218145754117,12841.501872718558,12683.922074308644,12564.183779261564,12591.408204008128,12668.924053779132,12652.27200415993,12676.054260260375,12693.868600591255,12676.523646893937,12657.479960618015,12660.944481008588,12672.522684636437,12666.755934566967,12673.796734070389,12683.452687675082,12686.425469687638,12718.813147403378,12699.814164616368,12691.052280789887,12705.715025152567,12726.435092262638,12710.498298466004,12705.580914685836,12718.343760769816,12722.814109660878,12722.545888727414,12701.445841961604,12714.365150256772,12721.361246271283,12675.853094560278,12705.446804219104,12717.60615320279,12720.288362537429,12727.865603907778,12708.933676354132,12693.756841868979,12737.208633090095,12722.791757916422,12724.937525384132,12715.907420624188,12750.306755340906,12745.724647727568,12730.078426608852,12736.962763901087,12779.542837088447,12788.639997081757,12792.059813983418,12773.709031785613,12822.97227656511,12849.883776889299,12847.603898954858,12835.735122649088,12890.45219307568,12917.654266077789,12882.517323794047,12872.21316960015,12948.767894359577,12969.063278324997,12959.161455531295,12937.65907736529,12894.855486733377,12915.329684654438,12937.927298298753,12865.977032897119,12819.44070094117,12794.160877962218,12764.991851448041,12713.962818856577,12661.816199042345,12650.394457625684,12618.945553177065,12597.39847152215,12580.120573058197,12593.196343564552,12586.44611673905,12552.493816911438,12522.43072061905,12533.695999824526,12515.814604260278,12479.135391609121,12470.66408046056,12506.38216810014,12522.587182830237,12507.387996600628,12464.740868179902,12439.103417289665,12448.781722638812,12470.082935104721,12441.115074290643,12425.759425849847,12460.404629755572,12468.875940904134,12433.02374279782,12393.55056208975,12463.980908868421,12476.27436831884,12450.860434873157,12411.163736720531,12415.857603056145,12444.356077236662,12448.491149960893,12430.676809630015,12433.113149775643,12424.574783393715,12410.336722175685,12429.089835773688,12431.325010219218,12456.738943664903,12463.399763512583,12414.40473966655,12390.041338210267,12419.947972291468,12437.27057424433,12440.623335912625,12454.570824452738,12442.009144068856,12435.482434687905,12418.472757157417,12436.085931788199,12460.158760566565,12455.576652953227,12420.9314490475,12400.010216237333,12424.060693271244,12439.684562645503,12435.370675965629,12411.767233820825,12444.065504558743,12455.487245975406,12447.530024949316,12440.444521956984,12455.576652953227,12474.441525273505,12467.311318792263,12434.78953060979,12463.310356534763,12481.169400354553,12456.761295409358,12454.41436224155,12451.016897084344,12474.888560162612,12496.61445577317,12477.66017647507,12476.363775296662,12487.226723101941,12465.813751913758,12466.260786802863,12450.301641261774,12459.152932066076,12490.646540003603,12455.084914575209,12440.578632423716,12439.773969623324,12437.941126577989,12444.22196676993,12427.860489828647,12425.580611894204,12446.501844704371,12453.296775018785,12455.487245975406,12445.138388292598,12449.429923228017,12439.773969623324,12419.836213569191,12432.979039308912,12477.838990430713,12527.459863121494,12499.989569185922,12465.679641447025,12487.539647524316,12529.292706166829,12533.070150979776,12502.135336653631,12530.499700367416,12564.764924617402,12537.942831271033,12491.674720248548,12493.820487716257,12531.52788061236,12549.364572687695,12511.411310602583,12499.497830807904,12514.138223426131,12509.086729179231,12459.935243122012,12481.415269543562,12515.85930774919,12512.014807702877,12479.045984631299,12449.854606372668,12464.0926675907,12483.605740500181,12468.60771997067,12428.665152629037,12429.045132284777,12470.865246160656,12486.891446935111,12442.143254535587,12475.80498168528,12473.860379917667,12448.625260427627,12469.099458348688,12482.979891655434,12501.867115720168,12537.294630681828,12508.349121612207,12578.801820135335,12668.946405523588,12618.699683988058,12525.157633442597,12534.612421347192,12669.058164245864,12683.564446397359,12510.606647802193,12401.753652304847,12433.381370709107,12475.693222963004,12457.051868087277,12449.496978461382,12472.340461294707,12497.486173806927,12489.819525458757,12442.903213847067,12463.489170490406,12484.432755045029,12471.08876360521,12446.010106326356,12447.530024949316,12471.13346709412,12508.90791522359,12485.66210099007,12494.826316216746,12517.781557772347,12511.411310602583,12482.04111838831,12474.37447004014,12531.99726724592,12517.602743816704,12488.590179513714,12469.94882463799,12500.794231986312,12521.737816540935,12553.812569834301,12538.523976626871,12552.918500056088,12563.848503094734,12572.38686947666,12551.018601777389,12556.718296613491,12587.094317328254,12582.601616692737,12580.254683524929,12597.376119777695,12614.698721730558,12627.662733514635,12633.854166728755,12636.983410952498,12667.538245622904,12744.271784337972,12737.096874367819,12724.535193983937,12766.444714837637,12761.929662457665,12788.14825870374,12786.158953447219,12848.6320791998,12890.832172731421,12884.640739517301,12858.913881649243,12855.471713003126,12882.584379027412,12844.809930897944,12798.519468131002,12852.856558901854,12853.817683913432,12790.58459884937,12728.670266708168,12718.410816003183,12689.04062378891,12645.36531512324,12629.875556215711,12578.891227113156,12585.417936494105,12542.256717950908,12490.490077792416,12491.361795826173,12531.036142234343,12530.343238156229,12503.47644132095,12458.057696587766,12484.85743818968,12503.52114480986,12476.98962414141,12444.199615025474,12452.715629662947,12467.333670536718,12466.305490291774,12474.8438566737,12481.012938143365,12484.298644578295,12445.317202248241,12423.926582804512,12463.019783856844,12509.556115812793,12501.554191297793,12492.501734793394,12462.505693734372,12482.80107769979,12523.078921208255,12526.43168287655,12509.019673945866,12511.456014091495,12536.042932992332,12520.57552582926,12466.66311820306,12526.163461943086,12531.863156779189,12508.438528590028,12509.824336746256,12565.033145550866,12555.824226835279,12557.075924524775,12521.089615951732,12532.041970734832,12574.599692177737,12571.023413064888,12528.041008477332,12546.660011608603,12566.955395574021,12561.38981120465,12555.220729734985,12533.137206213141,12560.629851893169,12580.075869569288,12562.552101916326,12520.597877573715,12529.180947444553,12567.044802551844,12575.739631144957,12555.712468113003,12540.066246994287,12575.784334633869,12612.620009496213,12567.402430463128,12577.72893640148,12595.945608132555,12596.392643021662,12560.428686193072,12552.180892489063,12560.518093170893,12610.049558883853,12580.38879399166,12571.425744465083,12584.099183571243,12615.033997897388,12585.686157427568,12556.561834402304,12599.052500611842,12622.410073567638,12579.517075957905,12551.644450622136,12604.394567536661,12590.201209807541,12588.9718638625,12602.382910535684,12607.009721637933,12622.387721823183,12584.590921949259,12589.910637129622,12600.818288423812,12619.660808999635,12601.600599479747,12587.250779539441,12590.648244696647,12601.935875646577,12593.665730198114,12569.481142697472,12566.262491495907,12625.136986391186,12595.677387199092,12592.704605186535,12622.275963100907,12627.305105603351,12624.466434057527,12617.246820598462,12570.06228805331,12618.409111310139,12684.03383303092,12673.193236970095,12652.070838459831,12657.032925728909,12656.205911184063,12660.385687397205,12635.21762314053,12621.851279956256,12644.538300578393,12670.22045495754,12605.78037569289,12574.890264855656,12622.767701478924,12640.984373209998,12585.842619638755,12556.830055335768,12595.386814521173,12594.380986020684,12556.405372191117,12541.966145272989,12563.557930416815,12581.618139936703,12560.473389681983,12538.56868011578,12547.799950575823,12594.448041254049,12556.67359312458,12511.366607113672,12538.56868011578,12608.97667515,12631.551937049859,12596.01266336592,12613.268210085418,12691.27579823444,12712.621714189258,12724.602249217302,12778.134677187763,12818.390168951772,12760.186226390151,12732.537118498936,12823.888698087776,12929.076007494452,12820.49123293057,12625.964000936032,12574.95732008902,12625.271096857918,12650.148588436674,12642.16901566613,12645.231204656508,12637.586908052792,12673.684975348113,12665.705402577569,12648.248690157974,12660.944481008588,12673.640271859202,12663.514931620948,12675.540170137903,12699.165964027163,12714.588667701324,12693.37686221324,12662.799675798378,12689.8452865893,12735.733417956046,12710.207725788085,12686.023138287443,12680.368146940249,12696.12612678124,12701.334083239328,12741.433112792149,12707.860792620277,12726.94918238511,12744.182377360152,12725.652781206702,12696.282588992428,12716.555621213392,12782.783840034466,12764.589520047846,12709.850097876799,12760.432095579159,12801.693415843656,12783.610854579312,12792.596255850347,12793.758546562023,12825.565078921925,12831.711808647135,12855.248195558572,12884.439573817202,12912.915696253265,12938.106112254396,12937.927298298753,12910.32289389645,12929.523042383558,13002.166211863305,13006.345988076448,12998.589932750456,13064.505227149157,13080.01733780114,13074.295291220582,13038.756017536643,13070.942529552285,13094.814192630552,13074.317642965038,13039.828901270497,13023.512127818123,13002.233267096672,12964.078839311462,12926.930240026742,12889.35695759737,12853.437704257693,12807.504869402037,12765.19301714814,12747.80335996191,12763.494284569537,12739.779083702457,12701.959932084077,12652.584928582302,12657.949347251577,12653.009611726953,12636.916355719133,12647.958117480055,12648.874539002722,12623.393550323672,12605.355692548239,12577.550122445837,12596.839677910768,12631.149605649663,12607.814384438323,12566.329546729274,12581.931064359078,12598.180782578085,12564.697869384036,12570.017584564399,12585.105012071732,12592.995177864454,12565.927215329077,12550.415104677095,12536.445264392527,12562.775619360878,12571.090468298253,12555.511302412904,12536.400560903618,12552.136189000154,12588.077794084287,12549.67749711007,12522.207203174497,12559.109933270209,12606.965018149021,12606.987369893477,12559.422857692583,12584.34505276025,12615.145756619664,12607.59086699377,12564.027317050377,12581.39462249215,12601.44413726856,12600.862991912723,12592.905770886633,12578.421840479594,12564.29553798384,12575.136134044664,12586.356709761229,12571.224578764984,12635.865823729733,12637.653963286159,12605.266285570418,12574.934968344567,12589.86593364071,12609.647227483658,12604.7745471924,12583.898017871144,12637.229280141508,12641.11848367673,12620.39841656666,12621.78422472289,12625.606373024748,12637.609259797247,12618.744387476969,12608.864916427723,12631.842509727778,12698.428356460137,12684.07853651983,12673.03677475891,12662.777324053923,12675.093135248797,12703.859830362777,12671.89683579169,12629.003838181954,12685.866676076255,12722.344723027316,12699.009501815975,12676.590702127303,12713.359321756283,12727.820900418867,12704.239810018518,12691.566370912358,12713.962818856577,12740.315525569384,12749.8597204518,12723.574068972359,12749.390333818237,12762.913139213699,12751.804322219412,12703.099871051298,12700.507068694482,12750.440865807637,12764.030726436464,12732.917098154676,12726.792720173922,12775.497171342036,12778.33584288786,12756.05115366592,12756.006450177008,12767.115267171297,12764.433057836659,12773.150238174228,12784.616683079801,12808.756567091534,12828.135529534286,12806.521392646002,12778.469953354592,12761.236758379551,12787.656520325723,12798.877096042288,12755.782932732456,12771.943243973643,12818.703093374144,12807.34840719085,12756.945223444132,12726.32333354036,12749.390333818237,12771.205636406617,12723.551717227903,12699.65770240518,12747.445732050626,12745.679944238656,12727.217403318573,12690.51583892296,12728.223231819062,12750.664383252191,12725.161042828686,12700.909400094677,12725.742188184524,12768.948110216632,12773.329052129871,12741.768388958979,12725.89865039571,12751.536101285947,12788.10355521483,12801.20167746564,12836.986820338587,12933.166376729772,12962.313051499494,12889.535771553014,12828.515509190025,12876.705870235666,12979.546246474534,12972.214874293193,12746.484607039049,12687.364242954762,12763.360174102805,12799.905276287232,12781.554494089425,12807.236648468572,12796.48545938557,12798.050081497442,12796.44075589666,12792.596255850347,12787.634168581268,12827.219108011617,12804.263866456016,12795.501982629536,12798.966503020109,12794.831430295877,12782.694433056646,12772.770258518489,12778.067621954397,12787.611816836814,12821.720578875611,12796.06077624092,12807.795442079956,12829.610744668335,12806.074357756897,12796.44075589666,12838.819663383922,12871.49791377758,12856.902224648265,12823.553421920948,12837.076227316407,12850.129646078307,12857.751590937567,12839.44551222867,12844.586413453391,12861.30551830596,12869.195684098684,12873.844846945387,12854.108256591351,12900.130498424829,12917.60956258888,12877.21996035814,12909.652341562789,12955.920452585275,12952.701801383711,12939.715437855177,12946.264498980583,13001.987397907664,13029.703561032244,13030.06118894353,13032.206956411239,13059.207863713249,13042.377000138404,13056.369192167425,13038.934831492286,13057.06209624554,13102.905524123375,13081.44784944628,13051.474160131713,13058.358497423947,13058.872587546419,13008.424700310792,12948.902004826308,12925.767949315066,12912.133385197329,12855.315250791939,12797.044252996953,12775.29600564194,12753.52540654247,12727.731493441046,12685.307882464873,12679.541132395403,12727.217403318573,12726.99388587402,12677.574178883337,12641.230242399008,12640.425579598616,12669.594606112792,12648.539262835893,12596.63851221067,12605.623913481702,12661.659736831158,12646.684068046103,12628.31093410384,12629.540280048881,12641.721980777023,12648.338097135795,12599.521887245404,12590.022395851898,12606.719148960014,12592.436384253071,12585.462639983016,12604.34986404775,12622.11950088972,12618.967904921521,12621.337189833785,12621.761872978435,12621.605410767248,12636.066989429832,12634.390608595682,12623.728826490502,12613.156451363142,12626.45573931405,12652.093190204287,12640.246765642974,12654.529530349915,12645.231204656508,12613.938762419077,12626.925125947611,12636.670486530124,12654.037791971898,12641.006724954454,12619.392588066172,12586.06613708331,12626.45573931405,12644.40419011166,12606.249762326452,12579.315910257807,12592.995177864454,12618.409111310139,12617.425634554105,12601.265323312919,12602.762890191423,12608.909619916632,12600.304198301339,12570.82224736479,12577.505418956927,12627.17099513662,12591.072927841298,12610.45189028405,12669.818123557345,12654.864806516744,12614.45285254155,12571.20222702053,12610.474242028504,12629.540280048881,12592.212866808519,12589.240084795963,12609.468413528015,12665.12425722173,12641.006724954454,12634.994105695976,12617.246820598462,12628.154471892653,12625.718131747024,12629.808500982344,12617.917372932121,12607.702625716047,12609.758986205934,12636.424617341116,12642.54899532187,12658.016402484942,12693.734490124523,12695.567333169858,12653.70251580507,12671.628614858224,12734.23585107754,12753.592461775836,12708.263124020474,12680.837533573811,12695.32146398085,12709.850097876799,12698.651873904691,12710.140670554718,12722.925868383154,12684.860847575766,12670.443972402094,12678.758821339468,12687.096022021296,12683.229170230528,12653.50135010497,12635.709361518546,12661.8385507868,12640.336172620795,12613.938762419077,12618.297352587862,12694.785022113923,12687.051318532387,12664.45370488807,12629.808500982344,12645.678239545614,12647.242861657485,12654.641289072191,12641.699629032568,12645.030038956409,12698.785984371423,12685.12906850923,12687.811277843866,12712.487603722526,12749.90442394071,12797.96067451962,12831.130663291297,12778.872284754789,12734.101740610808,12746.104627383307,12873.889550434298,12887.479411063125,12739.890842424733,12631.417826583127,12683.36328069726,12645.320611634328,12644.672411045125,12668.499370634481,12641.163187165641,12701.870525106255,12748.004525662009,12714.990999101521,12705.312693752372,12675.294300948895,12680.055222517876,12740.896670925222,12742.37188605927,12698.115432037763,12689.219437744552,12736.158101100697,12722.970571872065,12709.291304265416,12727.440920763127,12766.95880496011,12777.44177310965,12759.403915334215,12720.333066026338,12723.261144549984,12769.551607316926,12743.578880259858,12709.157193798685,12770.579787561868,12810.187078736673,12820.088901530375,12772.971424218587,12782.917950501198,12798.787689064466,12863.36187879585,12846.463959987637,12833.25407901455,12866.491123019592,12875.87885569082,12883.07611740543,12876.772925469033,12898.02943444603,12895.92837046723,12932.451120907202,12942.17412974526,12972.304281271015,13031.938735477774,13041.81820652702,13028.898898231853,13065.175779482815,13092.489611207202,13080.084393034505,13070.026108029619,13124.005570889185,13142.132835642438,13136.07551289505,13100.893867122397,13082.923064580329,13091.193210028794,13081.336090724004,13052.032953743095,13014.43731956927,12989.783345435066,12959.85435960941,12918.324818411449,12858.511550249046,12839.691381417679,12839.870195373322,12811.841107826365,12782.403860378727,12800.084090242874,12755.179435632162,12716.779138657945,12708.03960657592,12738.773255201968,12723.37290327226,12693.37686221324,12672.299167191884,12696.528458181438,12730.681923709146,12713.60519094529,12678.602359128281,12681.75395509648,12709.09013856532,12702.362263484272,12669.527550879426,12643.063085444343,12684.972606298043,12709.268952520963,12695.41087095867,12672.679146847624,12704.03864431842,12731.307772553895,12723.261144549984,12691.365205212262,12713.918115367665,12701.021158816953,12682.804487085878,12667.247672944985,12687.878333077233,12706.877315864243,12694.852077347288,12661.100943219775,12689.510010422471,12708.777214142945,12684.03383303092,12707.860792620277,12706.98907458652,12726.457444007094,12713.493432223015,12678.043565516899,12670.332213679816,12694.919132580655,12694.762670369468,12685.240827231506,12659.715135063547,12693.019234301953,12703.569257684858,12680.278739962429,12637.430445841605,12659.536321107904,12714.789833401423,12729.51963299747,12682.692728363601,12710.073615321353,12719.126071825753,12708.240772276018,12650.707382048056,12669.79577181289,12721.763577671478,12714.812185145878,12669.482847390515,12635.664658029636,12701.155269283685,12725.652781206702,12696.75197562599,12691.096984278796,12704.686844907625,12713.627542689746,12701.98228382853,12669.92988227962,12710.252429276996,12709.425414732148,12686.492524921005,12695.142650025207,12712.688769422624,12713.292266522916,12723.596420716814,12680.949292296087,12684.123240008741,12698.294245993406,12683.519742908447,12680.681071362624,12698.026025059942,12720.444824748616,12723.059978849886,12674.757859081968,12665.727754322024,12737.655667979201,12755.604118776813,12712.286438022427,12696.32729248134,12734.325258055362,12757.146389144229,12743.467121537582,12706.117356552764,12734.079388866352,12764.544816558937,12790.964578505109,12786.695395314146,12801.693415843656,12795.01024425152,12771.406802106716,12750.954955930109,12766.66823228219,12802.453375155137,12779.565188832903,12727.99971437451,12727.530327740948,12725.51867073997,12725.541022484425,12714.543964212415,12680.234036473517,12714.432205490139,12740.114359869285,12703.546905940404,12701.870525106255,12722.367074771772,12711.079443821842,12671.516856135948,12651.333230892806,12683.31857720835,12690.158211011674,12695.969664570053,12661.011536241955,12695.969664570053,12686.045490031898,12679.138800995208,12652.093190204287,12686.917208065655,12738.683848224146,12769.171627661184,12781.599197578336,12818.25605848504,12908.020664217553,12859.36091653835,12779.028746965974,12866.848750930876,13010.414005567314,12876.907035935765,12687.654815632679,12681.999824285487,12721.808281160389,12712.487603722526,12697.37782447074,12674.579045126326,12691.722833123546,12716.08623457983,12728.826728919355,12708.508993209482,12715.192164801618,12725.093987595319,12722.478833494048,12702.51872569546,12712.75582465599,12753.860682709299,12761.393220590739,12732.648877221212,12703.636312918225,12725.161042828686,12759.113342656297,12755.42530482117,12723.194089316617,12755.626470521269,12796.641921596756,12752.988964675542,12725.384560273238,12794.227933195583,12817.183174751184,12799.033558253475,12758.398086833728,12786.695395314146,12793.043290739453,12791.635130838768,12771.876188740276,12801.939285032664,12826.235631255584,12822.279372486993,12838.082055816896,12852.767151924034,12877.532884780514,12870.134457365806,12868.122800364828,12887.233541874117,12911.909867752776,12975.813505150498,13000.042796140051,12979.300377285526,13022.036912684074,13057.799703812565,13039.538328592578,13036.118511690916,13101.49736422269,13143.585699032034,13146.223204877759,13105.185402057816,13121.479823765734,13151.498216569213,13146.536129300133,13082.833657602509,13076.172837754828,13082.520733180134,13047.96493625223,12985.38005177737,12946.80094084751,12933.009914518585,12921.431710890736,12859.919710149732,12844.45230298666,12862.959547395652,12826.816776611422,12778.648767310235,12763.293118869438,12762.935490958154,12774.111363185808,12766.131790415264,12739.555566257903,12756.565243788391,12784.884904013266,12789.846991282344,12750.574976274369,12746.953993672609,12760.901482212721,12726.368037029271,12690.851115089788,12749.166816373685,12759.67213626768,12757.99575543353,12750.642031507736,12742.170720359174,12741.14254011423,12722.188260816129,12723.37290327226,12714.745129912511,12745.814054705388,12754.307717598405,12723.574068972359,12689.577065655836,12747.021048905975,12746.775179716968,12706.340873997317,12681.798658585389,12714.812185145878,12727.932659141143,12721.718874182568,12684.234998731017,12686.805449343377,12706.27381876395,12694.852077347288,12648.919242491633,12693.354510468784,12732.447711521116,12716.265048535473,12666.018326999943,12672.008594513965,12699.724757638545,12677.551827138881,12674.064955003852,12654.12719894972,12682.089231263308,12687.833629588322,12686.358414454273,12665.571292110837,12694.069766291354,12698.94244658261,12700.887048350221,12671.785077069411,12689.331196466828,12705.290342007916,12695.65674014768,12648.069876202331,12674.601396870781,12691.342853467806,12694.472097691549,12672.455629403072,12680.03287077342,12693.354510468784,12679.116449250752,12664.118428721242,12651.22147217053,12721.18243231564,12726.636257962735,12709.961856599077,12685.240827231506,12678.043565516899,12709.961856599077,12711.168850799662,12692.192219757108,12703.03281581793,12720.37776951525,12688.437126688616,12690.739356367512,12754.263014109494,12733.587650488336,12728.223231819062,12708.553696698393,12719.617810203768,12745.8587581943,12755.291194354439,12711.414719988672,12712.018217088964,12775.340709130849,12788.952921504131,12752.653688508713,12728.111473096786,12768.009336949508,12800.687587343167,12821.362950964327,12816.15499450624,12833.567003436925,12864.345355551883,12843.692343675179,12836.070398815918,12855.806989169954,12873.353108567371,12867.474599775625,12848.96735536663,12857.93040489321,12861.283166561505,12851.11312283434,12813.964523549621,12812.57871539339,12807.7730903355,12812.15403224874,12825.788596366478,12795.770203563,12817.831375340389,12841.099541318363,12821.452357942148,12786.695395314146,12841.501872718558,12834.461073215136,12820.513584675025,12802.766299577512,12830.214241768628,12827.777901623,12813.092805515864,12812.15403224874,12833.63405867029,12846.7321809211,12876.750573724577,12886.7418034961,12951.025420549562,13029.077712187494,13014.213802124716,12929.120710983361,12930.014780761574,13057.710296834744,13077.178666255317,12878.561065025457,12764.298947369927,12791.188095949663,12828.269640001017,12852.767151924034,12836.629192427301,12866.7369922086,12880.617425515346,12847.536843721491,12821.944096320165,12868.122800364828,12865.798218941478,12833.164672036728,12812.601067137846,12841.211300040639,12864.412410785248,12858.466846760137,12821.720578875611,12820.088901530375,12864.07713461842,12869.709774221155,12858.109218848851,12862.333698550905,12875.588283012901,12866.35701255286,12846.553366965458,12870.469733532636,12879.87981794832,12899.437594346715,12886.540637796003,12872.906073678265,12910.099376451895,12924.136271969828,12899.527001324535,12877.93521618071,12938.687257610234,12971.343156259438,12962.402458477314,12925.767949315066,12972.147819059828,13000.422775795792,12973.444220238236,12970.739659159144,13014.414967824814,13044.6792298173,13058.157331723849,13037.77254078061,13059.409029413348,13088.980387327718,13095.238875775203,13099.21748628825,13119.110538853472,13161.735315529742,13181.002519250218,13169.60312957801,13181.673071583877,13197.609865380511,13175.124010458472,13139.60708851899,13129.302934325093,13116.987123130219,13111.26507654966,13087.818096616042,13037.81724426952,13000.95921766272,12983.770726176588,12949.729019371156,12879.544541781492,12870.335623065905,12858.936233393697,12833.835224370388,12782.29210165645,12750.507921041004,12794.496154129047,12784.43786912416,12739.555566257903,12732.85004292131,12753.19013037564,12729.273763808462,12698.94244658261,12632.02132368342,12652.406114626661,12738.147406357219,12738.057999379398,12688.593588899803,12690.359376711773,12684.883199320222,12697.646045404203,12667.381783411716,12673.014423014454,12651.489693103993,12670.22045495754,12660.251576930474,12661.279757175418,12708.821917631856,12695.477926192038,12670.443972402094,12659.089286218797,12661.346812408783,12665.325422921827,12643.68893428909,12634.390608595682,12668.991109012499,12662.777324053923,12632.73657950599,12628.243878870473,12674.64610035969,12690.359376711773,12674.735507337513,12639.285640631395,12642.616050555236,12671.226283458029,12680.099926006786,12653.903681505166,12655.803579783867,12623.929992190599,12658.664603074147,12663.939614765599,12636.178748152108,12638.324515619817,12653.41194312715,12625.785186980389,12608.820212938812,12645.633536056703,12646.996992468476,12633.228317884008,12601.913523902122,12602.427614024595,12613.156451363142,12620.443120055572,12613.8270036968,12631.171957394119,12630.702570760557,12603.031111124887,12572.856256110223,12598.516058744915,12634.278849873406,12628.825024226311,12580.321738758295,12608.59669549426,12696.573161670347,12683.050356274887,12620.040788655377,12598.851334911746,12639.620916798225,12637.296335374873,12636.849300485766,12657.211739684552,12696.528458181438,12699.389481471717,12685.978434798531,12677.775344583433,12687.386594699215,12685.106716764774,12638.59273655328,12623.550012534859,12666.174789211129,12670.712193335557,12676.098963749286,12638.637440042192,12628.802672481856,12601.77941343539,12614.83283219729,12581.416974236605,12581.036994580865,12599.767756434412,12596.191477321563,12536.601726603714,12552.471465166982,12611.21184959553,12599.007797122931,12555.734819857458,12574.15265728863,12608.462585027526,12621.583059022792,12588.34601501775,12561.859197838212,12580.746421902946,12590.022395851898,12573.705622399524,12600.01362562342,12672.947367781087,12729.676095208657,12726.099816095808,12779.699299299635,12775.05013645293,12695.522629680949,12703.390443729217,12809.471822914104,12830.638924913279,12655.110675705753,12545.609479619203,12570.330508986774,12665.41482989965,12687.140725510208,12690.247617989495,12671.718021836046,12662.93378626511,12693.712138380068,12690.225266245041,12685.732565609524,12659.044582729886,12673.729678837024,12653.769571038434,12686.26900747645,12707.167888542162,12724.132862583741,12721.875336393756,12713.068749078364,12679.98816728451,12710.632408932735,12729.050246363908,12719.70721718159,12702.362263484272,12683.855019075278,12713.314618267372,12748.339801828839,12744.897633182722,12766.824694493378,12766.757639260011,12751.111418141296,12780.123982444286,12782.113287700808,12786.226008680584,12813.115157260318,12817.741968362567,12813.808061338434,12840.317230262426,12856.030506614508,12873.017832400541,12855.605823469858,12890.228675631128,12916.201402688195,12906.456042105681,12927.869013293865,12954.646403151322,13017.655970770833,13012.805642224032,12984.888313399353,13038.577203581,13082.073698291028,13087.415765215846,13080.799648857075,13103.598428201489,13132.901565182396,13106.861782891963,13093.87541936343,13087.818096616042,13103.330207268025,13086.141715781894,13061.331279436503,12994.09723211494,12984.374223276882,12970.7620109036,12922.191670202217,12863.384230540303,12859.36091653835,12873.107239378363,12816.557325906435,12742.528348270458,12807.840145568865,12802.542782132958,12760.655613023713,12728.357342285793,12726.300981795906,12715.862717135278,12738.057999379398,12771.317395128894,12724.132862583741,12721.562411971381,12738.549737757414,12727.66443820768,12681.105754507274,12694.963836069564,12741.723685470068,12732.604173732303,12702.6975396511,12715.348627012805,12715.438033990626,12712.912286867177,12681.239864974006,12714.588667701324,12718.880202636743,12679.496428906492,12686.60428364328,12721.249487549007,12713.292266522916,12722.367074771772,12718.164946814173,12719.7519206705,12740.42728429166,12735.398141789216,12714.119281067764,12691.119336023252,12743.42241804867,12740.159063358196,12692.773365112946,12698.294245993406,12722.434130005138,12724.758711428489,12710.878278121743,12705.08917630782,12718.008484602988,12718.209650303084,12746.417551805682,12737.208633090095,12732.380656287749,12731.687752209635,12732.71593245458,12708.218420531563,12719.796624159411,12714.588667701324,12724.132862583741,12703.9492373406,12676.590702127303,12696.84138260381,12726.61390621828,12731.151310342708,12695.142650025207,12734.57112724437,12747.71395298409,12719.28253403694,12684.7937923424,12711.638237433224,12724.110510839286,12728.178528330152,12691.61107440127,12686.291359220906,12723.194089316617,12711.213554288574,12697.355472726284,12686.805449343377,12707.994903087008,12735.822824933866,12705.379748985739,12687.341891210306,12714.186336301129,12713.068749078364,12683.385632441716,12693.488620935515,12699.523591938449,12715.728606668545,12720.266010792973,12705.670321663658,12734.884051666744,12741.723685470068,12707.100833308798,12698.361301226772,12734.95110690011,12746.37284831677,12739.600269746814,12766.377659604272,12831.644753413768,12766.064735181897,12754.754752487512,12747.311621583895,12774.983081219565,12799.34648267585,12771.987947462554,12725.205746317595,12721.09302533782,12728.066769607874,12729.027894619454,12682.335100452317,12681.731603352024,12690.158211011674,12670.578082868826,12688.817106344355,12672.388574169705,12681.396327185194,12652.7860942824,12662.21853044254,12685.93373130962,12713.672246178658,12696.215533759063,12653.16607393814,12611.323608317805,12652.383762882206,12700.7976413724,12672.165056725153,12628.623858526214,12663.000841498477,12694.203876758085,12757.794589733434,12825.788596366478,12887.16648664075,12938.061408765485,12872.615501000346,12793.423270395193,12895.526039067036,12998.411118794815,12883.858428461364,12676.523646893937,12633.049503928365,12686.805449343377,12679.719946351046,12692.169868012652,12695.70144363659,12728.111473096786,12733.94527839962,12724.311676539384,12690.158211011674,12719.126071825753,12719.774272414956,12706.407929230683,12707.100833308798,12713.225211289551,12717.650856691702,12744.607060504803,12734.369961544271,12753.52540654247,12780.90629350022,12753.592461775836,12725.18339457314,12739.175586602163,12767.227025893573,12788.461183126115,12788.841162781855,12786.226008680584,12791.746889561045,12821.29589573096,12826.883831844787,12804.666197856212,12826.615610911324,12833.187023781184,12805.001474023042,12796.239590196561,12832.672933658712,12852.677744946212,12859.271509560527,12889.6922337642,12910.389949129814,12932.853452307398,12906.7466147836,12893.402623343782,12937.256745965095,12985.648272710834,12998.455822283724,13002.993226408153,12996.95825540522,13025.859060985931,13097.5411054541,13130.778149459142,13115.198983573793,13161.243577151727,13158.002574205706,13143.07160890956,13135.762588472675,13176.778039548164,13171.592434834532,13156.192082904827,13127.604201746488,13119.825794676042,13099.083375821518,13042.53346234959,12984.485981999158,12955.875749096365,12933.255783707595,12904.89141999381,12871.654375988768,12836.91976510522,12832.896451103265,12829.96837257962,12782.828543523377,12738.326220312862,12792.283331427972,12793.803250050933,12786.181305191674,12731.79951093191,12726.680961451646,12760.990889190542,12728.402045774705,12664.319594421338,12695.008539558476,12737.298040067917,12720.444824748616,12714.56631595687,12725.89865039571,12722.165909071675,12741.924851170166,12704.888010607721,12683.139763252708,12694.293283735906,12722.970571872065,12723.261144549984,12708.263124020474,12719.573106714859,12723.417606761172,12702.965760584566,12687.543056910403,12724.646952706213,12730.324295797862,12719.818975903867,12721.8529846493,12727.552679485403,12725.272801550962,12688.928865066633,12662.374992653728,12696.37199597025,12691.991054057009,12723.596420716814,12716.019179346464,12714.074577578853,12725.697484695613,12690.962873812065,12664.02902174342,12686.98426329902,12716.868545635765,12709.827746132345,12667.135914222708,12655.401248383672,12718.32140902536,12711.794699644412,12685.196123742597,12691.745184868001,12742.081313381352,12735.174624344663,12708.397234487205,12677.574178883337,12709.827746132345,12713.158156056184,12702.295208250905,12717.494394480515,12714.074577578853,12730.458406264594,12744.919984927177,12731.352476042804,12726.390388773727,12744.85292969381,12745.367019816282,12720.109548581786,12720.42247300416,12735.644010978223,12731.084255109341,12733.252374321506,12722.009446860488,12748.228043106563,12754.754752487512,12720.936563126632,12698.8977430937,12734.504072011003,12752.005487919509,12745.23290934955,12721.338894526827,12764.544816558937,12779.67694755518,12775.586578319857,12759.828598478867,12792.484497128069,12795.569037862902,12804.979122278586,12764.38835434775,12786.76245054751,12845.34637276487,12832.337657491882,12826.548555677959,12813.428081682692,12801.715767588112,12810.097671758853,12789.712880815612,12780.705127800124,12827.733198134089,12819.820680596911,12784.035537723963,12756.654650766213,12818.568982907413,12811.908163059732,12768.14344741624,12716.846193891311,12743.645935493225,12778.067621954397,12770.713898028602,12734.682885966646,12739.555566257903,12732.738284199035,12724.579897472848,12711.459423477581,12718.276705536451,12735.599307489314,12739.980249402553,12707.458461220082,12710.721815910556,12720.355417770794,12701.155269283685,12685.687862120612,12689.264141233461,12756.677002510669,12807.996607780053,12815.86442182832,12880.662129004257,12972.37133650438,12938.061408765485,12833.20937552564,12902.633893803823,13018.170060893306,12944.699876868712,12767.718764271589,12675.048431759888,12770.758601517511,12815.618552639313,12792.931532017175,12769.641014294746,12757.705182755612,12770.490380584048,12783.29793015694,12759.33686010085,12766.511770071003,12788.86351452631,12784.951959246631,12769.730421272567,12769.641014294746,12796.887790785766,12784.303758657428,12799.860572798321,12781.889770256254,12796.351348918837,12868.54748350948,12852.722448435123,12805.403805423237,12828.694323145668,12873.777791712022,12854.331774035905,12836.629192427301,12850.06259084494,12874.068364389941,12866.35701255286,12865.842922430387,12887.41235582976,12912.803937530987,12929.7018563392,12916.536678855024,12901.203382158683,12919.665923078766,12939.961307044186,12949.304336226503,12935.6027168754,12975.47822898367,13005.787194465065,12980.306205786015,12962.648327666322,13007.977665421686,13039.515976848124,13061.018355014128,13045.238023428683,13078.072736033528,13076.843390088487,13105.811250902565,13116.629495218933,13134.801463461097,13144.524472299156,13138.802425718597,13119.423463275847,13142.89279495392,13193.98888277875,13165.959795231796,13112.516774239157,13076.6869278773,13070.473142918723,13042.064075716029,12991.146801846839,12925.924411526254,12922.7504638136,12897.045957689996,12854.510587991546,12803.682721100178,12801.022863509997,12767.115267171297,12740.919022669677,12727.440920763127,12740.248470336017,12752.564281530891,12719.841327648322,12670.958062524565,12694.136821524718,12711.794699644412,12694.650911647192,12651.132065192709,12647.198158168574,12693.533324424425,12665.481885133015,12635.709361518546,12622.343018334273,12654.395419883183,12652.584928582302,12626.589849780781,12589.932988874078,12597.420823266606,12632.40130333916,12648.852187258266,12594.82802090979,12593.933951131577,12612.150622862653,12619.906678188645,12578.399488735138,12605.959189648533,12650.327402392317,12625.02522766891,12607.121480360209,12608.417881538617,12591.050576096843,12569.01175606391,12573.660918910613,12593.933951131577,12617.604448509748,12621.337189833785,12589.597712707247,12571.828075865278,12580.20998003602,12573.929139844078,12552.717334355992,12544.827168563268,12579.695889913546,12566.396601962639,12547.95641278701,12522.296610152318,12548.850482565224,12571.58220667627,12589.44125049606,12570.799895620334,12579.852352124733,12599.991273878966,12603.142869847165,12556.472427424482,12524.107101453197,12595.409166265628,12600.483012256982,12577.572474190292,12587.362538261717,12588.234256295475,12590.290616785362,12565.658994395613,12557.612366391704,12583.562741704314,12635.575251051814,12640.716152276535,12592.570494719803,12607.25559082694,12616.30804733134,12619.951381677554,12599.790108178868,12610.362483306228,12614.251686841451,12642.817216255335,12669.639309601702,12681.597492885292,12683.944426053098,12640.157358665152,12623.281791601396,12668.432315401116,12710.52065021046,12709.939504854621,12679.943463795598,12650.729733792512,12675.093135248797,12671.785077069411,12633.496538817471,12632.960096950543,12709.112490309775,12712.75582465599,12676.188370727108,12645.208852912052,12663.827856043323,12659.536321107904,12619.303181088351,12584.769735904902,12601.891172157666,12605.847430926256,12595.520924987904,12609.267247827918,12614.0281693969,12615.726901975502,12591.654073197136,12589.843581896255,12628.243878870473,12622.097149145264,12562.328584471774,12582.109878314719,12632.043675427876,12623.68412300159,12666.085382233308,12691.566370912358,12675.316652693351,12715.438033990626,12763.829560736367,12796.10547972983,12748.742133229034,12686.157248754174,12720.266010792973,12857.192797326185,12798.027729752986,12610.943628662066,12601.86882041321,12612.016512395921,12628.422692826116,12654.17190243863,12658.619899585236,12657.122332706731,12626.902774203156,12641.274945887917,12660.050411230375,12669.482847390515,12649.679201803114,12644.962983723044,12687.766574354957,12691.678129634634,12676.501295149481,12668.36526016775,12697.288417492917,12709.246600776507,12668.320556678838,12674.064955003852,12719.550754970403,12753.860682709299,12749.23387160705,12738.080351123852,12732.134787098741,12751.044362907931,12790.539895360458,12769.57395906138,12758.733363000556,12769.015165449997,12802.878058299788,12820.334770719383,12772.837313751856,12814.769186350011,12823.620477154313,12802.162802477218,12805.96259903462,12856.119913592329,12859.182102582707,12867.899282920276,12864.635928229802,12895.861315233866,12911.328722396938,12931.55705112899,12960.301394498516,12992.28674081406,13015.66666551431,13019.466462071714,12985.827086666475,13003.127336874884,13088.287483249604,13135.449664050302,13107.755852670176,13121.457472021279,13131.180480859337,13133.058027393583,13104.000759601684,13082.16310526885,13087.795744871586,13065.846331816476,13040.365343137426,12991.258560569117,12972.460743482203,12922.079911479941,12879.544541781492,12854.845864158377,12849.324983277917,12833.656410414746,12799.122965231296,12742.595403503825,12742.528348270458,12736.04634237842,12756.252319366016,12736.672191223168,12704.910362352177,12727.239755063028,12723.149385827708,12690.851115089788,12689.085327277819,12724.646952706213,12736.962763901087,12689.107679022274,12660.720963564036,12707.23494377553,12713.359321756283,12674.690803848602,12658.485789118504,12678.17767598363,12691.432260445627,12689.442955189104,12657.479960618015,12685.576103398336,12678.64706261719,12661.637385086702,12667.202969456073,12687.878333077233,12678.22237947254,12686.425469687638,12675.964853282554,12703.122222795751,12710.23007753254,12723.529365483448,12675.741335838002,12663.291414176396,12681.55278939638,12705.603266430291,12701.401138472693,12664.006669998966,12690.26996973395,12708.777214142945,12688.012443543965,12656.071800717331,12661.346812408783,12683.36328069726,12673.975548026032,12682.335100452317,12722.188260816129,12714.23103979004,12700.864696605766,12652.115541948742,12678.602359128281,12716.197993302107,12714.65572293469,12717.382635758238,12730.27959230895,12713.918115367665,12722.009446860488,12705.715025152567,12689.8452865893,12683.586798141814,12701.17762102814,12702.742243140012,12672.299167191884,12712.733472911534,12701.065862305864,12673.617920114746,12658.910472263155,12696.573161670347,12709.224249032051,12710.52065021046,12672.545036380892,12682.335100452317,12692.505144179482,12660.519797863937,12615.279867086396,12645.186501167596,12711.794699644412,12678.110620750263,12618.140890376675,12648.36044888025,12672.477981147525,12696.193182014607,12665.012498499455,12631.730751005502,12648.963945980544,12672.70149859208,12675.27194920444,12647.466379102038,12669.974585768532,12681.172809740641,12660.877425775221,12624.287620101884,12646.59466106828,12650.707382048056,12653.121370449231,12655.133027450209,12654.060143716353,12663.55963510986,12645.499425589971,12650.12623669222,12697.668397148658,12700.84234486131,12698.60717041578,12679.764649839957,12704.016292573964,12771.451505595625,12761.460275824104,12719.930734626143,12699.054205304887,12704.597437929802,12723.507013738992,12727.820900418867,12696.394347714704,12710.56535369937,12707.592571686813,12666.621824100235,12639.330344120306,12683.296225463895,12696.37199597025,12645.745294778979,12593.509267986927,12586.133192316674,12607.724977460502,12644.135969178196,12629.763797493435,12624.332323590796,12640.336172620795,12615.88336418669,12614.296390330363,12624.73465499099,12606.49563151546,12636.35756210775,12651.892024504188,12620.59958226676,12635.463492329538,12641.677277288114,12629.652038771157,12656.720001306534,12718.120243325264,12765.260072381507,12854.130608335807,12843.692343675179,12815.573849150402,12784.057889468419,12909.6970450517,12944.252841979605,12809.427119425192,12648.65102155817,12630.702570760557,12624.511137546437,12647.242861657485,12665.258367688462,12679.898760306689,12639.039771442387,12648.047524457876,12706.765557141967,12697.221362259552,12680.256388217973,12666.755934566967,12694.002711057987,12680.904588807178,12694.98618781402,12694.360338969273,12706.698501908602,12710.23007753254,12708.75486239849,12716.555621213392,12732.626525476757,12742.260127336995,12719.304885781394,12694.852077347288,12716.197993302107,12723.350551527805,12738.840310435333,12710.386539743728,12745.23290934955,12782.202694678628,12784.10259295733,12744.495301782526,12757.347554844328,12789.981101749076,12802.542782132958,12787.790630792455,12799.413537909215,12816.8255468399,12858.086867104395,12852.744800179578,12836.070398815918,12883.41139357226,12914.7485392986,12885.244236617595,12875.16359986825,12933.479301152147,12972.326633015471,12956.211025263194,12960.301394498516,13017.231287626182,13046.355610651448,13060.861892802943,13041.192357682272,13058.961994524241,13124.251440078193,13130.442873292313,13097.362291498459,13068.461485917745,13095.082413564018,13078.273901733626,13031.58110756649,12989.537476246058,12956.188673518738,12932.294658696015,12924.18097545874,12891.100393664885,12879.343376081393,12848.296803032972,12795.680796585179,12740.449636036115,12742.684810481645,12721.405949760194,12735.196976089119,12699.791812871912,12693.220400002052,12695.634388403225,12700.03768206092,12687.855981332777,12690.649949389692,12707.860792620277,12690.359376711773,12642.16901566613,12672.120353236241,12700.395309972206,12685.576103398336,12673.41675441465,12672.36622242525,12684.458516175571,12677.641234116702,12691.70048137909,12657.099980962275,12674.601396870781,12688.705347622079,12678.870580061744,12680.457553918071,12700.104737294287,12700.283551249928,12692.974530813042,12642.683105788603,12674.064955003852,12699.210667516074,12688.772402855446,12676.523646893937,12687.69951912159,12710.766519399467,12705.625618174747,12684.860847575766,12675.875446304733,12693.868600591255,12697.109603537274,12707.257295519985,12669.50519913497,12697.042548303909,12717.494394480515,12695.343815725306,12663.35846940976,12698.093080293309,12701.110565794776,12680.07757426233,12701.378786728239,12700.12708903874,12709.738339154523,12731.039551620432,12692.460440690571,12690.381728456226,12709.157193798685,12718.343760769816,12696.997844814998,12718.23200204754,12743.221252348572,12712.129975811242,12688.995920299998,12687.498353421493,12722.56824047187,12749.613851262791,12721.361246271283,12712.08527232233,12731.106606853797,12732.067731865374,12738.952069157609,12725.876298651256,12723.03762710543,12720.824804404356,12710.475946721548,12707.167888542162,12723.238792805529,12726.94918238511,12736.560432500892,12706.810260630878,12704.03864431842,12745.90346168321,12738.437979035138,12714.923943868154,12717.42733924715,12755.984098432553,12757.951051944621,12733.118263854774,12727.977362630054,12751.401990819215,12759.359211845305,12753.748923987023,12728.603211474803,12755.872339710277,12752.653688508713,12755.648822265724,12766.28825262645,12784.90725575772,12761.28146186846,12793.378566906282,12810.522354903504,12837.210337783139,12843.804102397455,12832.270602258517,12785.063717968907,12779.252264410528,12814.165689249718,12826.839128355878,12812.824584582399,12803.235686211072,12823.307552731938,12810.477651414592,12773.709031785613,12766.869397982287,12776.681813798168,12774.044307952441,12758.28632811145,12734.682885966646,12749.457389051604,12743.221252348572,12725.205746317595,12730.212537075584,12784.43786912416,12799.257075698028,12786.605988336325,12751.625508263769,12752.072543152875,12775.05013645293,12773.932549230165,12747.915118684188,12751.647860008225,12783.655558068223,12815.551497405946,12837.478558716602,12868.323966064927,12941.950612300709,13045.506244362146,13009.922267189297,12930.662981350779,12976.931092373265,13110.035730604617,13099.463355477257,12875.565931268446,12789.15408720423,12855.337602536394,12865.328832307916,12843.602936697358,12872.794314955989,12901.739824025612,12905.472565349648,12881.377384826827,12877.488181291603,12905.31610313846,12899.437594346715,12887.50176280758,12916.000236988097,12929.098359238908,12937.435559920736,12926.214984204173,12919.352998656394,12953.46176069519,12938.79901633251,12919.352998656394,12880.036280159507,12924.248030692104,12986.497639000136,12953.417057206281,12953.79703686202,12985.245941310639,12990.47624951318,13000.646293240345,12994.924246659786,13006.167174120805,13026.194337152761,13006.52480203209,12994.454860026224,13014.012636424619,13052.502340376657,13068.908520806852,13062.270052703627,13058.20203521276,13097.764622898654,13122.530355755134,13106.973541614241,13150.090056668527,13157.935518972341,13157.063800938584,13144.815044977075,13168.932577244352,13218.352284235036,13234.423188498402,13228.343514006558,13212.741996376753,13260.306508577647,13308.228648689825,13341.041009550216,13350.719314899365,13368.913634885983,13354.228538778847,13352.798027133707,13325.3947884315,13314.688302837409,13312.274314436236,13301.366663142046,13255.992621897773,13213.591362666055,13208.964551563806,13163.344641130525,13122.128024354939,13090.142678039394,13084.264169247648,13073.82590458702,13063.834674815498,13052.122360720918,13061.241872458682,13072.4847999197,13064.371116682425,13005.206049109227,13005.027235153584,13025.456729585736,12999.461650784213,12989.470421012691,12986.207066322217,12986.363528533404,13024.942639463263,12985.871790155386,12977.489885984647,12996.377110049381,12968.683298669255,12955.004031062608,12967.275138768571,12959.608490420402,12953.975850817664,12965.62110967888,12951.315993227481,12982.407269764813,12982.317862786993,12955.763990374087,12944.677525124256,12973.08659232695,12979.792115663544,12975.835856894953,12936.429731420247,12961.843664865932,12961.821313121476,12931.110016239885,12940.341286699926,12944.632821635345,12945.057504779996,12945.32572571346,12925.969115015163,12932.674638351757,12928.785434816533,12898.565876312958,12898.02943444603,12934.060446507985,12936.60854537589,12924.762120814577,12899.325835624437,12865.842922430387,12901.873934492343,12925.253859192593,12900.286960636016,12855.248195558572,12879.45513480367,12908.668864806756,12901.940989725708,12873.263701589549,12867.139323608795,12867.16167535325,12862.624271228824,12868.54748350948,12880.885646448809,12872.839018444898,12839.758436651044,12800.53112513198,12790.092860471352,12784.147296446241,12763.695450269635,12748.920947184677,12746.730476228056,12757.369906588783,12740.248470336017,12726.099816095808,12713.247563034007,12720.914211382176,12710.185374043629,12682.55861789687,12702.205801273085,12715.840365390823,12713.314618267372,12718.679036936646,12722.970571872065,12722.702350938602,12733.721760955068,12708.576048442847,12698.56246692687,12738.28151682395,12755.112380398796,12736.471025523071,12730.27959230895,12739.957897658098,12759.783894989956,12777.44177310965,12739.019124390976,12706.653798419691,12704.977417585544,12696.75197562599,12705.26799026346,12659.089286218797,12660.966832753043,12663.626690343224,12659.603376341269,12647.019344212931,12659.424562385628,12660.765667052945,12650.305050647861,12624.578192779803,12632.446006828071,12665.88421653321,12665.548940366381,12657.301146662372,12638.704495275557,12635.239974884984,12664.118428721242,12662.754972309467,12661.145646708686,12668.275853189929,12643.890099989188,12660.184521697107,12703.390443729217,12735.822824933866,12805.269694956505,12847.134512321296,12800.039386753964,12728.491452752525,12763.963671203099,12855.985803125597,12865.284128819005,12723.574068972359,12627.9309544481,12655.289489661394,12650.21564367004,12637.229280141508,12694.09211803581,12718.991961359021,12706.139708297218,12710.095967065809,12721.338894526827,12725.093987595319,12719.975438115054,12718.276705536451,12708.218420531563,12723.976400372554,12735.71106621159,12722.367074771772,12707.614923431269,12729.631391719746,12790.58459884937,12813.428081682692,12784.214351679606,12751.849025708321,12741.768388958979,12741.880147681255,12768.121095671786,12764.611871792302,12757.928700200166,12766.95880496011,12763.538988058448,12776.123020186786,12768.746944516533,12729.541984741925,12773.150238174228,12863.45128577367,12883.947835439187,12845.122855320318,12785.756622047022,12793.043290739453,12860.210282827651,12894.78843150001,12879.388079570304,12851.82837865691,12884.059594161463,12880.282149348515,12857.237500815094,12902.276265892539,12948.969060059675,12946.644478636323,12932.51817614057,12960.837836365443,13010.928095689786,13045.349782150959,12990.945636146742,12982.787249420555,13001.160383362816,13008.402348566337,13008.514107288613,13025.613191796923,13009.698749744744,12984.821258165986,12944.096379768418,12900.55518156948,12889.535771553014,12878.35989932536,12846.128683820807,12823.44166319867,12811.125852003795,12775.608930064313,12733.878223166255,12705.51385945247,12714.56631595687,12743.958859915598,12733.766464443977,12695.366167469761,12702.675187906647,12691.208743001074,12671.829780558322,12633.74240800648,12655.200082683574,12681.150457996186,12693.063937790865,12674.601396870781,12687.453649932582,12704.709196652078,12676.188370727108,12687.587760399314,12697.914266337666,12709.984208343532,12729.363170786282,12726.546850984914,12706.139708297218,12721.808281160389,12749.345630329328,12727.99971437451,12724.915173639676,12734.213499333084,12777.508828343014,12797.781860563979,12795.122002973796,12811.081148514886,12823.531070176492,12817.250229984551,12813.159860749229,12814.836241583376,12824.045160298963,12805.381453678781,12773.977252719076,12767.942281716143,12760.745020001534,12776.234778909062,12773.641976552246,12764.433057836659,12759.180397889662,12722.188260816129,12700.12708903874,12675.18254222662,12708.710158909578,12737.678019723657,12693.108641279774,12636.916355719133,12659.759838552456,12676.210722471562,12662.017364742442,12666.21949270004,12650.036829714398,12632.781282994902,12619.54905027736,12614.408149052639,12613.625837996702,12614.095224630264,12613.223506596507,12584.792087649357,12561.367459460194,12576.29842475634,12569.190570019553,12537.696962082025,12540.155653972108,12544.000154018422,12560.831017593267,12548.716372098492,12535.327677169762,12561.792142604845,12569.034107808366,12532.041970734832,12514.831127504245,12545.72123834148,12590.11180282972,12591.743480174957,12574.666747411102,12596.414994766117,12621.605410767248,12601.801765179845,12618.498518287959,12675.093135248797,12682.424507430138,12688.504181921982,12678.624710872737,12695.142650025207,12726.770368429467,12690.851115089788,12720.780100915445,12725.026932361954,12746.506958783504,12769.52925557247,12753.793627475934,12748.675077995667,12785.555456346925,12803.81683156691,12781.755659789522,12742.081313381352,12764.298947369927,12766.265900881996,12771.160932917706,12776.614758564801,12803.749776333545,12820.021846297008,12848.54267222198,12817.317285217916,12808.421290924703,12828.381398723293,12857.59512872638,12837.59031743888,12825.408616710738,12854.488236247093,12825.006285310541,12799.10061348684,12807.34840719085,12850.666087945234,12918.235411433627,12898.632931546323,12859.472675260626,12900.26460889156,12929.478338894647,12873.107239378363,12813.562192149424,12909.160603184773,12992.644368725345,12876.370594068838,12703.636312918225,12685.55375165388,12746.842234950333,12760.521502556981,12707.927847853643,12714.56631595687,12727.060941107386,12740.829615691855,12710.23007753254,12684.212646986563,12695.880257592233,12714.789833401423,12689.442955189104,12683.296225463895,12710.543001954915,12739.28734532444,12761.236758379551,12779.118153943797,12836.942116849676,12850.755494923056,12837.97029709462,12831.532994691492,12864.121838107329,12879.768059226044,12891.033338431518,12893.73789951061,12920.89526902381,12938.441388421224,12930.595926117412,12913.78741428702,12941.928260556253,12994.85719142642,13002.032101396573,12984.307168043515,12956.03221130755,12971.90194987082,12988.33048204547,13001.294493829548,13015.420796325303,13037.593726824967,13053.82109329952,13030.083540687983,13008.849383455443,13032.72104653371,13043.829863527997,13067.500360906168,13080.151448267872,13120.116367353961,13147.161978144883,13147.02786767815,13148.927765956852,13182.36597566199,13227.04711282815,13227.292982017158,13220.654513913933,13219.224002268793,13259.01010739924,13266.09561039157,13238.357095522535,13222.95674359283,13205.120051517493,13159.343678873025,13109.543992226601,13073.423573186825,13041.393523382369,13046.176796695805,13031.111720932928,12996.801793194032,12970.963176603696,12953.506464184102,12923.711588825177,12886.115954651352,12916.782548044033,12927.533737127034,12879.16456212575,12855.851692658865,12863.7865619405,12862.266643317538,12853.728276935612,12839.847843628866,12847.715657677134,12828.291991745471,12848.810893155443,12844.16173030874,12834.662238915234,12844.944041364675,12847.380381510304,12833.946983092665,12842.328887263404,12879.142210381295,12859.003288627064,12865.865274174843,12848.140340821785,12859.673840960722,12864.032431129508,12862.713678206645,12864.993556141086,12866.714640464144,12869.329794565416,12887.278245363028,12888.060556418963,12906.7466147836,12924.002161503096,12931.17707147325,12909.98761772962,12897.425937345737,12892.396794843293,12899.392890857804,12890.116916908852,12852.029544357008,12875.923559179731,12902.253914148083,12872.727259722622,12842.373590752315,12844.742875664579,12853.59416646888,12837.456206972147,12825.878003344298,12841.412465740737,12833.20937552564,12819.887735830276,12799.234723953572,12780.19103767765,12775.564226575403,12765.327127614872,12754.95591818761,12732.671228965668,12748.51861578448,12753.52540654247,12695.924961081144,12651.713210548545,12694.51680118046,12681.955120796576,12652.495521604482,12659.245748429985,12697.757804126479,12678.758821339468,12656.45178037307,12686.917208065655,12720.154252070697,12743.735342471045,12752.452522808615,12747.848063450821,12750.753790230012,12760.007412434508,12762.689621769146,12752.653688508713,12765.640052037246,12803.168630977707,12811.952866548643,12789.846991282344,12800.911104787721,12832.002381325054,12825.408616710738,12819.105424774341,12856.477541503615,12886.183009884717,12864.412410785248,12815.104462516842,12805.783785078978,12808.980084536086,12819.328942218894,12791.903351772233,12765.125961914775,12780.705127800124,12776.570055075892,12766.578825304368,12729.743150442024,12724.982228873043,12713.89576362321,12690.538190667414,12682.670376619146,12683.586798141814,12698.473059949049,12695.768498869957,12690.314673222862,12659.26810017444,12653.858978016255,12675.249597459984,12692.41573720166,12701.401138472693,12696.215533759063,12700.305902994383,12716.46621423557,12728.133824841241,12754.575938531869,12767.651709038224,12811.371721192805,12796.284293685472,12841.144244807274,12927.332571426938,12945.772760602566,12831.48829120258,12851.49310249008,12996.95825540522,13032.698694789255,12885.154829639772,12793.423270395193,12839.937250606687,12860.947890394675,12855.158788580751,12822.413482953727,12852.945965879675,12885.870085462342,12880.460963304158,12861.461980517148,12893.469678577147,12935.826234319955,12923.353960913893,12912.938047997719,12912.736882297622,12918.928315511743,12907.081890950429,12902.902114737286,12918.771853300555,12928.047827249507,12948.387914703837,12955.540472929535,12953.573519417469,12960.837836365443,12968.213912035693,12931.46764415117,12933.7028185967,12971.030231837063,12987.682281456266,12995.773612949088,12970.337327758949,12981.446144753236,13004.75901422012,13016.225459125693,13024.786177252076,13035.179738423794,13037.973706480707,13035.939697735275,13017.343046348458,13034.375075623402,13063.6335091154,13085.471163448236,13085.672329148332,13113.679064950833,13128.945306413807,13134.019152405162,13122.843280177509,13134.913222183373,13190.904342043917,13219.067540057606,13216.988827823261,13237.753598422241,13264.642747001977,13268.286081348191,13257.847816687563,13234.400836753946,13296.87396250653,13310.597933602088,13279.77487799822,13229.058769829127,13215.75948187822,13184.981129763262,13127.380684301936,13071.858951074953,13000.556886262524,12991.817354180499,12957.395667719326,12891.010986687064,12878.382251069816,12827.263811500528,12778.559360332414,12725.093987595319,12692.706309879579,12698.338949482317,12668.387611912205,12633.697704517568,12625.606373024748,12613.044692640864,12597.733747688979,12546.995287775433,12509.265543134874,12528.644505577626,12556.561834402304,12538.56868011578,12487.51729577986,12495.250999361397,12520.977857229454,12509.176136157053,12480.632958487626,12521.022560718366,12527.549270099315,12504.504621565893,12479.828295687235,12505.309284366285,12528.95743,12541.407351661606,12502.358854098184,12495.8991999506,12523.14597644162,12577.34895674574,12567.0671542963,12582.378099248184,12615.861012442234,12606.92031466011,12584.657977182625,12594.001006364942,12636.40226559666,12664.632518843713,12659.424562385628,12631.574288794314,12652.048486715375,12684.346757453295,12689.219437744552,12688.41477494416,12706.050301319397,12728.983191130543,12698.540115182414,12657.144684451187,12658.284623418407,12692.996882557498,12693.510972679971,12691.119336023252,12708.173717042651,12703.859830362777,12709.17954554314,12698.18248727113,12694.449745947093,12704.75390014099,12699.188315771618,12651.065009959342,12627.103939903252,12644.560652322847,12672.656795103168,12669.996937512988,12640.470283087527,12649.142759936185,12664.341946165794,12658.754010051967,12633.429483584105,12619.817271210823,12610.20602109504,12591.050576096843,12563.446171694539,12595.699738943547,12609.200192594551,12596.996140121955,12576.611349178715,12594.962131376522,12631.21666088303,12616.464509542528,12579.427668980083,12589.038919095865,12629.540280048881,12608.551992005348,12563.714392628002,12532.801930046313,12538.345162671229,12567.87181709669,12562.730915871969,12522.073092707766,12511.56777281377,12523.503604352905,12494.245170860908,12473.145124095097,12497.32971159574,12486.265598090364,12485.393880056607,12457.945937865488,12455.151969808576,12484.477458533938,12483.672795733548,12446.993583082389,12453.587347696704,12474.530932251328,12448.17822553852,12417.019893767821,12435.705952132459,12474.240359573409,12479.358909053673,12470.977004882932,12473.502752006383,12510.8525169912,12542.90491854011,12561.30040422683,12584.30034927134,12619.414939810627,12713.962818856577,12783.968482490598,12738.862662179788,12687.252484232484,12763.248415380529,12872.079059133419,12831.756512136044,12678.55765563937,12638.50332957546,12698.316597737861,12724.132862583741,12737.163929601185,12771.071525939886,12800.86640129881,12802.900410044243,12783.7673167905,12785.466049369103,12816.803195095445,12840.652506429256,12825.073340543908,12839.467863973125,12866.848750930876,12845.502834976058,12852.856558901854,12874.113067878852,12876.750573724577,12910.7475770411,12903.997350215597,12894.855486733377,12907.75244328409,12902.589190314913,12861.283166561505,12842.172425052218,12872.995480656085,12861.707849706156,12830.191890024173,12819.485404430081,12824.223974254606,12833.365837736827,12811.192907237162,12805.29204670096,12853.504759491057,12845.189910553683,12859.204454327162,12865.239425330094,12881.802067971477,12909.78645202952,12888.485239563614,12887.5911697854,12888.954626197175,12897.627103045834,12918.213059689173,12914.480318365137,12916.380216643836,12927.444330149214,12927.421978404758,12904.243219404605,12917.743673055611,12935.08862675293,12936.69795235371,12908.93708574022,12896.21894314515,12922.281077180038,12942.285888467537,12911.574591585946,12865.39588754128,12891.770945998544,12860.97024213913,12811.371721192805,12780.302796399928,12739.71202846909,12701.825821617345,12624.35467533525,12576.812514878811,12557.634718136158,12537.76401731539,12494.89337145011,12424.038341526788,12379.424259593996,12388.9237509875,12425.088873516188,12379.893646227556,12354.189140103954,12369.567140289206,12390.823649266202,12393.483506856384,12400.725472059903,12425.31239096074,12452.55916745176,12453.006202340866,12455.978984353422,12476.98962414141,12515.881659493645,12522.43072061905,12511.277200135852,12531.773749801368,12539.954488272011,12535.685305081048,12498.134374396132,12489.528952780838,12527.281049165851,12568.140038030153,12564.116724028197,12573.146828788142,12594.515096487416,12592.414032508617,12613.625837996702,12644.627707556214,12672.030946258421,12674.46728640405,12686.648987132192,12678.26708296145,12683.855019075278,12699.389481471717,12694.472097691549,12668.544074123392,12728.871432408267,12759.806246734412,12726.502147496003,12700.082385549831,12718.500222981003,12725.451615506605,12728.625563219257,12700.46236520557,12711.347664755305,12753.257185609005,12772.47968584057,12728.558507985892,12715.415682246172,12763.829560736367,12782.515619101003,12781.710956300612,12787.343595903349,12799.301779186939,12794.160877962218,12770.848008495333,12774.357232374816,12776.659462053713,12803.34744493335,12820.91591607522,12803.235686211072,12802.900410044243,12805.895543801254,12796.06077624092,12758.845121722832,12791.657482583223,12818.34546546286,12819.597163152357,12780.48161035557,12778.29113939895,12795.479630885082,12807.01313102402,12812.936343304676,12803.01216876652,12808.711863602623,12829.834262112889,12823.374607965305,12833.321134247915,12821.20648875314,12825.654485899746,12799.212372209118,12778.782877776966,12820.692398630668,12801.268732699005,12779.788706277455,12802.811003066421,12805.29204670096,12829.700151646157,12806.63315136828,12762.600214791324,12771.697374784635,12779.967520233098,12787.72357555909,12732.380656287749,12748.675077995667,12807.259000213027,12786.002491236031,12754.486531554048,12753.972441431575,12770.870360239787,12762.66727002469,12741.008429647498,12730.57016498687,12742.28247908145,12772.859665496311,12774.178418419173,12756.43113332166,12781.062755711408,12827.82260511191,12816.691436373167,12820.647695141757,12898.163544912763,12921.521117868557,12852.431875757204,12881.243274360095,12984.776554677077,12949.974888560164,12776.257130653517,12699.724757638545,12773.396107363238,12795.81490705191,12779.207560921617,12794.362043662315,12792.14922096124,12780.302796399928,12799.368834420304,12793.95971226212,12779.47578185508,12761.48262756856,12753.838330964843,12806.00730252353,12787.678872070179,12819.910087574732,12828.806081867944,12810.544706647957,12806.588447879369,12838.842015128377,12795.479630885082,12797.312473930417,12839.914898862231,12862.601919484368,12860.724372950122,12846.240442543083,12830.750683635555,12848.721486177623,12863.7865619405,12880.058631903963,12859.696192705178,12886.428879073726,12908.89238225131,12898.610579801867,12867.407544542259,12841.16659655173,12896.97890245663,12913.742710798111,12923.46571963617,12923.46571963617,12969.75618240311,12999.126374617384,13022.483947573179,13034.598593067956,13048.143750207872,13085.292349492593,13112.717939939253,13075.30111972107,13060.34780268047,13104.648960190889,13138.668315251865,13150.738257257732,13182.969472762285,13162.405867863401,13203.890705572452,13200.537943904155,13192.401908922424,13180.376670405469,13205.097699773038,13163.12112368597,13108.471108492746,13088.265131505148,13036.051456457551,12988.263426812104,12961.553092188013,12957.350964230414,12919.732978312133,12882.047937160485,12858.176274082218,12877.64464350279,12838.618497683823,12806.253171712538,12784.840200524355,12789.53406685997,12806.63315136828,12761.952014202121,12760.119171156784,12806.588447879369,12814.568020649913,12754.687697254145,12729.51963299747,12726.837423662833,12753.57011003138,12753.81597922039,12726.32333354036,12726.904478896198,12735.398141789216,12738.683848224146,12721.987095116032,12706.94437109761,12699.300074493894,12717.13676656923,12692.393385457204,12668.387611912205,12689.733527867023,12727.485624252036,12686.917208065655,12637.899832475166,12701.8481733618,12710.900629866199,12697.064900048365,12699.255371004983,12724.89282189522,12755.984098432553,12728.491452752525,12696.684920392623,12727.843252163322,12726.032760862443,12712.733472911534,12695.477926192038,12684.167943497652,12703.815126873867,12729.385522530738,12743.578880259858,12709.89480136571,12705.647969919202,12715.058054334886,12723.931696883643,12722.545888727414,12749.412685562693,12782.783840034466,12748.362153573295,12702.362263484272,12734.437016777638,12718.23200204754,12745.791702960934,12755.201787376618,12767.919929971687,12773.61962480779,12755.42530482117,12714.700426423602,12697.869562848755,12722.255316049495,12725.719836440068,12717.89672588071,12740.561394758392,12749.591499518336,12739.443807535627,12723.574068972359,12723.864641650278,12714.879240379243,12736.269859822973,12738.102702868307,12697.668397148658,12724.669304450668,12770.646842795235,12741.813092447888,12693.198048257596,12706.765557141967,12765.595348548335,12800.598180365347,12735.934583656142,12665.928920022121,12725.89865039571,12787.209485436617,12735.666362722679,12680.681071362624,12733.14061559923,12757.436961822148,12708.330179253839,12654.395419883183,12645.745294778979,12659.759838552456,12631.864861472233,12619.437291555083,12648.673373302625,12645.901756990166,12632.513062061438,12576.074907311788,12585.619102194203,12614.609314752737,12600.527715745893,12601.15356459064,12643.845396500277,12665.12425722173,12659.871597274732,12645.030038956409,12635.21762314053,12643.577175566814,12678.46824866155,12688.615940644258,12692.460440690571,12705.290342007916,12846.866291387832,12884.998367428585,12828.336695234382,12832.53882319198,12872.324928322427,12959.13910378684,12913.474489864648,12757.28049961096,12684.927902809133,12731.37482778726,12722.99292361652,12720.735397426533,12778.33584288786,12765.707107270611,12785.57780809138,12791.970407005598,12792.328034916884,12783.09676445684,12780.056927210919,12782.359156889815,12812.601067137846,12793.266808184006,12811.483479915081,12901.27043739205,12873.978957412119,12870.603843999368,12865.820570685932,12832.181195280695,12850.979012367608,12887.255893618572,12880.17039062624,12869.128628865317,12900.376367613837,12927.623144104857,12906.70191129469,12868.323966064927,12886.7418034961,12920.291771923516,12937.837891320933,12952.590042661435,12975.433525494758,12947.985583303642,12974.04771733853,13008.134127632873,13024.652066785344,13045.327430406503,13019.198241138249,13030.798796510553,13012.090386401462,13085.471163448236,13146.111446155483,13096.155297297872,13101.363253755959,13149.5536148016,13208.226943996782,13183.729432073766,13182.857714040008,13254.495055019266,13272.890540705985,13269.515427293234,13249.935299150384,13244.257956058736,13273.449334317367,13262.72049697882,13233.015028597716,13273.672851761921,13264.039249901683,13213.501955688234,13190.390251921446,13173.738202302242,13160.282452140147,13119.4458150203,13095.417689730846,13021.366360350414,12988.151668089828,12981.736717431155,12999.6181129954,12941.928260556253,12953.595871161924,12966.381068990358,12947.449141436713,12940.31893495547,12943.42582743476,12907.75244328409,12867.631061986813,12913.854469520387,12951.22658624966,12964.972909089674,12957.574481674968,12906.277228150038,12863.54069275149,12920.783510301533,12936.720304098166,12886.630044773823,12893.760251255066,12894.654321033278,12879.008099914563,12891.636835531812,12867.854579431365,12886.965320940653,12862.266643317538,12873.21899810064,12847.089808832385,12863.428934029214,12881.22092261564,12890.496896564591,12885.043070917496,12910.725225296645,12926.662019093279,12896.889495478808,12857.662183959745,12853.840035657888,12886.630044773823,12903.192687415205,12849.906128633755,12821.094730030864,12898.856448990877,12932.026437762552,12898.498821079591,12909.98761772962,12899.325835624437,12933.7028185967,12918.727149811644,12930.618277861868,12959.51908344258,12958.401496219814,12927.869013293865,12907.372463628348,12907.372463628348,12927.26551619357,12937.502615154102,12918.257763178082,12968.99622309163,12991.817354180499,12966.492827712635,12936.161510486783,12987.235246567161,13007.843554954954,12985.76003143311,12942.911737312286,12965.37524048987,13004.937828175764,13002.81441245251,12989.269255312593,12975.634691194857,13011.24102011216,13004.468441542202,12983.256636054115,12996.6676827273,13040.655915815345,13031.469348844214,13020.04760742755,13040.410046626335,13053.329354921503,13043.539290850078,13054.670459588822,13086.365233226446,13080.82200060153,13091.528486195622,13088.622759416434,13046.377962395904,13054.469293888724,13102.92787586783,13083.615968658445,13064.907558549352,13064.996965527174,13056.078619489506,13047.24968042966,13008.6705694998,12991.862057669408,13032.251659900148,13018.505337060134,13006.413043309814,13009.229363111182,13019.354703349436,13002.300322330037,12984.553037232523,12938.150815743305,12971.521970215079,13044.053380972551,13040.901785004353,13014.996113180652,12997.606455994423,12994.611322237412,12984.933016888264,12972.70661267121,12984.888313399353,13008.558810777524,13027.446034842258,13032.38577036688,13047.987287996684,13102.458489234268,13183.4612111403,13145.619707777467,13053.038782243584,13090.20973327276,13229.684618673877,13207.668150385398,13037.616078569423,12969.510313214101,13009.922267189297,13022.394540595358,13008.692921244256,13046.042686229073,13027.356627864436,13000.020444395595,13014.884354458376,13022.193374895262,13044.768636795121,13055.385715411392,13012.04568291255,13001.875639185386,13013.923229446797,13013.47619455769,12990.655063468823,12979.389784263347,13048.277860674603,13049.373096152915,13017.857136470931,12988.375185534382,13022.774520251098,13018.728854504689,12999.036967639562,12989.13514484586,13034.509186090136,13049.68602057529,13027.24486914216,12981.580255219968,12994.320749559492,13030.642334299368,13074.474105176223,13077.983329055707,13069.243796973682,13113.097919594995,13118.752910942187,13076.642224388388,13127.492443024212,13169.536074344645,13145.150321143905,13152.436989836335,13148.190158389827,13172.307690657102,13210.730339375776,13227.874127372996,13222.062673814617,13254.427999785901,13271.527084294212,13273.963424439838,13319.471576150845,13379.843637924629,13372.109934343092,13375.105068100103,13357.670707424964,13376.69204195643,13390.572475263176,13376.043841367227,13341.912727583973,13343.991439818317,13328.188756488415,13306.351102155579,13260.999412655761,13219.13459529097,13197.833382825063,13155.856806737997,13136.768416973164,13088.01926231614,13064.996965527174,13056.72682007871,13058.49260789068,13048.613136841434,13049.976593253208,13041.259412915637,13025.34497086346,13010.570467778502,13026.216688897215,13007.508278788124,13006.122470631895,12970.337327758949,12951.338344971937,12962.13423754385,13016.29251435906,12982.116697086894,12967.364545746392,12980.395612763836,12983.211932565206,12932.786397074033,12965.33053700096,12980.037984852552,12968.90681611381,12954.914624084786,12984.798906421533,12980.194447063739,12968.415077735792,12932.69699009621,12927.153757471295,12973.488923727147,13008.223534610694,13008.961142177719,12972.818371393487,12982.876656398375,12987.011729122607,12971.633728937357,12970.203217292217,12978.786287163055,12981.289682542048,12992.800830936532,12975.23235979466,12979.456839496714,12986.587045977956,12977.780458662566,12926.7514260711,12908.579457828935,12939.782493088544,12960.726077643167,12944.476359424158,12931.042961006518,12943.694048368223,12966.224606779171,12946.867996080875,12917.833080033432,12916.804899788487,12938.128463998852,12953.953499073208,12934.328667441448,12949.326687970959,12930.998257517607,12939.380161688348,12918.369521900358,12936.765007587077,12959.161455531295,12976.752278417622,12944.744580357621,12950.734847871643,12972.639557437846,12977.936920873753,12958.714420642189,12932.22760346265,12937.949650043209,12977.199313306728,13000.847458940443,12988.777516934577,12960.502560198613,12985.00007212163,13000.512182773613,12983.323691287482,13005.675435742789,13009.184659622271,12986.721156444688,12968.102153313417,12965.844627123432,12950.243109493627,12945.817464091477,12914.457966620681,12898.454117590682,12897.314178623461,12906.523097339046,12881.22092261564,12897.828268745932,12935.55801338649,12931.579402873445,12883.16552438325,12881.623254015834,12910.83698401892,12917.766024800067,12900.152850169285,12903.192687415205,12929.388931916827,12953.774685117565,12949.684315882245,12916.201402688195,12938.307277954493,13009.519935789102,12989.67158671279,13034.732703534688,13106.034768347117,13061.644203858878,12994.611322237412,13027.468386586714,13139.115350140972,13104.313684024059,12940.743618100121,12894.855486733377,12951.539510672035,12986.542342489045,12966.202255034716,12968.817409135987,12999.23813333966,13015.018464925108,13007.664740999311,13003.440261297257,12994.611322237412,12993.873714670386,13022.171023150806,13020.874621972398,12995.550095504535,13009.922267189297,13027.446034842258,13026.619020297412,13003.864944441908,13036.09615994646,13055.743343322676,13028.451863342747,13040.365343137426,13106.30298928058,13097.474050220735,13100.715053166754,13084.465334947747,13100.089204322006,13174.475809869267,13181.18133320586,13154.962736959784,13149.352449101503,13197.498106658233,13213.881935343974,13198.056900269617,13175.191065691837,13204.807127095119,13237.932412377884,13240.458159501333,13253.198653840858,13283.597026300076,13305.479384121822,13312.319017925147,13285.921607723429,13324.456015164378,13359.995288848317,13361.135227815537,13349.534672443233,13362.141056316026,13407.001007437828,13419.741501777353,13415.628780797575,13427.095225703148,13423.94362973495,13426.022341969294,13406.822193482185,13441.802673554741,13405.101109159126,13407.5150975603,13365.851445895607,13314.040102248206,13314.867116793052,13280.758354754253,13225.61660118301,13170.050164467117,13170.631309822955,13174.073478469072,13138.288335596126,13070.696660363277,13098.323416510037,13074.071773776028,13037.951354736251,13041.304116404548,13051.474160131713,13098.25636127667,13080.330262223515,13036.409084368835,13057.531482879102,13067.34389869498,13054.715163077732,13029.34593312096,13030.86585174392,13041.549985593556,13018.393578337858,12993.471383270191,13009.7211014892,13019.421758582803,13009.788156722565,12983.256636054115,12981.915531386798,13008.871735199898,13014.14674689135,12997.070014127496,12971.633728937357,13001.76388046311,13028.787139509575,12997.517049016602,12991.504429758124,12999.863982184408,13011.173964878793,13012.246848612649,13062.53827363709,13083.615968658445,13080.978462812718,13062.672384103822,13047.853177529953,13060.504264891657,13091.886114106908,13092.847239118486,13053.374058410414,13052.390581654381,13097.339939754003,13073.289462720093,13038.733665792188,13041.706447804743,13085.404108214869,13089.986215828207,13068.908520806852,13018.594744037957,13050.021296742118,13100.625646188933,13117.054178363584,13055.788046811587,13064.438171915792,13082.63249190241,13086.074660548527,13068.01445102864,13056.458599145246,13080.866704090442,13061.666555603333,13033.503357589647,13087.25930300466,13112.114442838962,13099.262189777159,13074.898788320874,13064.102895748962,13087.505172193667,13114.394320773403,13105.78889915811,13057.285613690092,13082.431326202313,13123.916163911363,13129.615858747466,13120.742216198709,13115.578963229533,13107.711149181265,13137.751893729199,13133.616821004965,13113.947285884296,13142.602222276,13140.612917019478,13136.924879184351,13157.220263149771,13201.677882871376,13177.158019203904,13128.386512802424,13116.763605685665,13139.964716430273,13142.915146698375,13126.598373245999,13112.852050405985,13136.097864639505,13109.387530015414,13081.49255293519,13061.040706758584,13080.844352345986,13081.425497701824,13080.889055834898,13088.578055927523,13103.106689823473,13098.92691361033,13107.778204414632,13113.41084401737,13118.864669664463,13093.897771107886,13097.518753709646,13077.20101799977,13065.712221349744,13113.813175417565,13129.50410002519,13127.514794768667,13107.197059058793,13143.451588565302,13183.908246029407,13200.895571815441,13236.993639110762,13298.192715429392,13272.443505816878,13200.962627048806,13248.840063672074,13380.849466425117,13343.276183995747,13142.624574020456,13063.655860859855,13087.6392826604,13147.921937456364,13144.74798974371,13114.282562051125,13127.537146513123,13134.55559427209,13181.18133320586,13141.506986797689,13139.383571074435,13155.342716615525,13162.785847519142,13152.816969492074,13133.303896582593,13147.988992689729,13201.029682282173,13207.04230154065,13165.110428942495,13179.303786671613,13175.571045347579,13170.31838540058,13185.249350696726,13235.071389087605,13228.835252384575,13219.805147624631,13194.078289756571,13190.971397277284,13232.947973364351,13217.257048756725,13192.245446711237,13200.962627048806,13240.368752523513,13279.707822764853,13257.445485287368,13265.045078402172,13309.212125445858,13307.356930656068,13305.613494588553,13387.398527550522,13418.802728510229,13387.644396739532,13345.98074507484,13358.810646392185,13391.5112485303,13445.535414878776,13455.727810350396,13469.362374468134,13519.25146809238,13529.801491475284,13542.16200615907,13535.165910144558,13569.229968694446,13623.768225165395,13603.450489455521,13578.438887410031,13617.241515784444,13641.515510262909,13634.65352471513,13593.012224794893,13573.990890263427,13549.113398684669,13511.160136599558,13475.3302902377,13459.348792952156,13455.973679539406,13435.387722896066,13394.640492754042,13350.78637013273,13353.714448656376,13329.127529755537,13325.461843664867,13293.34238688259,13292.671834548932,13326.35591344308,13312.944866769894,13321.68439885192,13315.694131337897,13331.854442579084,13318.130471483526,13284.982834456307,13275.796267485175,13282.591197799587,13291.308378137157,13249.868243917019,13250.76231369523,13291.15191592597,13273.62814827301,13202.348435205036,13228.991714595762,13308.295703923191,13269.001337170761,13228.790548895664,13237.731246677786,13265.67092724692,13289.609645558554,13271.4823808053,13235.563127465623,13243.05096185815,13288.96144496935,13286.4356978459,13267.839046459085,13273.561093039643,13271.728249994308,13284.602854800565,13275.013956429239,13296.87396250653,13297.745680540285,13333.329657713135,13312.475480136334,13283.932302466907,13308.16159345646,13280.646596031977,13296.225761917325,13312.5425353697,13299.377357885523,13307.468689378346,13287.240360646292,13269.090744148583,13297.812735773652,13299.042081718693,13346.964221830873,13306.887544022507,13299.802041030174,13319.315113939658,13318.644561605997,13306.842840533596,13311.380244658023,13306.328750411123,13298.30447415167,13285.385165856502,13296.87396250653,13306.619323089042,13314.576544115132,13281.29479662118,13277.24913087477,13329.261640222268,13361.828131893652,13326.758244843275,13274.991604684783,13282.4347355884,13286.949787968373,13266.900273191963,13245.420246770413,13303.177154442927,13328.032294277227,13333.441416435411,13285.429869345411,13272.644671516977,13321.72910234083,13295.577561328122,13304.071224221138,13306.328750411123,13324.612477375566,13381.385908292044,13340.30340198319,13337.64354439301,13349.132341043038,13335.07309378065,13317.504622638777,13338.984649060327,13355.971974846361,13347.523015442255,13340.504567683289,13329.596916389099,13348.707657898387,13337.442378692911,13323.897221552996,13299.53382009671,13313.548363870188,13324.947753542394,13286.525104823722,13267.05673540315,13279.461953575845,13305.725253310831,13327.048817521194,13290.660177547954,13268.017860414728,13268.889578448485,13246.604889226544,13254.539758508177,13271.303566849658,13301.724291053331,13293.431793860413,13245.822578170608,13229.23758378477,13253.533930007688,13262.698145234364,13294.728195038819,13317.72814008333,13391.153620619014,13444.41782765601,13384.358690304602,13297.96919798484,13355.726105657353,13481.164095540536,13449.491673647366,13228.857604129029,13206.774080607187,13283.954654211362,13286.234532145803,13241.173415323903,13257.62429924301,13288.559113569156,13311.11202372456,13283.015880944238,13257.110209120538,13259.725363221809,13264.91096793544,13258.764238210231,13242.76038918023,13235.138444320972,13211.33383647607,13243.073313602605,13253.645688729965,13274.701032006864,13286.525104823722,13240.90519439044,13198.123955502982,13228.90230761794,13261.424095800412,13267.973156925817,13261.222930100314,13275.840970974084,13299.690282307898,13298.885619507506,13274.835142473596,13261.468799289323,13283.77584025572,13301.25490441977,13283.664081533443,13269.336613337591,13317.191698216404,13373.965129132883,13363.571567961166,13351.12164629956,13386.415050794489,13351.16634978847,13378.971919890872,13416.098167431137,13411.583115051166,13480.627653673608,13473.273929747813,13450.89983354805,13494.351624769168,13511.450709277477,13510.131956354613,13493.47990673541,13538.563375301765,13562.658555824586,13574.54968387481,13567.039497737826,13557.96468948897,13543.972497459948,13511.67422672203,13534.137729899614,13536.752884000885,13522.760691971862,13499.090194593693,13446.541243379264,13395.534562532255,13385.11864961608,13361.761076660285,13297.25394216227,13250.538796250677,13249.980002639295,13241.173415323903,13229.036418084672,13209.366882964003,13199.666225870398,13179.102620971516,13138.511853040678,13150.17946364635,13151.386457846935,13174.766382547186,13153.711039270287,13125.905469167885,13133.616821004965,13137.908355940386,13136.41078906188,13133.102730882494,13128.654733735888,13151.431161335846,13153.80044624811,13128.721788969255,13117.747082441698,13167.680879554855,13157.533187572144,13125.570193001056,13125.614896489966,13178.208551193304,13186.925731530873,13180.063745983094,13181.22603669477,13169.379612133458,13168.731411544253,13181.248388439226,13162.852902752507,13180.89076052794,13207.556391663122,13189.965568776795,13155.901510226908,13169.267853411182,13190.904342043917,13180.399022149924,13145.999687433206,13174.878141269463,13187.439821653346,13171.883007512452,13184.042356496138,13171.301862156613,13188.825629809575,13180.689594827843,13151.855844480497,13118.864669664463,13213.367845221503,13207.288170729658,13189.764403076697,13168.17261793287,13173.89466451343,13218.933429590874,13226.75654015023,13197.90043805843,13195.262932212703,13171.346565645525,13211.155022520426,13230.109301818527,13215.33479873357,13197.632217124965,13229.729322162786,13238.915889133918,13232.590345453065,13237.708894933332,13252.282232318192,13234.400836753946,13213.61371441051,13247.767179938219,13227.605906439532,13227.494147717256,13252.103418362549,13268.286081348191,13275.39393608498,13315.314151682158,13293.275331649225,13272.935244194896,13283.261750133248,13324.008980275272,13288.91674148044,13280.177209398415,13331.295648967702,13320.365645929056,13327.853480321584,13331.630925134532,13329.976896044838,13318.756320328275,13304.227686432325,13296.404575872968,13337.151806014992,13337.241212992814,13322.4443581634,13308.787442301207,13294.34821538308,13239.4746827453,13238.915889133918,13250.807017184141,13255.120903864015,13267.10143889206,13248.750656694254,13199.129784003471,13184.712908829799,13210.462118442312,13240.882842645984,13229.684618673877,13230.466929729811,13246.828406671097,13234.467891987311,13193.340682189546,13195.195876979336,13233.976153609296,13269.537779037688,13234.311429776124,13222.24148777026,13229.483452973778,13301.053738719671,13364.17506506146,13362.230463293847,13336.123625770048,13309.30153242368,13393.74642297583,13481.029985073805,13343.298535740201,13167.949100488318,13178.32030991558,13205.94706606234,13230.690447174366,13240.592269968067,13225.773063394197,13205.477679428779,13244.10149384755,13272.711726750342,13243.81092116963,13218.128766790482,13215.155984777926,13250.091761361571,13253.980964896795,13254.33859280808,13270.409497071445,13293.141221182494,13309.525049868233,13276.690337263386,13238.915889133918,13286.569808312632,13282.948825710873,13305.792308544196,13296.449279361877,13298.01390147375,13339.454035693889,13347.21009101988,13282.792363499686,13303.043043976193,13322.667875607953,13325.506547153778,13328.613439633065,13364.465637739379,13379.486010013345,13391.354786319112,13373.74161168833,13358.967108603372,13414.377083108078,13431.520871105298,13427.028170469783,13431.520871105298,13455.258423716836,13470.14468552407,13465.048487788259,13484.941540353482,13519.832613448218,13529.957953686471,13548.308735884279,13559.708125556484,13620.728387919473,13618.917896618594,13624.036446098859,13583.713899101485,13604.92570458957,13635.547594493342,13637.268678816401,13611.586524437253,13594.465088184488,13631.680742702574,13621.555402464319,13549.001639962393,13531.567279287254,13525.48760479541,13472.938653580983,13420.680275044475,13379.709527457897,13371.282919798246,13360.26350978178,13339.990477560816,13321.818509318651,13318.242230205802,13308.854497534574,13291.598950815076,13245.733171192787,13248.415380527424,13258.116037621026,13273.494037806278,13219.536926691168,13253.109246863038,13276.176247140915,13270.610662771544,13253.265709074225,13263.167531867926,13250.76231369523,13226.533022705678,13242.559223480133,13228.455272728834,13250.874072417508,13268.822523215118,13248.035400871684,13246.068447359616,13244.213252569825,13262.161703367437,13258.205444598849,13239.854662401041,13259.01010739924,13274.991604684783,13241.531043235189,13234.087912331572,13248.169511338416,13261.267633589225,13260.57472951111,13232.433883241878,13240.86049090153,13275.572750040621,13260.418267299923,13248.884767160986,13257.020802142717,13270.4318488159,13276.19859888537,13250.404685783946,13245.554357237144,13281.831238488108,13284.491096078289,13247.4766072603,13225.90717386093,13247.275441560203,13241.911022890929,13261.155874866949,13252.975136396306,13286.189828656892,13292.381261871013,13276.958558196851,13240.368752523513,13247.633069471487,13266.967328425328,13276.645633774477,13237.217156555314,13252.684563718387,13300.606703830565,13297.365700884546,13283.977005955818,13269.649537759966,13274.857494218051,13252.304584062647,13246.157854337438,13264.888616190985,13284.312282122646,13274.4328110734,13257.66900273192,13277.897331463973,13279.126677409015,13280.82540998762,13288.134430424505,13274.678680262408,13307.669855078442,13295.063471205649,13268.174322625915,13228.678790173388,13239.139406578472,13274.946901195874,13305.702901566376,13264.24041560178,13281.54066581019,13329.395750689,13333.687285624419,13309.189773701404,13300.427889874923,13292.448317104378,13311.983741758317,13319.404520917478,13308.854497534574,13329.932192555929,13331.4968146678,13350.652259665998,13350.652259665998,13365.940852873428,13346.628945664042,13348.327678242646,13317.862250550063,13351.479274210844,13378.770754190775,13367.192550562926,13338.738779871319,13311.402596402479,13367.304309285202,13352.529806200244,13272.823485472618,13258.026630643206,13305.05470097717,13312.833108047618,13291.598950815076,13289.67670079192,13328.50168091079,13324.098387253092,13293.320035138135,13313.503660381277,13343.991439818317,13334.402541446989,13315.001227259783,13286.458049590356,13346.248966008303,13348.037105564727,13325.126567498037,13301.746642797785,13345.421951463457,13404.788184736752,13428.726903048386,13440.61803109861,13519.385578559111,13553.181416175536,13492.228209045912,13448.351734680145,13567.955919260494,13646.946984165548,13515.496375023888,13345.958393330384,13335.92246006995,13355.92727135745,13355.144960301515,13401.278960857268,13432.414940883511,13407.22452488238,13389.387832807046,13383.732841459852,13387.689100228441,13415.829946497674,13412.387777851556,13395.288693343246,13385.856257183106,13414.533545319266,13412.477184829377,13402.061271913204,13397.210943366403,13416.455795342423,13407.001007437828,13411.94074296245,13434.493653117856,13425.262382657813,13457.314784206723,13467.931862822994,13441.243879943357,13432.839624028162,13459.058220274237,13466.993089555872,13501.280665550312,13488.115488066136,13515.71989246844,13499.179601571514,13475.710269893441,13480.448839717967,13520.100834381681,13552.756733030885,13560.043401723315,13566.21248319298,13572.605082107197,13569.364079161178,13582.283387456346,13605.506849945408,13583.44567816802,13623.567059465297,13634.877042159682,13611.921800604083,13642.186062596567,13708.302522695367,13712.929333797614,13683.760307283439,13686.710737551539,13725.558069414863,13738.85735736577,13726.563897915352,13715.320970454333,13727.323857226833,13737.091569553802,13756.224662807545,13720.327761212322,13689.214132930534,13665.342469852267,13645.918803920604,13595.02388179587,13577.58952112073,13567.263015182378,13537.982229945927,13484.650967675563,13457.180673739991,13454.2749469608,13450.743371336863,13442.205004954936,13401.45777481291,13419.383873866067,13421.484937844865,13416.589905809155,13407.626856282575,13439.031057242282,13422.736635534364,13385.230408338359,13410.644341784042,13451.033944014782,13426.04469371375,13414.645304041542,13363.12453307206,13370.768829675775,13425.396493124545,13441.288583432268,13432.683161816974,13430.157414693525,13445.982449767882,13431.476167616389,13390.058385140705,13386.973844405871,13404.676426014476,13394.305216587212,13369.338318030635,13362.208111549391,13381.02828038076,13379.59776873562,13396.808611966208,13443.635516600076,13479.57712168421,13460.734601108385,13412.790109251751,13424.748292535342,13456.487769661877,13475.889083849084,13453.157359738036,13416.32168487569,13419.965019221905,13444.306068933734,13456.577176639697,13421.976676222883,13444.70840033393,13465.18259825499,13451.70449634844,13432.258478672324,13401.122498646082,13450.028115514293,13491.468249734433,13483.62278743062,13461.271042975313,13441.646211343554,13440.193347953958,13438.740484564363,13435.320667662701,13470.010575057338,13453.604394627142,13412.052501684726,13466.680165133497,13485.902665365062,13456.577176639697,13444.283717189279,13406.710434759909,13426.804653025229,13449.402266669544,13427.542260592254,13379.217789079881,13401.211905623903,13435.253612429335,13447.90469979104,13428.212812925913,13418.84743199914,13444.350772422646,13425.888231502562,13407.492745815844,13435.834757785173,13453.693801604963,13429.84449027115,13423.362484379111,13426.335266391668,13461.494560419866,13465.272005232813,13445.535414878776,13428.771606537297,13445.334249178679,13469.071801790215,13456.308955706234,13440.886252032073,13481.633482174097,13495.603322458664,13498.799621915774,13480.962929840438,13512.970627900439,13504.968703385437,13496.273874792323,13458.298260962756,13447.859996302128,13474.771496626317,13462.18746449798,13412.097205173637,13407.336283604656,13410.867859228596,13396.763908477296,13374.076887855159,13352.73097190034,13370.567663975677,13364.085658083637,13337.598840904098,13311.223782446836,13335.028390291738,13364.756210417298,13360.867006882074,13325.350084942591,13348.148864287003,13372.959300632394,13334.134320513525,13302.618360831542,13346.69600089741,13360.397620248512,13340.281050238735,13374.792143677729,13401.234257368358,13402.575362035675,13461.360449953134,13470.94934832446,13421.08260644467,13415.427615097478,13486.059127576247,13527.722779240941,13444.484882889377,13318.756320328275,13333.106140268583,13357.380134747045,13335.944811814406,13381.475315269867,13416.835774998162,13396.719204988385,13352.462750966877,13403.13415564706,13382.928178659462,13373.473390754867,13377.876684412562,13388.22554209537,13409.414995839,13400.764870734796,13360.330565015145,13398.149716633525,13437.891118275062,13445.066028245215,13412.812460996207,13369.003041863805,13401.03309166826,13430.738560049364,13428.27986815928,13443.344943922157,13439.969830509404,13423.518946590299,13398.373234078079,13394.84165845414,13447.435313157477,13456.152493495047,13459.751124352351,13448.172920724503,13478.95127283946,13491.132973567603,13501.750052183874,13497.123241081625,13533.020142676849,13530.941430442504,13507.896781909083,13505.438090018999,13534.942392700004,13574.281462941344,13580.942282789027,13562.435038380032,13559.082276711737,13601.461184198999,13606.982065079459,13593.950998062015,13585.747907846917,13604.143393533635,13627.500966489431,13644.756513208928,13681.905112493649,13706.894362794681,13703.966284271037,13683.514438094431,13661.743838994962,13661.721487250506,13671.46684783302,13631.233707813468,13566.190131448524,13557.092971455213,13520.614924504152,13473.855075103651,13434.717170562408,13429.240993170857,13448.843473058161,13417.70749303192,13351.859253866585,13305.613494588553,13348.037105564727,13353.26741376727,13316.476442393834,13299.44441311889,13312.989570258806,13321.93026804093,13296.136354939505,13259.568901010622,13293.230628160314,13313.34719817009,13304.048872476682,13259.121866121515,13298.617398574042,13336.995343803805,13323.271372708246,13299.91379975245,13276.332709352102,13285.787497256697,13294.795250272186,13280.423078587422,13286.39099435699,13316.834070305118,13330.647448378499,13299.10913695206,13287.039194946194,13334.78252110273,13322.623172119043,13315.247096448791,13299.53382009671,13327.54055589921,13344.036143307227,13291.129564181516,13254.942089908373,13269.761296482242,13252.483398018288,13239.966421123318,13243.09566534706,13275.975081440816,13280.266616376235,13306.708730066865,13273.672851761921,13259.479494032801,13290.883694992506,13278.34436635308,13243.609755469532,13254.606813741544,13247.72247644931,13287.732099024308,13284.11111642255,13283.217046644337,13324.411311675467,13318.309285439169,13304.652369576976,13304.071224221138,13369.69594594192,13357.514245213777,13324.97010528685,13278.098497164072,13299.086785207604,13335.07309378065,13363.236291794336,13333.843747835606,13328.009942532772,13353.200358533903,13342.225652006347,13310.150898712982,13342.963259573373,13371.282919798246,13354.876739368052,13321.594991874099,13344.572585174154,13382.905826915006,13381.207094336403,13351.16634978847,13355.368477746068,13377.02731812326,13376.155600089503,13328.68049486643,13315.805890060174,13346.271317752758,13365.896149384518,13364.97972786185,13318.197526716893,13356.3519545021,13362.878663883052,13383.956358904405,13357.871873125063,13388.739632217841,13424.882403002073,13438.204042697436,13442.875557288595,13431.498519360843,13417.886306987562,13373.942777388427,13332.25677397928,13336.59301240361,13387.55498976171,13433.309010661724,13369.897111642018,13360.665841181975,13400.340187590145,13366.74551567382,13304.048872476682,13281.697128021375,13316.342331927102,13327.428797176934,13285.34046236759,13287.374471113024,13298.48328810731,13287.57563681312,13310.150898712982,13306.842840533596,13305.412328888457,13327.987590788316,13316.856422049574,13266.766162725231,13252.215177084825,13282.926473966418,13302.73011955382,13338.962297315873,13375.574454733665,13433.934859506471,13429.889193760062,13433.934859506471,13472.424563458511,13431.789092038762,13380.380079791556,13431.23029842738,13553.024953964348,13529.801491475284,13395.243989854336,13321.416177918456,13316.945829027394,13333.217898990859,13337.911765326473,13344.438474707422,13310.977913257828,13355.949623101906,13376.557931489699,13341.219823505859,13298.572695085133,13306.194639944391,13307.848669034085,13324.59012563111,13326.981762287827,13357.670707424964,13346.87481485305,13327.54055589921,13306.842840533596,13293.163572926947,13350.719314899365,13393.791126464741,13382.704661214908,13356.307251013191,13369.383021519545,13390.930103174462,13394.193457864936,13349.311154998679,13381.274149569768,13423.18367042347,13418.51215583231,13402.150678891025,13421.172013422492,13458.18650224048,13466.747220366862,13490.596531700676,13489.925979367015,13477.386650727589,13532.416645576555,13547.749942272896,13539.837424735717,13553.315526642267,13555.148369687602,13567.151256460102,13579.824695566262,13594.621550395674,13609.083129058257,13618.73908266295,13643.1695393526,13676.719507780017,13688.364766641233,13684.60967357274,13697.394871401177,13722.51823216894,13746.188729547112,13759.689183198117,13748.53566271492,13733.090607296303,13732.151834029179,13737.33743874281,13708.32487443982,13700.591170858284,13652.356106323732,13630.27258280189,13570.54872161731,13550.767427774363,13569.386430905633,13537.244622378901,13443.881385789084,13436.348847907646,13461.293394719767,13436.684124074474,13394.752251476319,13381.587073992143,13390.88539968555,13370.724126186864,13389.276074084768,13365.247948795313,13397.054481155215,13382.592902492632,13371.193512820426,13357.581300447144,13390.661882240998,13406.88924871555,13394.349920076123,13369.830056408651,13364.845617395118,13349.422913720957,13358.944756858917,13364.17506506146,13368.220730807869,13393.411146809,13380.827114680662,13356.910748113483,13364.286823783736,13380.111858858092,13364.130361572548,13359.794123148218,13356.083733568637,13341.823320606152,13365.31500402868,13366.320832529169,13338.35880021558,13354.586166690133,13371.841713409629,13354.340297501123,13324.366608186558,13357.827169636152,13377.608463479099,13356.620175435564,13327.831128577129,13344.93021308544,13353.245062022814,13361.157579559993,13345.913689841473,13332.904974568484,13350.987535832828,13339.543442671711,13328.054646021683,13308.25100043428,13368.89128314153,