32771.345409315276,32887.261556060505,32942.26919916501,32982.547042673476,33069.517680349076,33238.47451668674,33311.810590244604,33334.810535289114,33407.69957395787,33496.27953723425,33579.673895797,33656.116861834154,33723.10503996671,33785.68992444157,33830.14754416318,33948.209458376106,34077.55900353897,34163.881440625366,34230.221418168716,34289.61000318647,34389.00821077922,34469.87682221852,34481.678543290924,34484.24899390328,34543.21289577638,34668.136795537095,34737.71777602646,34800.57088143479,34831.3715852942,34878.354952139256,34904.46178966305,34951.37810127474,35009.000898480524,35008.21858742459,34976.501462042506,34997.892081486236,35030.615035368806,35065.774329397005,35125.20761790367,35136.07056570894,35077.62075395832,35151.31445542746,35174.694380127716,35197.58256644995,35256.09943343394,35204.73512467565,35179.12002552987,35242.88955246086,35256.16648866731,35222.39300279534,35232.69715698924,35266.895326005855,35320.76303014315,35330.70955642576,35330.64250119239,35324.719288911736,35287.34717218246,35331.46951573724,35327.781477902114,35310.30241373806,35292.24220421818,35277.62416334441,35277.49005287767,35248.67865427478,35177.689513884725,35105.60513801636,35018.70155557413,34851.13052739269,34636.732594577385,34391.51160615821,34130.04089952003,33824.93958770509,33556.62924726358,33241.6484643994,32897.61041374331,32616.98426210693,32307.837284545578,31944.912009824755,31616.609587265208,31315.643348174497,31014.61005385042,30680.339715521302,30427.11680258713,30181.582889745583,29898.945081108224,29632.020548822948,29361.676199636007,29160.890479193986,28968.01727628914,28733.77099439752,28526.346805852274,28348.89630662159,28185.952089542403,28042.1186139725,27906.66704257334,27771.05900896299,27675.639411883287,27594.591986488344,27531.001273512993,27505.07324994484,27521.457078630578,27522.5970175978,27557.21986975907,27569.960364098595,27558.806843615395,27528.050843244895,27531.940046780117,27563.12073029527,27584.667811950185,27661.133129731792,27731.697586977196,27823.563256688507,27959.931249610338,28013.620139791983,28015.25181713722,28123.076632389624,28212.01422357729,28324.912884821046,28410.788287018335,28507.660747487636,28680.976173994088,28862.226469782174,29007.490456997213,29140.95272313985,29263.909669388497,29384.363220258147,29528.979006883983,29604.72906884302,29729.630616859275,29885.71284839068,30005.406439948852,30103.307080663097,30195.485674796782,30326.57865602716,30444.79703245128,30524.19042875653,30618.134810702184,30688.632212714223,30806.694126927156,30916.284729991527,30999.70144029873,31061.660475928842,31114.902331221383,31190.87591062497,31211.75243994623,31229.097393643548,31332.51891523825,31420.204808736424,31479.012248398336,31537.931446782524,31583.48430198244,31639.58718056526,31681.340239207777,31722.959187383556,31778.793845032913,31848.464232500108,31906.04232621698,31956.579620430428,31967.822547891446,32015.43176358125,32035.168353935285,32081.995258569154,32170.619925334446,32221.179571292352,32284.658525545423,32389.823483207645,32492.37328676859,32567.721017327432,32630.238846568926,32700.24451020295,32746.691435181077,32773.75939771645,32916.14000989676,33035.92300843275,33140.01508236111,33243.39190046691,33345.56172437212,33417.4896380293,33476.47589164685,33561.613686277116,33586.3794191336,33637.85548661417,33718.34411839773,33747.31197921181,33765.90863059862,33821.8326952258,33957.28426662496,34062.20335509817,34153.82315562048,34250.96383702324,34334.42525081936,34415.62913842549,34473.94483970939,34580.048570638726,34626.94253050596,34659.64313264407,34738.813011504775,34825.04604161335,34882.691190563586,34866.79910025586,34888.59205109978,35010.72198280358,35089.62364073082,35168.97233354716,35226.19279935274,35282.765064569125,35342.51127749816,35418.261339457196,35508.160055656444,35554.87520156804,35557.0433207802,35568.73328313032,35514.373840615015,35500.806331730644,35546.60505611957,35635.05090892922,35669.74081632386,35700.67563065,35746.87668643912,35781.96892523395,35829.98047232395,35883.24467936095,35907.38456337268,35932.999662518465,35975.73619791701,35983.604011965275,36012.66127975718,36016.28226235894,36058.79528031293,36099.22958603258,36109.55609197093,36144.02248192102,36161.05451119596,36188.45774989817,36177.885374770805,36090.646516161745,36031.99553871102,35959.8888110982,35852.77925166837,35722.088601838186,35555.210477734865,35365.108891142474,35195.07917107095,34968.052502638406,34721.57981652973,34489.21108117236,34238.87154327292,33915.1065248378,33565.54759330125,33250.81267962607,33016.23112156762,32750.20065906056,32505.404353786034,32226.6557486839,31989.23551907963,31800.09505749882,31512.60692031466,31211.618329479497,30987.095056425936,30810.896254884752,30580.159196872617,30380.44636016445,30253.84607956959,30104.42466788586,29953.237468390165,29823.79851624948,29714.945520752135,29628.57838017683,29588.591109346286,29557.4774810645,29456.35818914869,29382.932708613007,29351.66261812003,29343.683045349488,29344.53241163879,29359.642190890576,29338.922123780507,29358.926935068004,29442.030720952836,29488.276480230867,29479.872224315674,29510.18118979707,29602.940929286593,29691.789113496437,29754.396349715753,29837.343673389398,29898.989784597135,29925.54365701004,30049.886411414915,30180.130026355986,30294.839178900624,30346.248191147828,30412.431706479994,30532.795850371822,30639.123098745717,30725.333777109838,30765.90219329622,30821.692147456666,30931.72978541014,31080.502996504667,31151.603895616998,31255.71832128982,31341.481964764833,31393.60623283461,31474.430140784996,31602.103305113713,31655.41221563962,31746.160298128165,31765.561612315374,31743.165164371156,31760.644228535206,31830.806354380413,31863.037569884968,31831.231037525064,31814.601339650315,31883.332953850386,31954.74677738509,31958.23364952012,31944.353216213374,31952.109271539364,31922.69437583618,31905.103552949855,31889.323221364408,31869.45252054364,31914.513637365537,32033.179048678765,32131.50437253766,32111.678375205804,32065.611429883415,32063.331551948973,32149.16225065735,32162.595649074992,32176.36432365946,32172.206899190773,32169.144710200395,32150.79392800259,32177.101931226487,32181.23700395072,32169.88231776742,32241.363196535494,32291.76638028221,32297.44372337386,32362.375541016525,32423.686376057434,32479.699847662432,32539.87074373612,32577.91341279905,32654.110509647195,32726.3736994712,32791.886662469704,32819.60282559429,32889.38497178376,32954.83087954889,32952.75216731455,32980.378923461314,33057.15716566529,33100.58660514195,33114.467038448696,33203.56109184755,33255.1489180504,33269.319924035066,33343.23714294877,33443.75293776428,33480.43215041544,33499.36407796908,33508.9082728515,33522.22991254686,33612.709774101946,33712.57736832826,33826.57126505033,33917.453458005606,33965.82263300689,33943.69440599613,33953.70798751211,33940.27458909447,33953.506821812014,34044.76899442304,34127.51515239658,34147.47526019517,34155.87951611036,34216.4750953287,34243.92303751982,34287.039552574104,34320.72363146825,34338.24739912122,34349.93736147134,34336.16868688687,34347.07633818106,34416.07617331459,34396.65250738293,34415.33856574757,34383.21910896529,34348.88682948194,34312.006451130685,34243.61011309744,34131.627873376354,33946.2648566085,33756.63265664967,33564.02767467829,33291.82813070156,33060.66638954477,32881.315992035394,32686.878167018673,32435.08576572964,32119.97087239872,31816.367127462287,31481.89562343307,31179.07418955257,30853.67749377221,30543.144708054628,30296.33674577913,30035.000149607677,29697.533511821453,29409.955967659473,29166.25489786326,28974.32046822554,28774.31705883945,28578.068742521853,28339.97796058392,28092.298280274666,27912.992586254193,27753.73640701013,27571.524986210465,27458.045179610872,27347.001713156907,27231.62200827861,27144.76312932529,27148.451167160412,27185.890339123052,27138.23641994434,27066.084988842606,27012.53020912769,26981.617746546002,26997.979223487288,27013.513685883725,27032.333854715092,27085.061619885164,27171.585222671656,27272.749218076377,27304.354584736182,27362.98321044245,27436.296932255857,27515.757383794473,27621.74935600154,27717.14660133679,27807.045317536034,27854.118091358912,27949.224764016246,28066.616125895518,28209.15320028701,28365.168376585054,28494.92025314811,28660.703141773123,28846.021455052076,28938.222400930215,29011.402012276892,29107.648623901445,29190.39478187499,29272.492739259334,29383.62561269112,29544.71463498052,29600.4375339076,29666.1516626062,29784.727666941606,29906.43291550075,29976.460930879228,30116.58401686955,30189.182482860386,30194.03281140719,30259.23284998332,30406.843770366166,30548.106795323707,30607.16010417463,30624.7285753165,30673.656543929166,30741.158812184196,30808.035231594473,30859.287781630494,30903.141904251806,30961.12232936887,30978.959021444207,30962.73165496965,30993.353544873426,31011.436106137768,31044.784908865084,31137.11996520996,31231.2208093668,31360.324485340654,31522.732260552915,31634.222761895988,31657.088596473768,31678.523919406405,31760.48776632402,31791.556691116893,31902.73426803759,32053.20621171072,32152.045625692088,32227.192190550828,32217.960920090787,32279.00353419823,32369.282230053217,32468.903955090518,32531.935874454484,32595.437180452012,32678.071579703283,32754.91687714063,32813.38904063571,32917.257597119526,33024.38950829381,33033.44196479821,33068.467148359676,33148.642855720864,33215.02753675312,33330.3178346536,33427.05618465617,33502.22510125936,33584.23365166588,33643.108146561164,33724.64731033413,33762.8687933527,33764.79104337586,33781.890127884166,33807.30406132985,33880.64013488771,33965.19678416214,34020.71851738913,34059.18586959671,34102.347088139904,34171.346923273435,34242.49252587468,34300.24943354719,34307.603157472986,34371.015056492695,34475.15183390997,34559.909648884495,34621.488704858864,34694.46715050544,34720.95396768498,34746.18908717502,34795.89936684363,34755.532116357346,34731.325177112245,34769.904288042104,34796.52521568837,34847.68835874657,34856.807870484336,34862.93224846509,34884.4346266311,34888.413237144145,34901.064324505845,34917.984595058515,34948.20415356209,34980.32361034436,34914.408315945664,34809.28806177236,34767.06561649628,34702.55848199827,34613.173855921494,34477.699932777876,34339.4543933218,34189.69770547125,33954.62440903478,33732.9621592715,33476.9005747915,33163.14913787236,32860.01477956948,32563.11655796964,32274.600240540534,31981.144187586808,31638.35783462022,31337.68216820743,31034.123126759903,30702.892625676708,30343.454223090917,30008.535684172595,29687.139950649733,29429.759613246875,29147.278266820704,28867.05444658452,28532.60529429976,28219.77027890328,28019.54335207264,27777.228090432658,27550.335532466834,27363.676114520564,27223.86595295262,27114.342405121613,26989.35145012754,26936.46722274628,26894.535350148126,26859.84544275349,26818.36060504444,26751.10420597842,26695.738934962625,26668.8944898718,26668.872138127346,26658.500928700083,26666.882832870822,26689.52515000405,26747.326761165474,26788.54337794106,26821.623959734912,26915.054251558096,27018.811049319633,27135.196582698416,27231.465546067426,27326.70632919149,27443.605952692742,27586.388896273245,27776.088151465436,27897.636937813397,27973.230537561245,28132.531420294217,28310.630120114103,28480.503377974437,28679.702124560135,28790.36561135836,28930.645159559866,29118.17629553989,29241.13324178854,29367.08532179419,29551.643675761665,29733.16219248321,29853.124004974845,30006.859303338446,30124.407127428905,30225.392308877985,30416.41031699304,30638.072566756317,30797.015821578007,30850.570601292922,30862.081749687404,30971.98527717415,31127.911046494373,31252.074986943604,31292.151664751967,31337.771575185252,31385.11256994159,31441.975407835893,31483.393190311577,31502.481580076408,31626.600817036728,31717.594768714283,31736.102013123276,31834.06970907089,31917.709936822648,32022.405507851305,32070.037075285563,32067.33251420647,32137.89697145188,32206.405068207394,32289.173577925394,32336.089889537085,32374.579593489125,32487.90293787753,32577.91341279905,32630.261198313383,32774.564060516845,32863.479299960054,32890.2119863286,32980.5353856725,33092.227052715665,33219.72140308874,33305.68621226385,33407.118428602036,33503.38739197104,33569.25798288083,33657.68148394603,33777.64329643766,33863.0940154903,33948.92471419868,34040.8350873989,34090.14303566731,34129.191533230725,34242.671339830325,34360.55444008761,34459.77383372472,34554.63463719304,34634.497420131855,34726.76542124336,34789.03738129585,34847.64365525766,34954.21677282057,35038.1699249947,35116.870417221835,35237.65924425831,35335.60458846147,35369.22161212225,35431.9629588083,35511.35635511355,35536.03268099221,35541.8888380395,35606.77595219326,35713.81845638972,35781.70070430049,35853.5615627243,35865.251525074425,35816.23414948394,35835.36724273768,35881.545946782346,35906.57990057229,35979.35718051877,36098.603737187834,36143.64250226528,36100.23541453307,36123.61533923332,36188.100121986885,36263.246686845625,36368.322237530025,36372.300848043065,36396.30662158807,36406.47666531523,36316.75676307163,36303.457475120726,36360.65558918186,36366.936429373796,36367.7857956631,36405.00145018118,36434.21518018427,36373.351380032465,36240.671424945765,36094.04398131895,35932.48557239599,35782.1477391896,35578.81391987967,35339.672605952335,35097.290289078985,34914.67653687913,34662.392397212076,34380.7157135863,34030.70974716065,33697.020554187366,33408.2360158248,33150.60980923293,32849.04007304193,32529.25366511985,32252.15908910741,31957.9430768422,31631.697014772537,31322.080650577624,31011.078478226482,30745.964437242084,30553.247696548427,30345.48823183635,30117.992176770233,29928.784659956058,29715.437259130154,29554.504699051944,29402.848112922686,29230.627921894542,29080.98299276626,28964.932735554306,28795.55121607199,28704.914892305722,28684.91008101822,28671.38727562276,28614.56914121737,28596.95596658659,28540.115480436743,28526.369157596728,28528.93960820909,28521.69764300557,28592.03858280642,28639.267818840483,28690.788589809967,28750.959485883654,28839.986484049143,28878.744408934643,28961.892898308386,29016.78878269062,29111.403716969937,29191.892348753496,29304.902768719527,29451.21728792397,29586.221824434022,29725.249674946033,29818.70231851367,29946.12961365338,30155.58781094406,30322.264769347286,30399.60180516265,30511.449934417004,30651.863593085243,30737.426070860158,30834.92438017421,30960.89881192432,31119.842066746005,31238.1722018924,31284.261498959244,31317.185618541913,31420.853009325627,31587.99935436241,31761.09126342431,31937.580637643416,32044.48903137315,32122.898950922365,32187.204919720283,32267.850013715033,32300.88589201998,32351.087910066595,32440.04785299872,32536.67444427901,32625.120297088662,32622.683956943034,32606.814218379764,32636.765555949874,32690.834425787263,32737.370757743214,32755.38626377419,32780.62138326423,32788.86917696824,32810.95270049008,32861.78056738145,32945.04081547747,32960.28470519599,32969.51597565603,33043.94728469221,33080.24651768762,33137.28816953757,33241.268484743654,33340.10789872502,33355.84352682156,33390.041695838176,33362.48199492478,33401.97752737731,33462.01431298427,33456.113452448066,33488.92581330846,33561.457224065925,33603.52320713082,33671.025475385846,33729.89997028112,33783.38769476267,33879.053161031385,33969.84594700884,34068.55125052348,34120.42964940425,34155.074853309976,34257.02115977063,34312.74405869771,34398.19477775035,34465.00414192726,34569.498547255826,34689.929746381014,34770.887764798135,34860.518260063924,34908.127475753725,34949.947589629606,34975.652095753205,35041.92501806319,35085.555623239954,35084.41568427273,35105.15810312726,35105.94041418319,35138.685719810215,35220.5154562611,35294.20915773024,35372.9990569352,35413.34395567703,35440.769546123694,35479.16984309791,35544.861620052056,35667.34917966714,35738.33832005719,35777.96796297645,35786.953364247485,35841.42456548507,35892.76652249891,35965.76731988994,36009.8002564669,36057.90121053472,36119.234397320084,36172.297438656984,36197.331392446926,36186.80372080848,36221.80655262549,36233.58592195343,36235.23995104313,36189.17300572074,36157.053548938464,36095.318030752904,35996.21039583807,35885.79277822885,35707.38115398659,35483.57313675561,35223.890569673844,35007.033944968454,34759.5554303593,34502.28685167871,34259.859831316455,33968.08015919688,33688.348077338705,33426.9891294228,33214.2899291861,32980.24481299458,32658.69261726053,32345.70113965287,32056.782490823567,31775.48578685353,31520.60884482966,31256.813556768127,30977.640268521343,30656.624514654224,30496.966004009966,30378.83703456367,30217.993881463277,30051.42868178233,29887.925671091758,29722.03102374447,29587.406466890156,29476.45240741401,29446.098738443703,29461.744959562417,29407.363165302657,29369.85693810665,29332.95420801094,29299.404239583524,29234.584180663132,29178.503653824766,29224.5482474027,29284.69679173193,29361.09505428017,29363.352580470157,29402.781057689317,29456.000561237404,29527.123812094193,29582.1314551987,29678.28865984543,29798.652803737263,29863.159938235276,29904.86829338888,30019.0857075555,30168.216546561307,30257.221192982342,30389.96820330241,30542.67532142107,30621.39816539266,30705.440724544613,30773.725303855575,30893.821226813943,31074.870356901927,31278.785321567695,31373.512014569285,31466.405864525543,31559.947915071003,31615.15672387561,31694.013678313935,31740.393548058695,31841.557543463416,31921.241512446584,32039.795165037536,32137.852267962968,32159.064073451053,32107.275081548105,32081.011781813122,32121.06610787703,32183.248660951696,32269.19111838235,32315.68274684939,32371.98679113231,32440.338425676637,32413.918663730463,32398.160683889473,32441.6571785995,32442.014806510786,32410.342384617616,32435.175172707462,32427.70969005939,32372.97026788834,32335.57579941461,32326.16571499893,32312.82172355911,32338.92856108291,32415.5503410757,32475.38596098256,32527.845505219164,32565.888174282096,32648.477870044455,32659.65374227211,32667.543908064832,32734.53208619739,32784.845862966285,32851.69993063211,32949.93584751318,33047.61297078287,33141.66911145081,33180.85171948096,33216.56980712054,33237.80396435308,33217.218007709744,33201.57178659103,33306.580282042065,33446.83747849912,33522.76635441379,33540.267770322294,33555.62341876309,33575.33765737267,33621.85163758417,33697.04290593182,33736.13610698415,33756.9679328165,33918.638100461736,33985.022781494,33974.24924066654,34027.24522677007,34023.44543021267,34011.330784717895,34058.64942772978,34089.137207166816,34144.10014678242,34216.788019751075,34248.4827933887,34207.24382486866,34210.26131037013,34315.001584887694,34378.27937344067,34401.86046384102,34444.95462715085,34555.55105871571,34645.270960959315,34676.11636830764,34708.05701113427,34730.54286605631,34738.58949406022,34731.83926723472,34749.094813954216,34769.16668047508,34741.22699990594,34766.81974730727,34808.34928850523,34812.37260250719,34746.21143891948,34727.19010438801,34674.14941479557,34554.85815463759,34449.603789997556,34274.85785184596,34013.29773822996,33743.55688614331,33504.10264779361,33285.86021493199,33060.30876163349,32709.542835896355,32389.711724485365,32100.100171577953,31787.555728859395,31465.80236742525,31092.751752466174,30765.790434573944,30510.824085572254,30222.97832047681,29932.807973958013,29673.14775862071,29366.079493293702,29111.873103603495,28842.71339687269,28630.28241756945,28403.993356703922,28108.436239771396,27897.18990292429,27741.040616159513,27583.21494856059,27432.05010080935,27321.94540762251,27213.494743525356,27099.903178203487,27034.077290782607,26996.749877542246,26970.844205718542,26915.501286447205,26842.07580591152,26839.32654134352,26842.992227434188,26887.42749541134,26906.98527180973,26948.62657172997,26955.399150299927,26967.469092305793,27037.988846062286,27134.213105942385,27220.356729073137,27281.175825736027,27384.75380954192,27523.15581120918,27633.104042184837,27752.283543620535,27868.870242699417,27923.833182315015,28030.562762089106,28199.139618771034,28345.074158319734,28490.27109030141,28638.552563017915,28779.592070530904,28922.084441433486,29085.296879446138,29206.30922392717,29289.480065045365,29412.995804905393,29608.81943807834,29723.796811556436,29825.89958022828,29968.950744742247,30107.978595254255,30220.206704164353,30371.86329029361,30501.03402150083,30628.55072361836,30709.151114124194,30766.975077030074,30816.774763676498,30902.06902051795,30973.169919630283,31029.98805403567,31091.34359256549,31198.69902118433,31319.01846158725,31378.004715204803,31466.13764359208,31493.339716594186,31457.956905121435,31466.092940103168,31526.219132687944,31560.193784260013,31626.556113547816,31667.571564623307,31694.147788780665,31811.606205893306,31868.893726932256,31949.270599993542,31987.67089696776,32018.113972915886,32036.822383024977,32084.83393011498,32136.39940457337,32231.841353397533,32335.508744181247,32409.202445650393,32511.461676533425,32638.866619928674,32753.128737584204,32808.046973710894,32863.97103833807,33005.14465631779,33123.25127401963,33212.43473439631,33265.34131352202,33368.31580022762,33498.827636102156,33674.28883007632,33794.58591873478,33856.09791947579,33887.34565822431,33970.02476096449,34062.18100335372,34146.7600043726,34178.03009486557,34211.49065631517,34322.73528846923,34448.463851030334,34482.12557818003,34634.05038524275,34822.922625890096,34856.29378036187,34922.00790906047,35031.307939446924,35134.505943597076,35202.522301974575,35266.269477161106,35303.70864912375,35280.86516629042,35291.929279795804,35352.36839680295,35406.2584526847,35473.15722383943,35587.12876881704,35649.15485968052,35707.38115398659,35756.97967493292,35788.45093112599,35838.56354219479,35858.881277904664,35887.08917940726,35962.25809601046,36012.214244868075,36068.965324040095,36111.63480420528,36094.17809178568,36061.8127658144,36019.00917518249,35966.057892567864,35903.473008093,35807.0028790239,35685.20822348693,35495.59837527256,35292.26455596263,35115.93164395471,34925.80770561787,34687.51575797985,34364.68951281184,33987.36971466181,33637.60961742516,33350.36734943001,33064.71205529119,32734.554437941842,32376.45714002337,32075.759121866125,31807.180560491153,31556.1481185136,31273.08562673159,31006.228149679682,30765.745731085033,30498.66473658857,30198.659622509436,29951.516384067105,29722.45570688912,29493.32797447777,29320.101954949136,29100.47371393129,28961.937601797297,28846.557896919003,28679.746828049047,28561.41669290265,28500.016450883923,28417.762031288392,28382.55803377128,28328.623274400627,28247.888773428058,28166.3496096551,28156.22426941684,28171.445807390908,28211.366022988084,28241.809098936214,28275.001439452346,28266.798349237248,28239.395110535042,28302.02469849881,28395.47734206645,28449.881488070667,28520.468297060528,28627.80137393491,28792.086695681417,28866.920336117786,28931.58393282699,29073.539861862646,29211.4948286408,29387.24659529288,29577.348181885267,29682.78136048095,29825.743118017093,29986.943899028767,30135.06890953409,30294.727420178348,30400.33941272967,30520.211818243482,30687.91695689165,30833.180944106694,30943.777375671554,31014.81121955052,31106.92275845084,31215.17225684789,31393.472122367875,31546.380406186632,31649.93603824807,31780.067894466865,31879.64491601526,31945.22493424713,32116.796924686067,32191.295288955607,32293.01807797171,32315.01219451573,32333.675901135914,32342.437784962392,32415.036250953228,32473.396655726036,32537.63556929059,32651.65181775711,32731.581655929287,32782.72244724303,32757.420272519623,32773.89350818319,32842.28984621642,32891.12840785127,32988.3361444874,33121.731355396674,33130.403832245334,33182.25987938164,33307.31788960909,33408.86186466955,33439.95314120688,33408.59364373609,33480.27568820425,33560.54080254326,33668.969114895954,33781.57720346179,33897.22512927355,33994.58932812087,34081.55996579647,34168.64236219435,34265.179546496816,34376.13360597296,34419.36187974952,34483.46668284734,34535.25567475029,34605.484855828865,34681.99487709938,34775.648686367116,34891.1848534566,35010.900796759226,35119.105591667365,35253.99836945515,35351.988417147215,35419.87066505798,35463.478918490284,35471.05615986063,35522.0851924521,35626.803115225215,35759.81834647874,35864.625676229676,35990.62245972425,36045.58539933985,36114.22760656209,36218.45379095719,36223.549988693,36234.88232313184,36290.784036014564,36373.73135968821,36433.902255761896,36464.81471834359,36484.32779125307,36516.33548931307,36622.34981326459,36706.88411079456,36765.08805335618,36740.590541433165,36745.88790486907,36813.792504524296,36882.0547320908,36883.64170594713,36938.96227347401,37060.80163249989,37123.408868719205,37087.6013741018,37089.925955525156,37144.75478467403,37139.435069493666,37118.513836683494,37075.933763496134,37045.31187359236,37057.60533304278,37039.43336480062,36971.68522735658,36947.29947415584,36914.75533422892,36866.96730458347,36782.07537914221,36637.39253728301,36425.74386903571,36170.79987177847,35896.789836500866,35593.52136773126,35293.806826330045,35032.0678987584,34778.12973000166,34484.003124714276,34184.73561820217,33845.34673039278,33504.79555187173,33197.77199003363,32858.2042882686,32512.91453992302,32200.70537337129,31925.913027037746,31653.758186549927,31377.267107637777,31159.337599198534,30932.333282510437,30741.35997788429,30529.443088703527,30334.87115322008,30210.573102304115,30045.550172990585,29905.40473525581,29809.09106839789,29734.83857331736,29658.06033111338,29547.41919605961,29466.818805553772,29415.990938662406,29332.909504522027,29279.287669573747,29288.071905144683,29337.581019113186,29397.416639020044,29468.964573021483,29559.019751431915,29670.10792137479,29721.852209788827,29703.434372357653,29747.98139905708,29795.143579857777,29899.72739216416,30056.681341729327,30156.995970844746,30241.440861396895,30343.00718820181,30401.144075530065,30490.394591140106,30588.00465917643,30714.671995004657,30838.56771452042,30954.036826376538,31079.385409281902,31292.57634789662,31455.140585320067,31614.329709330766,31761.784167502425,31844.127994075778,31984.027562621544,32124.64238698988,32256.830603698567,32326.568046399123,32370.288058553706,32424.200466179904,32540.76481351433,32661.62069578418,32753.329903284302,32841.21696248257,32936.99418747356,33037.73349973363,33071.5069856056,33088.91899453628,33110.80135235803,33103.17940749877,33229.891446815906,33328.239122419254,33363.130195513986,33360.403282690444,33332.441250376854,33328.239122419254,33328.2167706748,33377.323553243106,33420.08244038611,33463.377769396044,33552.42711930598,33636.268512757844,33679.18386211203,33741.38876693115,33711.16920842758,33734.92911278357,33797.759866447435,33896.37576298425,33958.58066780337,33969.10833944182,33967.45431035213,34034.621302440326,34121.52488488256,34211.15538014834,34330.89367519542,34463.95360993786,34547.325616756156,34632.3740044086,34693.662487705056,34716.505970538376,34760.36009315969,34804.03540182536,34861.54644030886,34952.96507513107,35031.48675340256,35092.976402399116,35154.823679306945,35219.68844171625,35303.32866946801,35389.22642340975,35533.73045131331,35673.78648207027,35672.087749491664,35731.07400310922,35810.19917848101,35836.01544332688,35898.667383035114,35954.4349854511,36012.01307916798,36071.26755371899,36141.8320109644,36213.35759322138,36247.19813432672,36255.04359663053,36335.21930399171,36400.01701116765,36495.39190475844,36551.67359729691,36516.49195152425,36468.726273623266,36447.313302435075,36472.4590149473,36540.98946344727,36587.12346400302,36632.45280175839,36638.62188322805,36667.79090974223,36695.283555422255,36681.53723258224,36666.002770185805,36671.12131966607,36678.989133714334,36664.12522365156,36629.569426723654,36577.221641209326,36574.94176327488,36569.68910332789,36452.99064552673,36282.044503932535,36100.28011802198,35919.83448503429,35730.51520949784,35533.99867224678,35310.90591083836,35066.73545440858,34767.043264751825,34407.649565654945,34004.8264270814,33658.217925812954,33350.72497734129,33066.299029147514,32775.77105471743,32418.098439943606,32126.274064335117,31845.804374909923,31518.261911661855,31182.02461982067,30873.52584284852,30549.738472668945,30238.870410784533,29945.615523530905,29740.69473036465,29478.531119648353,29247.995227336316,29099.356126708524,28975.415703703846,28834.152678746308,28699.550473636446,28579.0969227668,28420.935979001046,28255.577773520683,28095.092248331577,27997.30336633961,27890.171455165324,27873.720571246216,27881.81190273904,27858.454329783242,27823.920884599793,27800.250387221622,27759.369046612865,27737.754909724583,27802.954948300714,27845.624428465897,27861.337704817975,27957.584316442528,28103.36239378004,28157.52067059525,28195.09395302462,28277.661297042527,28471.137997047663,28640.452461296616,28769.667895992745,28860.125405803374,28918.64227278737,29021.080317626038,29186.86320625105,29369.611068917642,29558.639771776176,29754.50810843803,29984.59696586096,30211.86950348252,30354.875964507577,30571.106740368217,30744.13159419675,30895.7434768371,31010.832609037476,31124.982967970725,31272.839757542584,31404.69269808444,31576.73407515694,31769.987257717523,31884.182320139687,32007.988632677632,32158.03589320611,32271.828624228077,32336.112241281542,32468.278106245773,32529.074851164205,32526.34793834066,32577.55578488777,32679.502091348422,32767.970295902527,32830.577532121846,32937.39651887376,33030.20096185219,33093.612860871894,33180.02470493611,33264.15667106589,33358.34692220055,33401.91047214394,33421.915283431445,33426.7879637227,33441.76363250776,33501.420438458976,33545.5651337582,33582.53491908728,33614.252044469366,33670.578440496734,33750.75414785792,33774.24583128045,33759.13605202866,33757.79494736135,33815.21657886703,33814.255453855454,33843.5362390919,33900.82376013086,33995.30458394344,34109.94668125471,34100.804817772485,34079.50360530658,34088.89133797781,34124.18474247274,34185.562632747016,34249.5333253781,34289.52059620865,34380.96158277531,34432.16942932241,34421.552350706144,34469.13921465149,34593.817245223196,34675.37876074061,34739.572970816254,34767.93733453004,34804.214215781,34892.77182731293,34902.316022195344,34906.29463270839,34947.3994907617,34967.04667413791,34967.85133693831,34976.23324110905,34990.87363372727,35041.92501806319,35153.95196127319,35205.58449096495,35215.866293414394,35297.22664323171,35392.95916473379,35416.83082781206,35408.5606823636,35464.037712101665,35465.89290689146,35495.441913061375,35530.71296581185,35563.100643527585,35536.50206762577,35481.78499719918,35455.70051141984,35464.752967924236,35520.29705289567,35541.50885838376,35506.774247500216,35513.613881303536,35504.673183521416,35407.59955735201,35377.40235059289,35303.35102121246,35148.00639724808,34975.18270911965,34829.628149226686,34644.153373736546,34375.217184450295,34075.50264304908,33822.65970977065,33531.84116266265,33194.933318487805,32870.45304423011,32537.367348357126,32181.549928373093,31851.213497068107,31439.36025373462,31083.1852058393,30741.516440095478,30450.31791333174,30138.891057835946,29791.075562366914,29409.128953114625,29056.32901863206,28704.981947539087,28407.971967216967,28161.99101948631,27916.211237455755,27728.3448253089,27516.62910182823,27336.11641360717,27181.15176929853,27007.456363136338,26911.03093755614,26791.918491353812,26694.688402973225,26604.812038518434,26518.802525854415,26474.72488578855,26437.062196381357,26395.75617262795,26338.423948100084,26321.25780835841,26332.768956752894,26389.095352780267,26412.207056547053,26431.295446311888,26511.49350541753,26595.91604422522,26686.731181947136,26804.815447904522,26928.57705695356,26995.229958919284,27074.533948246713,27243.803709006752,27437.325112500803,27560.79614887192,27697.700583660673,27830.626407936386,27975.53276724014,28142.321484365642,28285.30559364624,28389.844702463713,28534.92987572311,28722.282197747496,28919.15636290984,29074.99272525224,29184.15864517196,29290.977631923874,29400.72469719943,29480.900404560616,29610.47346716803,29780.436132006187,29908.556331224005,30042.487984000207,30146.043616061645,30233.41658513744,30313.68169947645,30392.650412637046,30471.26149788636,30551.19133605854,30607.473028597004,30673.433026484614,30816.171266576206,30960.31766656848,31101.91596769285,31210.83601842356,31272.0797982311,31298.76778111074,31373.601421547108,31472.1279111061,31565.289981995822,31659.9719715085,31776.67042930966,31887.69154401917,31960.446472221196,32046.76890930759,32099.921357622312,32209.310794986584,32331.574837157114,32409.247149139304,32548.900848496065,32697.048210745837,32810.25979641197,32930.46747809261,33041.555648035486,33101.055991775516,33134.29303578055,33288.43066554435,33444.26702788675,33567.827471235694,33676.61341149967,33754.129261270675,33868.7937103264,34014.23651149708,34132.700757110215,34255.814165570046,34391.37749569148,34545.2022010329,34709.55457801278,34852.4269285711,34941.900961625695,35025.3176719329,35142.91019951227,35284.59790761446,35334.53170472762,35377.55881280408,35441.23893275725,35590.70504792989,35723.608520461145,35852.33221677926,35935.34659568627,35968.1366048022,36036.13061143525,36117.066278107915,36216.44213395621,36302.384591386864,36374.91600214434,36470.536764924145,36562.245972424265,36645.88620017603,36752.21344854992,36824.94602500749,36865.782662127334,36908.40743880361,36931.429735592574,37023.00483262597,37136.551694458925,37240.2414369871,37412.03694487059,37536.37969927546,37603.68080183039,37682.046017890694,37743.40155642051,37839.80463025625,37962.672169527075,38106.86327300826,38178.4112070097,38246.11464096483,38275.283667479,38343.79176423452,38424.481561718174,38390.81983456849,38389.88106130136,38436.14917232384,38456.80218420055,38359.3038748865,38313.72866794213,38240.1243734508,38070.117005123735,37958.00065493592,37815.932967177985,37609.1793309664,37390.623973682406,37167.64297099626,36886.43567400404,36533.90396045494,36247.444003515724,35962.90629659966,35646.47265034588,35397.89890025841,35116.78101024401,34825.493076502455,34567.84451816613,34261.26799121714,33996.1763019772,33821.76563999244,33654.66399844456,33388.789998148684,33162.43388204979,32954.74147257108,32766.070397623826,32569.084473739207,32426.07801271415,32315.05689800464,32229.270902785174,32075.468549188205,31924.571922370425,31811.941482060134,31683.1283787642,31562.272496494355,31485.85188220166,31417.522599401786,31415.577997634173,31484.510777534342,31550.67194112205,31614.329709330766,31698.774599882916,31750.00479817448,31723.316815294842,31792.562519617382,31839.8141073959,31856.287343059463,31909.238625674087,32032.82142076748,32151.442128591792,32241.944341891332,32310.407735157936,32405.201483392895,32440.27137044327,32493.535577480267,32619.68882318602,32863.613410426784,33023.2942728155,33089.65660210331,33188.227795151215,33304.79214248564,33460.583801339126,33601.84682629667,33663.671751460046,33744.49565941044,33843.55859083636,33950.53403979946,34083.03518093052,34161.914487113296,34187.6189932369,34227.60626406744,34274.053189045575,34330.334881584036,34373.317286171594,34469.83211872961,34552.95825635889,34551.19246854693,34568.69388445543,34583.98247766286,34579.73564621635,34583.58014626266,34534.58512241663,34560.78136691825,34632.888094531074,34665.92397283602,34684.7888451563,34686.040542845796,34702.82670293173,34660.82777510021,34608.144713419046,34607.13888491856,34668.36031298165,34696.41175227305,34678.03861833079,34693.46132200496,34725.98311018743,34750.748843043904,34837.384204552676,34902.38307742871,34961.99517989101,35040.382747695774,35070.445843988164,35049.904590833736,35086.98613488509,35164.56903988946,35166.2007172347,35181.82458660896,35244.253008872634,35258.69223579076,35301.80875084505,35351.9437136583,35342.64538796489,35343.56180948756,35379.883394227436,35372.48496681273,35345.32759729953,35393.74147578973,35458.248610287745,35504.31555561013,35520.78879127369,35525.84028552059,35527.091983210084,35613.21325459638,35662.05181623123,35659.63782783006,35698.99924981585,35703.290784751276,35763.90871571407,35753.51515454235,35739.65707298006,35739.142982857586,35769.45194833898,35836.9095131051,35849.448841744525,35881.054208404326,35886.642144518155,35874.281629834375,35906.557548827834,35929.46808689452,35884.29521135035,35889.59257478626,35889.25729861943,35935.167781730626,35941.672139367125,35968.248363524486,35974.21627929405,35979.73716017451,35936.79945907587,35842.76567015239,35774.34698037469,35780.381951377625,35798.86684404217,35789.14383520411,35754.1410033871,35695.46767419192,35612.54270226273,35459.79088065516,35327.22268429073,35192.59812743642,34954.50734549849,34713.846112948195,34513.57448262865,34289.922927608844,34045.70776769015,33726.457801635006,33399.51883548723,33102.12887550937,32813.299633657894,32497.111856593117,32183.8968615409,31871.01714265551,31571.59317393222,31307.149685281478,31068.365999265436,30799.608623934822,30499.17882671104,30281.830463627633,30108.403278398906,29865.663333614273,29682.06610465838,29546.681588492585,29366.638286905087,29261.920364131973,29175.86614797904,29095.891606317953,28957.534308139602,28809.632815078836,28775.83697746241,28727.668968161222,28687.458179886125,28696.532988134983,28678.830406526376,28659.473795828082,28675.499996602535,28666.313429631406,28625.14151634473,28657.015103937996,28768.997343659088,28836.030225280552,28903.666604002312,28997.32041327005,29057.625419810465,29130.223885801304,29247.659951169488,29353.294295465268,29419.008424163872,29532.17530634109,29701.132142678758,29857.28142944353,29986.20629146174,30112.538351123138,30242.066710241645,30409.570683189715,30563.19422283104,30678.350410264782,30760.113091482293,30875.425741127223,31004.797638034543,31117.830409745027,31196.68736418335,31290.296469962177,31373.44495933592,31455.140585320067,31522.575798341728,31690.571509667818,31818.44583969663,31874.056979901434,31866.524442019996,31848.64304645575,31923.007300258556,32018.337490360438,32094.48988371967,32121.088459621486,32160.807509518567,32214.362289233482,32240.692644201834,32214.09406830002,32176.207861448274,32220.218446280775,32231.014338852685,32292.928670993886,32266.218336369795,32226.47693472826,32219.212617780286,32281.462226088315,32343.667130907434,32351.154965299964,32347.35516874256,32436.98566400834,32506.05255437524,32516.691984735968,32523.799839472755,32497.491836248857,32562.267191680337,32621.342852275713,32693.874263033184,32778.29680184088,32858.33839873534,32872.39764599772,32926.980605957586,32983.463464196146,33046.13775564882,33086.48265439065,33179.71178051374,33263.59787745451,33305.12741865247,33372.20500376284,33352.96015178682,33315.230407146264,33330.78722128716,33354.86005006552,33374.70839914184,33423.03287065421,33536.4679737649,33608.66410835554,33664.99050438291,33730.212894703494,33814.47897130001,33881.53420466593,33966.11320568481,34033.92839836221,34080.4423785737,34110.30430916599,34163.6132196919,34161.93683885775,34148.16816427329,34142.535524670544,34176.48782449816,34227.89683674536,34289.76646539765,34307.178474328335,34334.4028990749,34383.733199087765,34405.5708534206,34426.91676937542,34432.68351944489,34458.99152266878,34454.00708365525,34444.9322754064,34448.01681614123,34552.153593558505,34658.23497274339,34713.75670597037,34719.992842673404,34717.71296473897,34711.49917978039,34704.81600818825,34743.05984295128,34825.94011139156,34822.833218912274,34736.82370624825,34721.11042989617,34702.40201978708,34647.1261557491,34588.22930910937,34539.61426491907,34404.60972840902,34231.048432713564,34080.688247762715,33902.544844453914,33629.31712023224,33409.59947223657,33116.88102684987,32766.897412168673,32420.378317878047,32098.02145934361,31781.29724041191,31447.943323605457,31137.477593121243,30806.425905993692,30464.4889193164,30078.653106528895,29719.348814409834,29424.797525977796,29145.19955458636,28812.493838369115,28491.411029268627,28205.82279036317,27995.358764572,27805.637157635352,27564.528890195954,27340.095024120215,27174.289783750748,27051.109320057552,26903.99013805272,26763.6658863623,26643.882887826312,26558.36511354031,26494.260310442485,26461.246783881998,26397.678422651104,26348.772805782894,26376.757189840937,26371.146901982655,26376.958355541035,26382.009849787933,26383.9768033,26443.588905762306,26489.454685384597,26595.401954102752,26698.443496041717,26832.844535451477,26951.420539786883,27078.93724190441,27196.350955528138,27320.090212832718,27468.14816810467,27593.429695776667,27705.970729109136,27843.948047631748,27926.04600501609,28104.70349844736,28349.09747232169,28534.684006534102,28728.74185189508,28926.800659513556,29089.5660626371,29228.16923000446,29334.65294058954,29526.944998138548,29699.947500222625,29792.818998434428,29910.29976729152,30015.42002146483,30149.463432963305,30230.242637424784,30319.604911757102,30428.837886910187,30527.81141135829,30695.18127383963,30783.783588860464,30906.11468626436,31005.311728157012,31075.920888891327,31125.92174123785,31172.994515060727,31249.45983284233,31317.5432464532,31331.624845460043,31429.771355363293,31578.58926994673,31649.913686503613,31703.580224940804,31782.90656601269,31856.35439829283,31978.037295107522,32099.384915755385,32100.994241356166,32143.194334887787,32252.58377225206,32336.87220059302,32472.65904815901,32660.838384728242,32836.52309614696,32964.218612220124,33034.53720027652,33139.7245096832,33215.49692338669,33310.894168721934,33444.57995230913,33526.655557949016,33627.37251846463,33709.02344095986,33810.54506427587,33897.6498124182,33965.129728928776,34128.94566404172,34260.284514461106,34387.80121657863,34509.81938956015,34622.42747812599,34717.22122636095,34771.871241554174,34899.83497856081,35031.06207025791,35107.996774673076,35162.6467898663,35184.73031338815,35255.69710203375,35425.72682210527,35553.33293120062,35624.99262392433,35691.28789797877,35750.743538229886,35755.75032898788,35733.130363599106,35756.01854992134,35785.209928179975,35844.911437620096,35916.59348208827,36022.69721301761,36061.05280650292,36083.89628933624,36112.55122572795,36126.789286945976,36187.317810930945,36223.86291311537,36196.70554360218,36200.99707853759,36276.16599514079,36351.71489139973,36369.4845282417,36402.229833868725,36466.5581544111,36528.42778306339,36537.502591312244,36587.81636808114,36649.06014788868,36719.334032456165,36771.212431336935,36775.23574533889,36803.778923008314,36823.04612672879,36789.92084144602,36697.675192078976,36542.66584428142,36398.184168122316,36305.60324258843,36260.4080152998,36150.124508157314,35966.415520479146,35711.35976449964,35436.54506642164,35151.4485658942,34888.256774932954,34559.99905586232,34271.48273843322,33918.36987952827,33549.27552333778,33220.52606588913,32945.24198117757,32680.351457637724,32346.952837342364,31963.12868155583,31643.834012011772,31346.935790411928,31056.653685170855,30791.606699419823,30550.43137674706,30295.777952167748,30009.36269871744,29752.295285736953,29517.37845151168,29290.999983668327,29070.924707761373,28924.252560645647,28862.360580248904,28794.63479454932,28665.486415086558,28578.85105357779,28557.192213200597,28494.383811281183,28407.63669105014,28380.971059914955,28385.486112294926,28353.27724853483,28336.379329726617,28401.42290609156,28461.10206378723,28528.40316634216,28541.858916504258,28549.8384892748,28615.84319065132,28697.15883697973,28745.12568058082,28851.497632443625,28946.91722952333,29058.295972144126,29143.76904294122,29213.10415424158,29288.40718131151,29438.543848817808,29624.085679541313,29815.215446378643,29944.25206711913,30058.80475745258,30237.350492161575,30396.718430127912,30521.821143844267,30642.11823250273,30736.46494584858,30837.316016830926,30989.933727971762,31110.25316837468,31293.29160371919,31414.97450053388,31534.645740347594,31631.249979883432,31779.53145259994,31886.395142840764,31911.272634419518,31996.701001727703,32046.366577907396,32048.847621541932,32093.461703474728,32173.61505909146,32317.135610238984,32450.53082114826,32541.860048992643,32623.6003784657,32682.89955650563,32723.222103503005,32772.79827270487,32781.04606640888,32881.114826335295,32904.94178592465,32901.521969022986,32911.96023368362,32969.1806994892,32998.01444983655,33020.96969139215,33064.93557273574,33152.017969133616,33236.12758351894,33287.1566161104,33366.23708799328,33414.24863508328,33515.2114647879,33687.43165581604,33814.23310211099,33958.98299920357,34018.86332259933,33993.44938915365,33962.64868529423,34039.04694784248,34088.48900657761,34132.56664664348,34189.2730223266,34250.717967834236,34310.17360808535,34393.724428859285,34470.994409441286,34526.87377057955,34580.249736338825,34657.51971692082,34759.73424431494,34872.14116718068,34989.44312208213,35037.76759359451,35078.067788847424,35169.75464460309,35217.11799110389,35262.17910792579,35309.25188174866,35358.336312572515,35402.57041484957,35443.58586592506,35541.642968850494,35633.016900183786,35670.05374074623,35702.240252761876,35719.74166867038,35784.449968868495,35895.24756613345,36014.89645420271,36017.01986992596,36016.48342805904,36110.696030938154,36162.507374585555,36207.680250129735,36291.61105055941,36371.94322013178,36415.238549141715,36549.036091451184,36585.5364901467,36641.41585128497,36677.69273253593,36669.914325465485,36681.42547385996,36740.67994841099,36767.03265512379,36745.23970427987,36772.46412902643,36740.9705210889,36635.2467698153,36564.99523699227,36427.42024986986,36312.75580081413,36199.92419480374,36103.38701050127,35938.49819165447,35771.35184661768,35557.51270741376,35274.00318074264,34999.54611057593,34732.26395037937,34473.83308098711,34238.71508106173,34001.49601715756,33679.8991179346,33350.635570363476,33055.68195053124,32748.72544392651,32525.92325519601,32284.703229034334,32038.051728970022,31782.973621246056,31493.85380671666,31252.81259451063,31027.194085978757,30852.269333871525,30728.59713180031,30647.482651172002,30560.04262686284,30375.417217662005,30223.26889315473,30136.141793267943,30135.270075234184,30062.135167376422,29935.333721081464,29876.973316308657,29829.453507596674,29821.675100526227,29769.394370245263,29719.080593476367,29727.954236025125,29737.543134396452,29746.50618392303,29788.259242565542,29830.839315752903,29902.364898009888,30014.235379008696,30118.14863898142,30184.935651413878,30279.88586186002,30368.48817688086,30454.587096522704,30610.401107120648,30751.46296637809,30910.98736655562,31064.09681607447,31243.693082772865,31426.12802101708,31557.265705736365,31675.61819262722,31805.10184825681,31917.397012400274,31993.549405759506,32092.053543574042,32295.29795590615,32441.61247511059,32558.355636400658,32667.879184231664,32771.25600233746,32861.110015047794,32973.159310002244,33085.096846234424,33200.20833017926,33261.78738615363,33270.41515951337,33297.03608715965,33311.967052455795,33410.76176294825,33488.56818539717,33502.42626695946,33552.918857684,33550.21429660491,33548.537915770765,33555.511660040815,33590.98387849139,33630.390003966095,33626.50080043087,33651.221829798444,33690.158568639585,33726.83778129075,33686.448179060004,33695.970022197966,33739.377109930174,33799.81622693732,33834.14850642067,33822.50324755946,33870.76066383847,33925.16480984269,33951.15988864421,33985.760389061026,34037.30351177496,34025.59119768038,34014.77295336401,34019.645633655266,34101.11774219486,34223.33708087648,34282.54685193859,34292.4933782212,34398.73121961728,34493.72613355233,34535.5015439393,34572.22546007937,34638.408975411534,34706.939423911506,34746.0996801972,34734.54382831381,34790.669058641084,34834.27731207339,34867.33554212279,34966.13025261524,35045.568352409406,35139.75860354407,35245.66116877332,35286.09547449297,35373.28962961312,35444.56934268109,35502.68387826489,35488.40111355795,35513.70328828136,35597.9023096445,35644.17042066699,35665.53868836626,35668.95850526792,35652.038234715255,35687.8233775882,35804.54418713381,35914.15714194264,35977.34552351779,36001.23953834052,36019.41150658268,36001.68657322962,35926.428249648605,35899.56145281332,35906.91517673912,35926.20473220405,35967.22018327954,35981.391189264206,35979.491290985505,35997.70796271658,35965.5885059343,35832.3050537473,35696.719371881416,35561.58072490463,35432.20882799731,35240.40850882632,35030.749145835536,34818.1170008322,34618.42651586849,34411.09173430106,34182.612202478915,33926.50591451,33672.478338775436,33350.99319827476,32984.04460955198,32645.92977117655,32336.335758726094,32020.30444387251,31700.182759783598,31412.918140043992,31135.3988808869,30863.936944477195,30638.072566756317,30409.794200634267,30150.960999841813,29906.768191667583,29713.112677706802,29549.22968736049,29397.81897042024,29235.16532601897,29096.360992951515,29007.043422108105,28914.618958785413,28806.078887710442,28692.084990988376,28669.219156410596,28652.991789936044,28619.441821508626,28575.006553531475,28574.31364945336,28655.651647526225,28727.981892583597,28758.49202376509,28769.15380587027,28783.145997899297,28814.84077153692,28911.757935495134,29048.46120458379,29178.794226502687,29298.934852949962,29400.545883243787,29494.847893100727,29547.352140826246,29709.469343360586,29824.2902546275,29994.007050276647,30116.002871513712,30182.029924634688,30244.592457365092,30354.51833659629,30468.780454251824,30657.384473965703,30869.547232335477,31054.99965608116,31195.346259516034,31269.777568552207,31368.952258700403,31494.61376602814,31548.794394587803,31573.649534422108,31630.199447894032,31702.79791388487,31748.57428652934,31784.58294684684,31837.131898061267,31842.71983417509,31851.12409009029,31913.708974565146,32027.23348465365,32026.652339297812,32020.840885739435,32075.043866043554,32148.715215768247,32165.344913642995,32131.75024172667,32145.429509333317,32219.167914291374,32246.839373927043,32251.399129795926,32265.52543229168,32257.34469382104,32219.145562546917,32237.31753078908,32326.568046399123,32323.751726597755,32267.022999170185,32290.15705468143,32346.148174541973,32401.513445557768,32439.667873342976,32461.125548020074,32476.23532727186,32560.45670037946,32590.87742458313,32601.695668899498,32610.59166319271,32614.346756261202,32654.289323602836,32704.916024794107,32771.79244420439,32811.53384584592,32870.54245120793,32957.55779237244,33024.92595016074,33071.41757862778,33114.28822449306,33151.302713311044,33234.11592651796,33334.475259122286,33421.87057994254,33474.06190324568,33513.46802872039,33577.37166611811,33634.07804180122,33616.37546019262,33656.72035893445,33749.27893272387,33816.289462600886,33845.95022749308,33880.30485872088,33943.20266761812,34036.1859245522,34165.267248781594,34217.19035115127,34260.418624927835,34302.641070203914,34328.859666449986,34340.61668403348,34391.42219918039,34396.63015563848,34386.683629355866,34399.29001322866,34384.98489677726,34351.68079753886,34269.26991573214,34199.86774919841,34131.82903907645,34052.97208463813,33856.94728576509,33623.0362800403,33417.64610024048,33186.126731172415,32933.73083278308,32660.79368123933,32376.30067781218,32059.91173504731,31726.0884316073,31437.84033511166,31151.760357828185,30878.286764417502,30555.594629716234,30136.789993857146,29816.66830976824,29571.201452160058,29346.633475617586,29125.95470261034,28832.833925823445,28571.139701740707,28351.93614386751,28131.503240049275,27916.211237455755,27730.043557887504,27560.997314572018,27377.936527483052,27215.931083670985,27070.331820289117,26940.937571637343,26792.052601820542,26643.59231514839,26608.70124205366,26570.21153810162,26475.03781021092,26416.69975718257,26433.731786457516,26467.28175488493,26484.67141207116,26512.387575195742,26509.593607138828,26482.927976003644,26552.39719777074,26656.55632693247,26737.71551104969,26732.66401680279,26783.894215094355,26867.26622191265,26982.310650624117,27089.956651920875,27182.17994954347,27288.037811283808,27420.85187683724,27579.12457932527,27742.180555126735,27842.852812153436,27966.703828180296,28087.403248238952,28219.814982392192,28359.356923026673,28509.493590532973,28695.124828234297,28838.108937514895,28936.92599975181,29075.953850263817,29210.757221073774,29351.930839053493,29494.60202391172,29610.67463286813,29735.26325646201,29819.976367947624,29927.152982610824,29998.298585212066,30096.266281159675,30199.039602165176,30300.829446414646,30384.134397999576,30450.206154609463,30486.617146327157,30520.815315343778,30574.794778203344,30636.5302963889,30763.55526012841,30847.888391958284,30852.76107224954,30919.145753281806,31019.5721411195,31096.305679834568,31140.472726878255,31150.01692176067,31231.533733789176,31285.37908618201,31380.932793728447,31512.94219648149,31570.16266228708,31635.049776440836,31780.269060166964,31907.249320417563,31977.32203928495,32015.14119090333,32056.96130477921,32126.676395735314,32257.612914754503,32372.992619632798,32447.870963558074,32526.549104040758,32639.55952400679,32760.147185343172,32900.89612017824,33054.4526045862,33139.56804747201,33215.31810943104,33271.82331941406,33321.0642124491,33424.888065444,33538.07729936568,33679.250917345395,33821.05038416987,33870.246573715995,33950.42228107718,34107.64445157581,34197.38670556387,34217.30210987355,34260.73154935021,34369.51748961419,34407.42604821039,34480.18097641241,34565.07290185367,34678.619763686635,34778.48735791294,34830.74573644945,34887.787388299395,34998.04854369743,35108.7343822401,35178.87415634086,35218.28028181556,35285.98371577069,35372.66378076837,35409.87943528646,35417.61313886799,35440.72484263478,35486.5235670237,35501.76745674222,35450.336092750564,35374.94365870281,35297.00312578716,35170.916935314766,34971.69583698462,34760.94123851553,34532.9534450714,34222.577121565,33963.00631320552,33706.49769383642,33402.31280354414,33072.28929666153,32756.257981807947,32445.680492601456,32147.08353842301,31833.175639292676,31471.725579705904,31071.89757488937,30738.56600982738,30471.641477542104,30190.233014849786,29920.805087185516,29652.87472639975,29382.686839423997,29150.631028489,28923.134973422882,28659.160871405707,28428.736737815947,28276.789579008768,28134.207801128367,28033.2673231682,27914.490153132698,27788.158093471302,27677.584013650896,27632.344082873355,27569.669791420674,27495.39494459569,27445.215278293526,27441.214316036025,27474.786636207897,27507.084906945816,27523.044052486905,27565.93705009664,27642.245905667056,27677.13697876179,27668.844481568874,27740.05713940348,27843.255143553633,27909.081030974514,27997.750401228717,28110.023213627723,28203.431153706453,28370.935126654524,28515.30504409135,28655.606944037314,28855.878574356866,29037.017111422672,29191.981755731318,29344.487708149878,29505.97906183947,29668.252726585,29853.168708463756,29943.40270082983,30087.52674907765,30249.353378934073,30370.16455771501,30505.102038991696,30620.77231654791,30759.107262981805,30903.276014718536,31084.973345395727,31143.981950757738,31200.867140396495,31338.218610074357,31438.46618395641,31552.795356845305,31648.349064391743,31803.87250231177,31906.64582331727,31961.832280377424,32058.280057702075,32125.1341253679,32162.036855463608,32224.353519005006,32303.210473443327,32376.658305723467,32499.23527231637,32641.437070541037,32635.290340815827,32622.326329031748,32657.32916084876,32713.208521987024,32863.30048600441,33027.96578740666,33140.1715445723,33206.600929093474,33281.70279046331,33350.09912849654,33428.46434455685,33503.43209545995,33537.92083715449,33635.26268425735,33747.31197921181,33792.61896522271,33851.31464616235,33922.63906271924,33978.29490641295,34002.83712182488,34109.56670159897,34216.38568835088,34283.843253117,34383.889661298956,34469.13921465149,34525.66677637897,34616.392507123055,34637.80547831124,34703.89958666558,34826.56596023631,34963.51509851398,35123.0394986915,35291.996335029165,35398.63650782544,35431.22535124127,35473.58190698408,35522.01813721873,35561.37955920453,35616.54366452023,35688.76215085532,35757.56082028876,35838.831763128255,35892.788874243364,35971.444662981594,36049.98869299754,36128.48801952458,36194.537424390015,36257.92697166526,36276.83654747445,36336.6274638924,36392.90915643086,36403.74975249168,36450.7554710812,36532.00406217624,36664.21463062938,36745.619683935605,36779.66139074104,36807.24344339889,36803.309536374756,36749.44183223746,36704.60423286012,36636.52081924925,36526.97491967379,36420.51356083317,36252.24962857361,36084.87976609227,35862.6140192287,35624.344423335126,35372.61907727946,35064.097948562856,34756.202668691,34432.08002234459,34123.42478316126,33819.68692775809,33508.70710715141,33150.52040225511,32810.25979641197,32465.439434699947,32172.944506757798,31879.577860781894,31544.972246285946,31198.69902118433,30918.02816605904,30717.197742128104,30494.104980719687,30267.03360879822,30049.439376525806,29854.375702664343,29678.959212179092,29510.024727585882,29292.542254035743,29153.849679690564,28984.714029397255,28791.7961230035,28765.59987850188,28719.108250034842,28674.33770589086,28640.29599908543,28655.182260892663,28659.563202805904,28621.05114710941,28627.220228579074,28618.19012381913,28662.066598184898,28637.122051372775,28691.213272954617,28748.612552715847,28791.952585214687,28822.37330941836,28892.423676541293,28975.54981417058,29067.393132137437,29175.642630534487,29299.292480861248,29423.88110445513,29551.308399594833,29699.344003122333,29852.364045663366,29988.776742074104,30105.922234764366,30243.497221886784,30365.82831929068,30467.729922262424,30669.07443631583,30878.845558028886,31019.370975419402,31215.17225684789,31394.16502644599,31517.814876772747,31617.905988443614,31731.85518167677,31857.69550296015,31911.227930930607,32041.449194127228,32173.972687002744,32300.036525730673,32379.98871564731,32455.537611906246,32467.831071356664,32504.554987496733,32633.16692509257,32698.210501457514,32727.781859371888,32756.548554485867,32761.66710396613,32836.098413002306,32861.48999470353,32935.496620595055,33048.328226605445,33113.14828552584,33161.07042563801,33234.18298175132,33315.69979377983,33400.14468433198,33456.78400478172,33528.42134576099,33585.1277214441,33664.87874566064,33769.44020622256,33856.85787878727,33928.137591855244,33969.06363595291,34047.764128180046,34152.34794048643,34277.42830245833,34416.456152970335,34515.56378788516,34569.275029811266,34647.48378366039,34751.01706397737,34847.10721339074,34975.89796494222,35142.731385556624,35213.3628980354,35269.46577661822,35329.23434129171,35379.99515294971,35460.77435741119,35524.096849453075,35651.14416493704,35761.65118952408,35813.5519401493,35842.117469563185,35828.72877463446,35860.088272105255,35951.12692727172,36031.772021266464,36155.44422333768,36222.03007007004,36272.52266079458,36383.409665037354,36481.35500924051,36543.872838482006,36636.856095416086,36751.4758409829,36824.05195522928,36828.678766331526,36876.422092488065,36899.846720677226,36913.25776735041,36933.24022689345,36982.39171295067,37005.32460276182,36999.043762569876,37016.79104766739,37049.78222248342,37125.59933967583,37170.83927045337,37145.53709572996,37072.06691170537,36969.71827384452,36923.047831421834,36851.27637997585,36719.55754990072,36546.19741990536,36331.91124581233,36112.39476351676,35814.2001407385,35490.01043915873,35239.000348925634,34996.349811118824,34665.09695829117,34374.2113559498,34065.26554408855,33692.1031704072,33326.09335495155,32968.75601634455,32641.21355309648,32370.489224253804,32109.9796426272,31920.436849646194,31685.341201465275,31394.097971212625,31108.621491029444,30860.472424086624,30629.40008990766,30315.738059966334,30111.666633089382,29959.607715559927,29856.990856765613,29716.0631079749,29594.581376860308,29483.761427850895,29366.213603760436,29216.769840332254,29138.494031249767,29075.79738805263,29013.525428000146,28974.856910092465,28953.98038077121,29009.010375620175,28985.742209642198,28980.422494461836,29048.640018539434,29140.103356850548,29162.164528627938,29146.38419704249,29226.98458754833,29262.590916465633,29302.98051869637,29425.445726567,29590.446304136076,29762.59943993085,29950.30938986652,30021.902027356868,30118.52861863716,30215.669300039925,30297.18611206843,30428.79318342128,30599.493455826458,30792.74663838704,30921.40327947179,31056.608981681944,31163.897355067416,31251.672655543407,31360.68211325194,31486.32126883522,31553.644723134606,31662.430663398587,31742.338149826308,31877.58855552537,31962.771053644545,32057.408339668316,32163.35560838647,32240.29031280164,32292.05695296013,32320.44366841837,32336.358110470548,32343.06363380714,32403.860378725578,32511.260510833326,32585.91533731405,32632.295207058814,32696.310603178812,32840.36759619327,32922.46555357761,32938.55880958543,32954.54030687098,32986.12332178633,33005.412877251256,33025.44004028321,33078.21250894219,33175.152024644856,33247.45991795778,33308.882511720956,33357.87753556699,33458.90742050498,33572.96837246041,33693.82425473026,33789.44501751006,33883.65762038918,33928.405812788704,33959.1171096703,34041.55034322147,34190.90469967183,34278.12120653644,34294.28151777763,34362.02965522166,34432.23648455578,34484.338400881104,34577.18754734845,34687.11342657965,34853.41040532713,35007.23511066855,35114.8364084764,35173.68855162723,35211.99944162362,35260.86035500292,35354.067129381554,35431.65003438593,35556.05984402417,35686.03523803178,35807.13698949063,35878.260240347416,35912.860740764234,35992.9470411476,36139.84270570787,36251.3555587954,36325.742164342664,36356.162888546336,36361.30378977106,36406.47666531523,36478.20341327231,36594.29837397318,36630.77642092424,36731.24751225085,36846.76132759587,36895.085799108245,36948.12648870069,37019.09327734629,37124.2135315196,37152.153212088735,37120.72665938457,37127.72275539908,37022.58014948132,36887.329743782255,36765.91506790103,36626.1943133109,36451.18015422585,36292.66158254881,36099.877786621786,35803.35954467768,35545.84509680809,35291.77281758461,35037.56642789441,34755.576819846254,34456.84575520107,34171.078702339975,33874.0463702734,33527.32611028267,33188.56307131804,32895.37523929778,32573.532470885813,32283.607993556023,31910.73619255259,31612.362755818696,31422.328224459678,31214.5687597476,30985.32926861397,30825.760164947533,30631.63526435319,30402.35106973065,30194.59160501857,30053.32858006103,29916.200627827722,29793.824826934913,29701.132142678758,29633.361653490265,29578.42106561912,29502.78276238236,29459.666247328074,29478.844044070727,29452.20076468,29460.895593273115,29500.25701525891,29590.781580302904,29669.68323823014,29663.134177104734,29656.763929934972,29669.526776018953,29723.12625922278,29831.219295408642,29881.37660996635,29977.958497757736,30066.471405800752,30204.64989002346,30264.686675630415,30359.86040352111,30496.116637720665,30667.77803513742,30822.295644556958,30987.922070970784,31169.37353245897,31268.101187718057,31350.981456158337,31482.56617576673,31630.065337427302,31797.122275486265,31948.55534417097,32080.810616113024,32209.690774642324,32306.607938600537,32397.668945511457,32436.963312263884,32551.516002597335,32746.62437994771,32882.567689724885,32986.50330144206,33053.17855515225,33177.387199090386,33264.000208854704,33299.74064823874,33333.20120968833,33393.70738192885,33482.66732486097,33562.083072910675,33605.579567620705,33639.91184710406,33685.688219748525,33716.42186837457,33734.280912194365,33824.961939449546,33811.12620963171,33791.322564044305,33872.19117548361,33923.041394119435,33966.62729580728,34053.620285227335,34157.444138222236,34266.02891278612,34362.14141394394,34480.58330781261,34600.85804472662,34664.40405421305,34743.86450575167,34825.6718904581,34922.83492360532,35018.098058473835,35049.23403850008,35066.28841951948,35103.50407403756,35137.81400177646,35157.43883340822,35252.45609908773,35347.33925430051,35444.479935703275,35535.004500747265,35654.02753997178,35784.427617124034,35893.86175797722,35927.52348512691,36001.53011101844,36069.8146903294,36121.603682232344,36127.48219102409,36226.9474538502,36363.67307468332,36436.137430207425,36461.32784620856,36512.200416588836,36578.473338898824,36612.582100937616,36693.65187807702,36701.854968292115,36705.297136938236,36813.166655679546,36933.59785480474,36944.572561332294,36989.41016070964,37055.7948417419,37033.443097286596,37038.695757233596,37063.46149009007,37074.03386521743,37059.661693532675,37071.10578669379,37113.127066269764,37088.607202602296,37071.17284192715,36961.69399758506,36809.54567307779,36659.409005571484,36455.89637230592,36253.76954719658,36007.721544232554,35736.63958747859,35423.64810987093,35141.32322565594,34866.039140944384,34569.11856760008,34236.41285138283,33976.48441511207,33690.650307017604,33391.80748365015,33076.223203685666,32740.14237405567,32476.324734249683,32225.694623672323,31946.543687169993,31650.226610925987,31374.2049186474,31131.86730526296,30953.612143231887,30767.578574130366,30583.28844109636,30458.766872735843,30372.24326994935,30221.97249197632,30073.512205304174,29934.149078625334,29819.171705147233,29778.513881983028,29733.810393072417,29707.32357589288,29672.611316753784,29648.940819375614,29641.385929749722,29678.713342990082,29690.850340229317,29721.40517489972,29812.868513210837,29887.210415269186,29946.710759009216,29991.97304153121,30072.081693659034,30163.097997081044,30230.957893247356,30350.62913306107,30484.180806181528,30637.379662678202,30782.017801048496,30913.468410190155,31014.90062652834,31124.602988314986,31277.84654830057,31420.13775350306,31592.134427086647,31695.623003914716,31814.221359994575,31955.193812274196,32107.297433292562,32208.684946141835,32390.918718685953,32502.27510956229,32550.57722933021,32602.053296810784,32652.389425324134,32722.41744070261,32777.5368425294,32914.97771918508,33002.86477838335,33091.22122421518,33154.54371625707,33181.25405088116,33242.00609231068,33347.55102962864,33446.390443610006,33512.171627541975,33566.19579389045,33680.63672550162,33728.17888595806,33801.22438683801,33863.18342246812,33907.28341427844,33981.424150636696,34031.51440996103,34073.08865464791,34124.22944596165,34163.322647013985,34164.99902784813,34206.81914172401,34275.95308732428,34328.725555983256,34406.39786796545,34435.49983924626,34455.99638891177,34498.68822082141,34555.12637557106,34585.144768374535,34657.497365176365,34740.93642722803,34747.910171498086,34748.44661336501,34819.23458805497,34904.685307107604,34949.232333807035,34980.03303766645,35009.40322988072,35045.07661403139,35076.83844290238,35156.41065316327,35282.31802968002,35371.836766223525,35432.32058671959,35467.032845858674,35561.93835281591,35682.90599380803,35785.18757643552,35818.826951840754,35860.26708606089,35934.608988119246,36010.78373322293,36110.94190012716,36187.943659775694,36202.96403204966,36197.97959303613,36261.570306011476,36355.33587400149,36417.049040442595,36479.633924917456,36559.742577045276,36601.897967087985,36659.140784638024,36696.87052927858,36766.40680627904,36836.85950480217,36865.313275493776,36919.67271800908,36983.71046587354,37077.02899897444,37133.10952581281,37189.815901495924,37303.89920519581,37420.396497296875,37515.592576932024,37536.42440276437,37567.15805139042,37583.49717658725,37639.84592435908,37641.03056681521,37619.79640958267,37675.96634339885,37718.7028787974,37676.10045386558,37566.68866475685,37518.118324055475,37409.80177042506,37255.395919727795,37077.76660654147,36906.2616713359,36728.1182680271,36493.71552392429,36229.22733178465,35964.47091871154,35673.04887450324,35340.81254491956,35060.00757932754,34788.0092010509,34515.988471029814,34212.56354004902,33885.80338785689,33522.14050556904,33250.991493581714,32991.353629988866,32659.430224827556,32335.44168894788,32037.068252213987,31743.299274837886,31571.81669137677,31434.93460833247,31237.23342862528,31041.76742336362,30865.05453169996,30718.292977606416,30600.298118626848,30493.45678013048,30398.797142362255,30347.38813011505,30297.36492602407,30193.317555584617,30144.25547650522,30103.284728918643,30085.04570544311,30050.8922399154,30047.71829220275,30082.922289719856,30086.655031043894,30145.708339894813,30184.712133969326,30222.665396054435,30221.301939642664,30279.260013015275,30391.242252736363,30491.199253940496,30603.8743977397,30713.733221737533,30771.110149754306,30886.601613354876,31022.455516154234,31120.959653968774,31211.32775680158,31348.187488101423,31535.562161870264,31711.17981805561,31872.224136856097,31980.920670142255,32138.03108191861,32300.997650742254,32461.661989887,32592.93378507302,32715.555455154834,32806.97408997704,32861.110015047794,32933.28379789398,33076.80434904151,33149.11224235442,33226.96336829226,33362.146718757955,33395.160245318446,33447.016292454755,33505.68962164994,33623.77388760733,33712.51031309489,33737.410156418104,33816.08829690079,33885.490463434515,33924.09192610883,33931.53505701245,33975.27742091149,34002.85947356933,33999.305546200936,34014.99647080857,34106.66097481978,34192.871653183895,34196.783208463574,34200.82887420999,34252.729624835214,34362.834318022055,34422.4240687399,34503.24797669029,34584.94360267444,34605.17193140649,34623.47801011539,34630.4741061299,34675.71403690744,34731.72750851244,34833.85262892874,34934.480182466534,34996.43921809664,35035.2194947266,35039.488677917565,35110.1872456297,35182.96452557618,35212.53588349055,35245.862334473415,35367.925210943846,35503.9802794433,35615.06844938618,35699.40158121605,35736.70664271196,35800.14089347612,35884.47402530599,35981.41354100866,36110.60662396033,36166.217764165136,36169.39171187779,36174.26439216905,36225.69575616071,36293.82387326049,36403.36977283595,36486.87589012097,36600.087475787106,36735.15906753053,36817.771115037336,36860.552353924795,36913.63774700615,36979.64244838267,37024.79297218239,37093.74810382701,37130.02498507798,37216.41447739774,37313.063420422484,37411.81342742604,37522.2086932908,37572.34365610405,37569.996722936245,37601.84795878505,37605.87127278701,37655.22392454433,37743.937998287445,37808.735705463376,37838.35176686666,37829.81340048473,37821.36444108062,37811.64143224257,37780.348990005135,37698.966288443364,37658.97901761282,37528.66834743838,37388.12057830341,37304.279184851555,37156.60120923534,36957.0224829939,36757.89079164157,36530.41708831991,36212.24000599862,35897.39333360116,35605.546606248216,35261.64266605886,34952.74155768652,34636.24085619937,34347.21044864779,34043.40553801126,33775.89986037015,33505.91313909449,33198.37548713392,32940.83868751987,32701.18328347007,32449.972027536875,32214.742268889222,31986.57566148945,31740.66176899216,31488.71290549194,31259.94280099187,31060.6322956839,30897.73278209362,30762.99646651703,30605.170798918105,30511.718155350467,30430.64837821107,30364.06253147871,30298.86249290258,30241.418509652438,30203.912282456433,30227.403965878962,30257.534117404717,30248.571067878136,30248.526364389225,30251.096815001587,30265.267820986253,30313.502885520804,30377.898261296545,30412.856389624645,30502.822161057255,30599.113476170718,30676.517567219445,30745.47269886407,30878.4879301176,30994.292318140546,31056.944257848772,31116.377546355434,31199.36957351799,31296.353792709568,31467.210527325933,31627.91956995959,31815.741278617537,31862.612886740317,31879.756674737535,31980.965373631167,32125.245884090175,32251.62264724048,32332.49125867978,32413.56103581918,32488.32762102218,32549.72786304091,32618.325366774247,32675.434073857556,32728.832391361284,32802.54844457489,32867.03322732845,32927.69586178015,32918.710460509115,32880.04194260144,32879.97488736807,32896.3140125649,32900.046753888935,32941.08455670888,32892.46951251859,32840.99344503802,32900.65025098923,32977.294382726475,32992.29240325599,33049.82579348395,33011.02316510954,32896.24695733153,32889.34026829484,32888.75912293901,32889.67554446167,32977.026161793015,33083.21929970018,33105.05695403301,33096.65269811782,33138.092832337956,33153.15790810083,33128.45923047772,33095.82568357297,33081.98995375514,33057.02305519856,33073.09395946193,33177.70012351276,33318.20318915882,33359.30804721213,33354.92710529889,33405.33028904561,33450.52551633424,33520.53117996826,33567.201622390945,33639.50951570386,33794.29534605686,33890.2960884924,33914.771248670964,33944.499068796526,34013.94593881917,34124.49766689511,34175.39258901985,34219.26906338562,34291.75577065418,34332.74886998521,34328.88201819444,34461.71843549233,34540.754203886296,34634.76564106532,34733.8956277246,34761.231811193444,34787.606869650706,34873.37051312572,34979.45189231061,35057.19125952617,35096.731495467604,35170.15697600329,35238.933293692266,35266.269477161106,35306.4355619473,35312.42582946132,35306.83789334749,35341.66191120886,35401.43047588235,35460.52848822218,35537.50789612626,35547.56618113115,35557.0433207802,35589.07337058465,35600.025725367756,35610.41928653947,35599.62339396756,35587.75461766179,35566.29694298469,35601.14331259052,35680.29083970676,35713.46082847844,35760.533602301315,35771.50830882887,35747.01079690585,35736.84075317869,35714.466656978926,35607.513559760286,35478.76751169771,35305.98852705819,35155.605990362885,34960.274095567955,34774.396988677625,34585.12241663008,34335.6545967644,34055.76605269504,33803.146636861165,33469.34568516561,33105.302823222024,32757.39792077517,32397.55718678918,32097.239148287674,31811.829723337858,31495.060800917247,31121.943130724805,30699.584567497324,30312.43000178695,30003.551245159062,29733.139840738757,29494.378506467165,29251.571506449167,29007.110477341474,28812.89616976931,28610.32230977086,28425.853362781214,28238.59044773465,28040.50928837172,27884.382353351397,27737.553744024488,27601.677489480677,27486.700116002576,27417.879094824686,27393.918024768594,27358.624620273666,27303.348756235693,27342.93369566604,27373.443826847535,27383.770332785887,27399.86358879371,27430.61958916421,27475.6360024972,27553.956515068596,27543.719416108062,27628.298417126945,27690.19039752369,27750.271886619557,27823.093870054945,27917.306472934066,27923.296740448088,27960.71356066627,28103.85413215806,28301.711774076437,28440.04672051033,28526.324454107817,28600.37578348825,28752.211183573152,28937.753014296653,29054.45147209781,29204.521084370743,29428.485563812923,29581.4832546095,29698.740506022037,29798.071658381425,29855.783862565026,29918.659319717804,30041.839783411004,30208.315576114128,30329.506734550803,30502.55394012379,30608.43415360858,30727.188971899628,30848.29072335848,30930.88041912084,31042.14740301936,31183.678648910365,31333.368281527553,31416.896750557036,31474.407789040542,31491.126893893113,31512.025774958824,31576.823482134758,31616.475476798474,31656.038064484368,31706.21773078653,31726.98250138551,31815.853037339813,31884.607003284338,31906.198788428166,31956.154937285777,31998.66795523977,32098.803770399547,32196.972632047255,32292.19106342686,32328.64675863347,32367.561145730157,32424.647501069012,32523.218694116917,32625.500276744402,32754.425138762614,32900.069105633396,33017.214598323655,33113.88589309286,33248.77867088064,33344.28767493817,33458.46038561587,33599.05285823975,33746.172040244586,33818.658747513145,33889.89375709221,33971.768197032,34034.397784995774,34183.14864434584,34294.86266313346,34369.13750995845,34499.0458487327,34583.78131196276,34681.681952677005,34807.27640477138,34876.946792238574,34933.31789175486,34935.68717666712,35029.5197998905,35206.90324388781,35365.24300160921,35399.932909003845,35394.50143510121,35432.56645590859,35521.90637849645,35584.13363506003,35687.97983979939,35761.293561612794,35802.979565021946,35779.91256474407,35799.91737603157,35879.377827570184,35961.63224716571,35930.49626713947,35954.12206102873,36027.48048633105,36088.746617883044,36147.129374400305,36212.32941297643,36318.79077181706,36379.25224056867,36386.60596449446,36382.783816192605,36447.15684022389,36488.351105255024,36514.70381196783,36511.59691948854,36595.035981540204,36603.39553396649,36653.23992410182,36782.544765775776,36858.07131029026,36946.49481135545,36966.65608485414,36966.90195404315,36998.641431169686,37031.16321935216,37033.33133856432,37013.99707961048,36954.720253315005,36854.91971432206,36808.22692015492,36699.03864849075,36544.96807396031,36345.255237252146,36152.359682602844,35958.12302328623,35745.60263700517,35510.86461673553,35208.28905204404,34902.71835359554,34593.99605917884,34217.25740638464,33858.444852643595,33564.56411654522,33207.07031572703,32863.009913326496,32558.176822445017,32269.906374204922,31978.32786778544,31637.55317181983,31294.185673497403,30982.93763195725,30712.392117070212,30489.545224850805,30306.886769162033,30100.28959516163,29967.810805775025,29784.884129152793,29613.2897869694,29477.905270803603,29348.5780773852,29235.053567296694,29139.05282486115,29047.88005922795,28977.87439559393,28915.691842519267,28819.46758263917,28749.528974238514,28732.273427519016,28701.405668426236,28701.897406804255,28767.723294225132,28810.638643579325,28795.93119572773,28778.295669352494,28882.275984558582,29019.51569551417,29071.12587346147,29150.228697088805,29269.65406771351,29366.750045627363,29433.022967937348,29514.718593921494,29636.91558085866,29717.247750431034,29829.1405831743,29957.797224259048,30073.534557048628,30213.612939550036,30392.181026003484,30572.67136248009,30649.851936084266,30800.592100690857,30957.724864211665,31055.938429348284,31117.942168467307,31251.56089682113,31414.482762155865,31547.00625503138,31682.636640386183,31735.118536367245,31745.534449283416,31848.240715055552,31979.020771863554,32033.983711479155,32090.421866228804,32127.16813411333,32149.095195423986,32213.356460732994,32310.92182528041,32422.12175394556,32522.302272594246,32551.605409575157,32565.888174282096,32627.713099445475,32659.6090387832,32666.873355731175,32682.497225105435,32669.063826687794,32731.179324529094,32839.652340370696,32890.03317237296,32927.9193792247,32928.23230364708,32920.94563495465,32994.54992944597,33117.08219254997,33235.81465909656,33322.1147444385,33337.64920683494,33364.89598332596,33425.17863812192,33480.655667859995,33491.831540087645,33511.79164788624,33577.99751496286,33679.65324874559,33828.851142984764,33940.85573445031,33979.032513979975,34029.45804947115,34077.22372737214,34172.889193640855,34257.37878768191,34341.711919511785,34441.15483059345,34527.27610197975,34644.645112114566,34728.44180207751,34750.83825002173,34833.36089055072,34949.63466520723,35081.577012726906,35142.06083322297,35190.854691368906,35240.40850882632,35319.64544292038,35387.348876875505,35417.411973167895,35450.51490670621,35467.30106679214,35505.16492189943,35563.77119586125,35694.752418369346,35811.71909710397,35853.18158306856,35953.607970906254,36059.35407392431,36063.80207107092,36038.008157969496,36075.961420054606,36224.868741615865,36311.23588219117,36289.01824820259,36330.793658589566,36429.92364524885,36449.7049390918,36476.77290162718,36504.82434091858,36577.02047550923,36618.14768530699,36616.20308353938,36680.86668024858,36725.25724473682,36814.53011209132,36914.68827899555,36971.93109654559,37039.65688224517,37097.14556898422,37150.745052188046,37193.392180608775,37188.11716891732,37195.51559633203,37281.18983282922,37321.15475191531,37331.50360959811,37415.277947816605,37459.243829160194,37487.51878589616,37558.82085070859,37606.832397798586,37631.10639227705,37614.454342657846,37638.147191780474,37686.65047724849,37630.815819599135,37508.28355649514,37409.26532855813,37360.963208790214,37229.35613743736,37049.55870503887,36842.84977231619,36650.24479034481,36430.124810948946,36129.4267927917,35859.68594070506,35617.95182442091,35374.18369939133,35030.41386966871,34687.44870274648,34383.80025432113,34095.61921305886,33812.73553523249,33529.27071205029,33224.14704849089,32970.11947275633,32686.878167018673,32437.14212621953,32202.851140839,31976.807949162478,31778.592679332818,31589.0051828629,31387.750075787317,31182.784579132152,30970.75593122911,30772.42890267717,30587.42351382059,30537.89204810763,30496.13898946512,30429.374328777118,30320.119001879575,30205.946291201868,30154.179651043374,30114.751173824214,30123.401298928417,30176.643154220958,30203.107619656043,30184.220395591306,30181.73935195677,30241.530268374714,30257.958800549368,30316.587426255635,30359.592182587647,30398.841845851166,30474.882480488122,30542.116527809685,30602.15331341664,30637.223200467015,30645.82862208231,30688.96748888105,30713.66616650417,30788.723324385086,30874.039932970994,30991.31953612799,31127.888694749916,31288.933013550406,31439.092032801156,31513.1880656705,31557.690388881016,31618.01774716589,31695.980631826,31754.51985055445,31856.175584337187,31952.13162328382,32043.214981939196,32162.774463030633,32259.15518512192,32343.331854740605,32343.287151251694,32402.943957202908,32527.5772842857,32604.109657300673,32657.28445735985,32715.33193771028,32756.34738878577,32772.6865139826,32787.997458934486,32823.40262215169,32845.84377358482,32885.38400952626,32931.56271357092,32951.74633881406,32969.29245821148,33023.786011193515,33079.106578720406,33133.91305612482,33133.64483519135,33103.000593543125,33227.7456793482,33241.78257486613,33238.22864749773,33269.76695892417,33270.079883346545,33330.02726197568,33378.88817535498,33446.21162965437,33511.16579904149,33650.95360886498,33715.84072301874,33747.04375827834,33742.953389043025,33760.834784607265,33796.083485613286,33850.91231476216,33893.71590539407,34028.4298692262,34143.809574104496,34219.045545941066,34289.31943050855,34360.0627017096,34445.80399344015,34489.389895128,34508.85826454857,34527.946654313404,34590.77740797727,34665.90162109156,34746.278494152844,34794.3123929873,34898.44917040458,34950.05934835188,34960.60937173478,34973.81925270787,34998.42852335316,35055.8725066033,35111.55070204147,35190.005325079605,35282.206270957744,35336.677472195326,35312.02349806112,35315.9350533408,35365.33240858703,35367.96991443275,35388.891147242924,35421.83761857005,35464.50709873523,35487.819968202115,35518.084230194596,35543.945198529385,35569.42618720844,35539.18427696041,35564.55350691718,35581.786701892226,35602.93145214694,35646.38324336806,35688.40452294404,35730.1352298421,35745.13325037161,35733.331529299205,35720.747497170865,35698.48515969338,35724.99432861737,35749.02245390683,35768.8931547276,35781.5442420893,35807.80754182429,35810.64621337011,35824.10196353221,35778.638515310115,35678.90503155053,35694.05951429123,35696.071171292206,35641.10823167661,35583.440730981914,35469.558592982125,35351.563734002564,35148.43108039273,34964.00683689199,34832.26565507241,34662.05712104525,34538.47432595186,34276.24366000219,33926.61767323228,33698.89810072161,33485.57305164016,33207.47264712723,32960.39646391827,32723.08799303627,32414.52216083076,32149.22930589072,31986.41919927826,31767.86384199427,31519.513609351354,31319.800772643182,31134.884790764427,30912.663747389764,30626.15908696164,30340.32497886717,30183.840415935567,30060.81641445356,29958.154852170333,29871.988877295124,29794.629489735307,29746.50618392303,29656.071025856858,29581.0809232093,29493.015050055394,29418.382575319123,29367.197080516467,29309.775449010784,29296.900844204527,29278.50535851781,29287.13313187756,29315.251626402336,29355.75298735535,29390.867577894638,29410.15713335957,29475.78185508035,29541.160707612125,29578.19754817457,29612.10514451327,29690.336250106844,29743.2204774881,29810.61098702085,29887.053953058003,29939.17822112778,30045.66193171286,30129.458621675807,30239.965646262845,30382.078037509687,30537.66853066308,30615.609063578733,30709.866369946765,30742.678730807154,30828.397670793256,30969.683047495255,31105.894578205895,31201.35887877451,31292.509292663253,31414.72863134487,31500.04523993078,31550.560182399775,31637.55317181983,31717.639472203195,31735.65497823417,31711.73861166699,31760.688932024117,31829.241732268543,31840.81993589639,31838.651816684225,31855.661494214713,31853.940409891657,31858.813090182914,31845.267933042996,31889.725552764605,31994.42112379326,31975.533899728525,31954.210335518164,31983.178196332243,32038.96815049269,32070.595868896948,32024.506571830105,32008.726240244658,31994.82345519346,31933.55732364146,31943.23562899061,32001.81955120797,32087.44908421625,32182.064018495563,32216.17278053436,32196.637355880423,32189.596556377004,32226.09695507252,32317.73910733928,32378.491148768804,32395.925509443943,32430.391899394024,32432.47061162837,32445.769899579278,32543.20115365996,32567.25163069387,32590.5421484163,32587.569366403746,32660.838384728242,32736.655501920643,32803.26370039746,32890.547262495435,32973.06990302443,33043.790822481016,33061.38164536734,33073.78686354004,33134.65066369184,33222.42596416783,33303.227520373766,33373.32259098561,33469.92683052145,33533.1152120966,33467.1999176979,33441.83068774112,33542.41353779001,33630.27824524382,33677.08279813323,33696.61822278717,33717.785324786346,33759.091348539754,33776.05632258133,33850.44292812859,33891.03369605943,33890.54195768142,33863.63045735723,33849.10182346128,33817.85408471276,33799.54800600386,33837.389509366694,33869.956001038074,33912.91605388118,33980.19480469165,33996.89155779977,34073.759206981566,34073.334523836915,34070.02646565753,34149.08458579595,34194.12335087339,34175.32553378648,34169.29056278355,34170.519908728595,34165.982504604166,34089.58424205593,34002.457142169136,33830.57222730783,33590.961526746934,33368.159338016434,33173.20742287725,32984.29047874099,32802.660203297164,32614.637328939123,32333.653549391456,32021.28792062854,31737.018434645946,31458.13571907708,31179.07418955257,30879.67257257373,30643.861668570244,30446.115785374142,30166.897793638444,29931.422165801785,29713.06797421789,29469.523366632864,29237.713424886875,29002.796590661597,28723.06450880343,28486.314831532818,28271.0228289393,28111.520780506227,27962.546403711607,27832.571009703996,27699.86870287284,27636.255638153034,27590.6133759753,27511.287034903413,27460.30270580086,27456.90524064365,27439.33676950178,27362.40206508661,27284.48388391541,27233.812479235232,27231.06321466723,27187.05262983473,27170.66880114899,27191.47827523688,27256.365389390638,27296.956157321474,27287.143741505595,27338.955085152997,27412.268806966404,27496.356069607267,27576.21885254608,27645.397501635256,27756.06098843348,27834.001521349135,27822.110393298914,27842.65164645334,27919.519295635142,28016.190590404345,28085.659812171438,28206.20277001891,28344.940047853,28454.888278828657,28572.525509896936,28656.14338590424,28705.652499872747,28822.820344307467,28927.851191502952,28939.071767219517,28905.991185425664,28880.71136244671,28880.487845002157,28880.33138279097,28946.11256672294,28973.292287980592,28945.39731090037,28946.984284756698,28957.24373546168,28963.323409953526,28961.132938996907,28941.172831198317,28842.780452106053,28809.006966234087,28770.338448326405,28757.46384352015,28762.18006160022,28721.58929366938,28636.026815894464,28548.720902052035,28496.104895604243,28430.793098305836,28395.678507766548,28381.775722715345,28381.015763403866,28420.15366794511,28360.80978641627,28318.78850684029,28298.135494963586,28255.711883987417,28259.19875612244,28280.343506377165,28271.53691906177,28291.74289604937,28348.628085688128,28379.27232733635,28394.09153391022,28461.370284720695,28439.44322341004,28491.478084501992,28589.870463594256,28655.785757992955,28719.152953523753,28752.479404506616,28829.928199044254,28944.033854488596,28955.790872072088,29000.06967783805,29121.439650230368,29137.376444027002,29118.712737406822,29067.527242604167,29045.689588271332,29057.73717853274,29120.143249051962,29185.566805072645,29165.49493855178,29149.87106917752,29186.796151017686,29193.278156909724,29171.798130488176,29153.827327946106,29160.7340169828,29152.35211281206,29110.509647191724,29177.319011368636,29198.128485456527,29168.49007230879,29186.30441263967,29156.643647747478,29175.30735436766,29246.2517912688,29271.26339331429,29309.306062377225,29357.2282024894,29431.525401058843,29495.227872756466,29578.354010385756,29642.615275694763,29712.755049795516,29805.17951311821,29865.9986097811,29887.858615858393,29964.301581895543,30024.94186460279,30068.19249012381,30065.95731567828,30035.581294963515,29998.11977125642,29962.60284931694,29929.701081478728,29856.744987576603,29899.68268867525,29867.697342359705,29830.459336097163,29755.893916594257,29648.896115886702,29529.671910962097,29387.24659529288,29180.24708989228,29016.22998907924,28837.17016424777,28679.16568269321,28537.522678079928,28377.059504635276,28197.19501700342,28023.656073052418,27873.47470205721,27763.571174570465,27665.402312922757,27607.332480827867,27552.12367202326,27446.064644582828,27380.95401298452,27352.07555914826,27280.147645491084,27266.26721218434,27256.030113223806,27301.292395745804,27333.27774206135,27373.26501289189,27397.5166556259,27429.077318796793,27611.065222151905,27785.542939370032,27895.513522090143,28031.45683186732,28146.881240234525,28243.507831514817,28382.75919947138,28490.718125190513,28625.90147565621,28755.519241752536,28878.878519401376,29075.149187463427,29302.98051869637,29467.109378231693,29655.86986015676,29874.44756918521,30117.16516222539,30418.623139694115,30716.773058983454,31026.747051089653,31301.070010789637,31573.604830933196,31838.852982384324,32031.726185289168,32287.407790113426,32643.64989324211,33007.20101680768,33314.73866876825,33587.89933775656,33943.22501936257,34266.855927330966,34559.46261399539,34894.828187802814,35253.64074154386,35554.092890512096,35840.932827107055,36170.50929910056,36576.55108887566,36953.49090736996,37262.05673957548,37604.26194718623,37952.99386417793,38245.868771775815,38556.84859238251,38880.32303813971,39212.08998108983,39603.73724743572,39993.73048469192,40362.02017808201,40712.272013696675,41049.98452067191,41404.237318544074,41681.15308060087,41952.950293177404,42327.69964071508,42646.949606770235,42894.76339754622,43105.04860938175,43389.36279885326,43715.40769522282,44018.76557097025,44310.63465006765,44587.95274352464,44826.42350511831,45114.89511905851,45398.20348002952,45650.48761969658,45882.94576203177,46146.49518090429,46417.219509746974,46698.96324860612,46919.32909719099,47148.09920169106,47416.83422527721,47615.988268374,47776.92082845221,47927.30336514752,48050.170904418344,48210.879947052,48363.9670448264,48413.967897172915,48464.90752278656,48450.24477842388,48405.451882535446,48440.54412133028,48458.31375817225,48461.06302274025,48480.26317122736,48507.88992737412,48537.55069226631,48490.41086321007,48508.71694191897,48523.91612814857,48559.07542217677,48585.76340505641,48683.41817658165,48802.262401850516,49027.925613871295,49199.09527291003,49362.24065568932,49471.071299442214,49611.797882532825,49801.05010283591,49953.98073839912,50056.23996928215,50139.58962435599,50151.92778729532,50174.92773233983,50136.43802838779,50171.21734276025,50187.288247023615,50108.61010654093,49994.45974760768,49864.596112322346,49734.777180525925,49552.99044287091,49423.797359919234,49344.13574268052,49189.23815360524,49051.79727694956,48916.65862997277,48714.710618819074,48504.13483430563,48174.312493123114,47801.48539560859,47428.591242860704,47018.41438036137,46599.92266892465,46099.9812006928,45569.708415235094,45088.453005367875,44629.30347076696,44162.91197096252,43707.405770707825,43230.86657892067,42704.080665598,42165.29186550282,41691.25606909467,41140.28556827135,40528.607729507414,39917.73455354387,39340.54545647448,38808.864511116095,38227.38387911128,37616.82362757011,37062.34390286731,36518.23538759177,35984.028695109926,35428.27492097318,34923.75134512798,34427.564969964624,33994.3211071874,33626.679614386514,33204.432809881306,32782.3871710762,32435.532800618745,32062.63864787086,31667.906840790136,31278.09241748958,30935.618988945367,30632.976369020507,30344.23653414685,30044.1420130899,29739.465384419607,29425.19985737799,29162.96919142833,28914.462496574226,28633.34460655983,28357.166452070054,28135.347740095585,27928.348234694986,27730.11061312087,27530.755404323987,27320.93957912202,27178.648373919532,27089.04023039821,26975.448665076336,26918.742289393223,26899.676251372846,26914.94249283582,26904.392469452916,26870.686038814314,26848.5354600591,26830.27408483912,26775.244089990152,26721.309330619497,26670.28029802803,26599.8275995049,26526.1115462913,26496.942519777123,26410.776544901913,26281.762275905883,26153.3738557546,26030.66277869496,25911.058594114616,25769.52734822361,25617.580189416432,25413.128782883738,25179.910681237066,24980.220196273352,24817.208923960796,24630.92948567027,24517.71790000414,24445.387654946764,24331.416109969156,24163.509805620888,24060.848243337663,23970.658954460498,23839.454214507845,23748.907297719397,23668.77629384712,23502.70283254419,23347.08998764634,23269.909414042166,23222.635474519193,23148.874717816678,23059.75831267337,22959.957773680424,22878.262147696274,22787.245844274265,22662.836034636028,22595.84785650347,22574.546644037564,22594.842028002982,22581.319222607523,22596.250187903668,22531.608942938918,22443.185441873724,22393.296348249478,22372.397467183768,22335.092405687858,22281.805846906405,22256.83894834983,22270.182939789647,22332.477251586588,22408.920217623738,22466.74418052962,22551.636105970872,22747.012704254714,23003.61073060164,23242.573230573325,23512.068213470964,23793.633138374465,24144.533174578333,24534.638170556806,24986.50103646529,25402.444649034103,25815.169610401346,26288.400744009108,26728.372481867373,27169.081827292663,27657.62390585231,28082.08353305859,28429.451993638515,28684.552453106935,28895.977603909687,29045.04138768213,29162.946839683875,29229.77855560524,29242.139070289028,29154.184955857392,29078.52430087618,29074.344524663036,29066.834338526052,29023.159029860384,28958.562488384545,28887.930975905776,28837.61719913688,28801.31796614146,28801.31796614146,28758.559078998456,28695.907139290233,28603.37091724526,28614.099754583807,28684.53010136248,28760.72719821062,28786.45405607868,28789.963279958163,28783.436570577214,28757.08386386441,28700.44454341466,28612.736298172036,28504.933834664087,28435.129336730166,28336.982826826912,28128.2398853588,27928.996435284193,27704.71903141964,27473.66904898513,27212.37715630259,26935.46139424579,26633.914009799246,26360.77569255539,26097.87447427207,25891.277300271668,25799.34457532699,25784.838293175497,25756.697446906262,25771.874281391418,25808.642901020397,25907.16939057939,26103.663576085997,26366.16246296912,26688.295804059006,27059.155948061463,27450.177365562602,27888.47272258672,28362.732036439425,28785.001192689087,29199.737811057308,29585.774789544917,29974.248108178155,30476.089474688706,30933.719090666666,31336.2963600512,31768.646153050206,32150.65981753586,32539.557819313744,32954.450899893156,33335.34697715604,33787.58982272027,34256.77529058162,34588.296364342736,34883.317039408335,35146.307664669475,35450.269037517195,35730.7834304313,35947.41653769214,36176.36545614785,36456.72338685076,36655.989188669824,36785.29403034378,36952.55213410284,37130.00263333352,37294.04208589102,37456.51691633665,37560.22901060927,37633.475677189315,37723.597910833116,37804.44417052796,37909.40796249008,38045.440679245075,38111.80300853289,38109.00904047597,38099.57660431583,38092.15582515667,38075.10144413727,37995.596289109744,37964.013274194396,37914.68297418153,37887.97263955744,37856.94841825347,37860.70351132197,37760.43358569546,37625.16082825194,37523.12511481346,37470.97849499923,37399.92229937581,37336.10806895591,37251.216143514655,37197.862529499835,37164.11139537232,37154.231924323074,37116.278662237964,37044.060175902865,36983.7775211069,36903.69122072354,36840.212266470466,36715.04249752075,36590.5879843936,36429.74483129321,36229.339090506925,35986.129759088726,35660.978932497375,35333.70469018277,34996.68508728565,34667.220374014425,34265.7383401082,33861.998780011985,33523.235741047356,33179.331800858,32795.6417555382,32448.787385080745,32154.101986181973,31891.379581854297,31591.15095033061,31343.2477525768,31136.918799509862,30946.303122795,30809.756315917533,30675.02000034094,30545.67045517808,30475.821253755243,30454.564744778247,30435.78927943579,30429.910770644045,30402.64164240857,30422.9817298629,30494.775533053344,30564.021237375884,30613.709165300035,30687.626384213734,30807.364679260812,31005.13291420137,31191.88173912546,31377.669439037974,31605.277252826367,31852.085215101866,32104.391706513372,32415.952672475898,32693.986021755463,32970.521804156524,33193.97219347623,33378.709361399335,33564.00532293384,33759.225459006484,33931.24448433453,34075.88262270482,34209.56840629201,34340.951960200306,34430.13542057698,34527.83489559113,34621.86868451461,34641.71703359092,34661.140699522584,34686.509929479354,34645.78505108179,34612.14567567655,34598.913442959005,34567.598648977124,34513.7980000732,34422.55817920664,34251.16500272334,34070.56290752446,33817.92113994612,33543.24055233486,33328.395584630445,33104.520512166084,32795.01590669345,32420.93711148943,32098.40143899935,31793.76951381797,31457.018131854315,31139.48925012222,30780.967269059096,30430.670729955524,30111.510170878195,29793.22132983462,29464.91890727507,29147.032397631694,28840.6570363828,28540.7860327704,28214.67408116747,27905.370641394933,27627.18082990418,27351.76263472589,27126.211181427385,26955.890888677943,26776.38402895737,26588.249395877054,26392.8280941043,26196.75859174235,26022.705557668873,25849.41248290688,25690.022193196084,25547.7309879936,25416.973282930052,25292.272900613894,25170.992335199397,25052.371627375083,24918.819954254624,24812.403298902907,24713.630940154904,24575.20658674319,24402.58406431485,24228.374568030187,24108.211589838458,23994.32945183867,23889.432715109913,23763.838263015543,23663.6353926224,23609.834743718475,23555.14002503634,23490.208207393673,23415.195753001663,23291.99293756401,23215.818192460323,23168.320735492794,23103.433621339038,23044.849699121678,23017.692329608482,23006.583512614194,23013.713719095438,22983.762381525325,22947.55255550773,22939.93061064847,22971.290108119265,22973.9723174539,22971.513625563817,22960.0695324027,22930.609933210606,22940.55645949322,22908.9063893445,22856.111568941065,22828.37305407203,22817.46540277784,22812.32450155312,22821.84634469108,22801.595664214572,22776.852283102548,22754.50053864724,22747.92912577738,22736.82030878309,22721.576419064575,22677.83405516554,22674.90597664189,22710.244084625734,22735.859183771514,22725.152698177422,22700.766944976684,22706.936026446347,22709.595884036527,22710.73582300375,22731.88057325847,22764.894099818957,22790.732716409293,22813.95617889836,22827.61309476055,22841.67234202294,22877.792761062716,22934.521488490285,22983.561215825226,23028.197649502476,23074.04107738031,23144.560831136805,23264.053256994877,23333.27660957296,23390.407668400727,23458.200509333674,23568.349906009425,23669.670363625333,23737.39614932491,23791.979109284774,23856.419188549422,23921.30630270318,23990.999041914827,24041.826908806197,24056.891984569073,24142.700331532997,24214.74000391245,24260.33756260128,24256.493062554964,24252.89443169766,24255.576641032298,24287.025545480916,24339.48508971752,24377.617165758274,24390.849398475817,24361.970944639557,24330.991426824505,24354.527813735942,24356.33830503682,24339.127461806234,24350.3480375228,24360.763950438974,24362.954421395592,24314.62994988322,24302.91763578864,24317.24510398449,24303.007042766458,24280.27531865541,24256.18013813259,24213.108326567213,24169.611831857186,24154.144424694114,24127.568200536753,24073.432275466,24044.643228607565,23985.07582963417,23908.990491508306,23829.70885392533,23730.93649517733,23652.77244481712,23531.335417191436,23423.60000891686,23337.322275319373,23263.785036061414,23191.141866581664,23120.286836658343,23025.917771568034,22926.810136653203,22775.801751113147,22622.9381707833,22485.363183660887,22371.101066005358,22246.199517989102,22124.650731641144,22007.147611039592,21834.547440355713,21677.124104156985,21521.332445303495,21348.620515897335,21198.796772813414,21068.59786136125,20951.877051815638,20832.138756768556,20686.874769553517,20545.656448084887,20416.083385477472,20283.15756120176,20170.013030768994,20075.64396567869,19990.752040237432,19867.325707355227,19708.449507766905,19590.16407610942,19469.688173495313,19360.701067531238,19287.94613932921,19217.26992336153,19102.851343494815,18995.540618364885,18924.149146574637,18843.59345955771,18774.23599651289,18694.306158340714,18584.313223876146,18471.12398995447,18427.672198733355,18358.784122322097,18266.158493299306,18172.594091009392,18109.450412923146,18111.305607712937,18129.030541065997,18132.49506145657,18174.583396265913,18228.80872831449,18213.98952174062,18180.484256802112,18215.934123508232,18274.47334223668,18312.583066532978,18368.52948290461,18427.068701633063,18498.10254551203,18635.006980300783,18764.535339419286,18846.990924714915,18963.957603449537,19086.333404342342,19191.855989915846,19311.63898845184,19433.344237010984,19557.0164390822,19671.010335804265,19821.415224244025,19980.00085115443,20148.153024691706,20355.376047536858,20525.33871237501,20675.117751970025,20798.946416252427,20898.523437800817,21045.82143376129,21215.8064503439,21360.33282999192,21501.953482860743,21635.549859470113,21773.39306752599,21963.986392496397,22127.779975864887,22248.144119756715,22360.08165598889,22434.53531676952,22527.719739403696,22632.594124387997,22707.65128226892,22822.203972602365,22932.509831489308,23013.1325737396,23089.799057221302,23135.664836843593,23181.44120948806,23266.444893651595,23328.470984515072,23405.42804067469,23503.731012789132,23634.712235297233,23748.92964946385,23883.554206318167,24070.325382986714,24320.039072041403,24523.954036707168,24648.676770767783,24771.70077224979,24901.69851800186,25041.329865614163,25162.07398916173,25266.09900785673,25383.959756369564,25526.38507203878,25683.31666985949,25825.943151228807,26017.877580866527,26144.388454483564,26235.85179279468,26304.851627928216,26382.769809099416,26468.734618274524,26564.511843265518,26734.541563337036,26899.430382183837,26984.836397747567,27096.148085134995,27211.81836269121,27319.285550032324,27434.866420610717,27533.50466889199,27579.41515200319,27628.633693293774,27693.856083614362,27729.037729387015,27800.02686977707,27841.489355741665,27837.242524295158,27855.88387917088,27876.112207902934,27900.922644248327,27936.394862698897,27955.86323211947,27947.19075527081,27956.42202573085,27934.562019653564,27946.654313403884,27950.141185538912,27931.63394112992,27906.51058036215,27901.36967913743,27925.107231748967,27955.86323211947,27976.896223651915,27983.19941558831,28034.630779579973,28098.84734140007,28139.75103375328,28184.879205808546,28218.943264358433,28239.216296579398,28249.431043795474,28231.974331375877,28195.25041523581,28191.67413612296,28181.77231332926,28122.89781843398,28076.205024266845,27999.225616362768,27876.626298025407,27740.25830510358,27587.171207329182,27433.48061245449,27274.939689032995,27108.039213185217,26940.356426281505,26751.752406567623,26569.362171812318,26388.290689979876,26173.669239720017,25995.302318966667,25833.319226899057,25668.94449817473,25539.505546034045,25407.093811880808,25260.10874034271,25082.859406812124,24889.24859634025,24720.73879489169,24618.926598897768,24522.054138428466,24408.999014973524,24347.755235165983,24326.163450022155,24336.936990849616,24367.64828773121,24411.03302371896,24449.187451504167,24571.004458785592,24702.924454560813,24840.410034705405,24938.377730653017,25026.66712125148,25121.706738675446,25205.07874549374,25290.305947101828,25323.319473662315,25345.179479739607,25381.434009246113,25449.316257156883,25515.14214457776,25566.72997078061,25596.97188102864,25576.67649706322,25557.029313687006,25511.185885809173,25563.421912601225,25655.399341034812,25683.69664951523,25753.23292651569,25806.407726574867,25839.756529302183,25820.355215114978,25820.466973837254,25846.842032294517,25888.483332214753,25896.775829407674,25896.954643363315,25906.32002429009,25934.773794981695,25905.76123067871,25896.485256729753,25912.84673367104,25928.13532687847,26007.10404003907,26032.652083951485,26078.76373276278,26183.459303791442,26263.21032800798,26266.339572231722,26307.466782029485,26288.423095753566,26296.335613290743,26307.131505862657,26299.241340069933,26285.517368974375,26257.756502360884,26214.95291172897,26206.28043488031,26137.92880033598,26118.08045125967,26103.328299919165,26075.612136794585,26066.53732854573,26043.895011412504,25983.031211260703,25904.241312055747,25893.087791572547,25994.609414888553,26079.76956126327,26155.430216244487,26198.457324320952,26260.95280181799,26309.321976819276,26322.934189192558,26356.64061983116,26420.99129211799,26514.220418241075,26633.243457465585,26667.41927473775,26689.502798259593,26780.653212148336,26871.758922548168,26959.355409068517,27034.83725009409,27136.38122515455,27246.217697407927,27343.35837881069,27421.097746026247,27535.762195081974,27708.876455888327,27908.276368174123,28040.710454071817,28124.55184752367,28232.890752898547,28378.981754658435,28516.422631314115,28638.396100806727,28766.51630002455,28859.164280791796,28926.934769980286,29095.489274917756,29265.139015333538,29378.708228910953,29487.807093597305,29592.726182070517,29695.186578653644,29736.961989040614,29746.79675660095,29774.51291972553,29779.810283161438,29793.824826934913,29818.85878072486,29852.18523170772,29883.20945301169,29925.476601776674,30019.75625988916,30153.844374876546,30293.22985329984,30505.16909422506,30728.306559122393,30883.58412785341,30959.490652023633,30980.948326700727,30984.234033135657,31016.33113817348,31018.23103645218,30983.049390679527,30988.056181437518,30950.326436796957,30906.27114847555,30885.05934298746,30833.359758062335,30780.721399870086,30717.55537003939,30605.10374368474,30464.64538152759,30363.52608961178,30271.436902455916,30109.207941199296,29944.855564219426,29823.932626716214,29681.373200580267,29542.948847168547,29360.983295557893,29148.082929621094,28996.98513710322,28862.561745949002,28708.938206307677,28518.50134354846,28354.55129796878,28184.879205808546,28000.343203585533,27826.379576489875,27666.832824567897,27531.60477061329,27405.898559796642,27304.332232991725,27218.5238860278,27097.779762480233,26966.19504287184,26813.867904408922,26716.280188117053,26701.23746409863,26681.076190599942,26635.99272203359,26595.69252678067,26553.090101848855,26523.1611160232,26480.42458062465,26477.56355733437,26439.56559176035,26376.98070728549,26349.219840671998,26336.077014932278,26313.881732688158,26310.104287875212,26293.608700467194,26332.903067219624,26392.98455631549,26410.57537920182,26396.896111595168,26418.286731038897,26477.183577678632,26501.323461690365,26528.369072481284,26555.034703616468,26605.080259451897,26697.57177800796,26739.526002350573,26774.238261489663,26795.695936166758,26826.720157470725,26878.263280184663,26911.500324189703,26888.23215821173,26904.48187643074,26973.28054586417,27009.24450269276,26975.82864473208,26974.085208664565,27048.471814211825,27139.08578623364,27141.924457779463,27144.98664676984,27204.509342254325,27240.96503746093,27286.58494789421,27350.019198658374,27412.13469649967,27486.454246813566,27558.091587792827,27659.300286686455,27719.42647927123,27812.566198416498,27965.2509647907,28072.449931198353,28138.81226048616,28279.672954043504,28466.421778967593,28673.37658087928,28920.05043268805,29200.765991302254,29473.97136377947,29765.08048356539,30101.34012715103,30392.851578337144,30695.091866861807,31012.352527660434,31345.997017144804,31623.20335187952,31925.89067529329,32282.356295866528,32604.847264867698,32935.31780663941,33207.04796398258,33450.793737267704,33678.96034466748,33946.443670564135,34267.10179651997,34599.3157743592,34839.194695853555,35048.49643093305,35328.072050580035,35550.874239310535,35704.050744062755,35845.06789983129,35926.33884267078,36000.72544821804,36028.06163168688,36017.55631179289,35929.75865957244,35792.00485849439,35682.03427577428,35598.550510233705,35500.31459335263,35425.34684244953,35312.80580911706,35166.96067654618,34998.71909603108,34832.66798647261,34648.064929016226,34455.57170576712,34285.094950806495,34142.37906245936,34041.75150892157,34004.04411602546,33984.53104311598,33952.63510377826,33857.662541587655,33788.43918900957,33789.6238314657,33780.705485428036,33771.2730492679,33773.19529929105,33817.45175331256,33897.98508858503,34025.56884593592,34171.88336514036,34311.17943658584,34401.72635337429,34535.38978521703,34631.68110033048,34679.20090904247,34707.02883088933,34702.245557575894,34739.48356383843,34750.055938965794,34586.30705908621,34297.20959630127,33836.56249482185,33112.61184365891,32234.18828656534,31290.542339151187,30285.004411340287,29172.5357380552,28090.93482386289,26984.47876983628,25910.589207481054,24909.856904728047,23877.452180081866,22698.77763972016,21464.000220775633,20336.89115487232,19388.283120189088,18750.409036923535,18451.387399600437,18366.562529392544,18354.559642620046,18255.653173405313,18040.182356856152,18207.12753619284,19126.477137384074,20657.549280828152,22510.575951406474,24411.88239000826,26294.167494078578,28097.953271621856,29728.51302963651,31376.954183215403,33140.35035852795,34949.12057508476,36747.11725081411,38361.33788363193,39822.49377041981,41191.31460086282,42553.42990796923,44004.32634405212,45724.65070779929,47862.1480300603,50109.124196663404,51999.09830082635,53107.14132870929,53447.446638041336,53252.00298452413,52758.074135550756,52062.37608937932,51240.63655622442,50363.57645554262,49458.24139812487,48624.476626453004,47855.889541612814,47118.23727109877,46428.28362325235,45730.17158867975,45026.04693484866,44310.83581576774,43564.354606193854,42811.81607387258,42074.119099869626,41319.63596578073,40601.36265770944,39855.820221402675,39108.89197693968,38425.08505881847,37739.80292556321,37104.09696150982,36532.76402148772,36020.48439031654,35506.327212611104,35048.89876233325,34595.89595745754,34112.070096977965,33625.04793704128,33142.563181229016,32685.89469026264,32273.884984717966,31855.8179564259,31425.010433794312,30991.677164039276,30578.43811254956,30195.105695141043,29812.823809721925,29441.337816874722,29078.591356109544,28721.6787006472,28403.635728792637,28089.61607094003,27786.2581951926,27483.704982245563,27169.305344737215,26867.825015524035,26583.376715585797,26369.60463161524,26143.18146028298,25896.68642242985,25649.699646198707,25433.73709127153,25238.986341832442,25037.507717312303,24845.640342907947,24678.98573624918,24510.811210967448,24367.558880753386,24225.066509850803,24126.33885459171,24012.501420080833,23868.39972357747,23758.295030390625,23681.002698064174,23575.882443890863,23512.828172782443,23467.185910604705,23412.69235762267,23355.53894705045,23294.585739920825,23214.722956982012,23141.34217993524,23052.158719558563,22954.034561399767,22814.93965565439,22609.169496198832,22387.462542946643,22153.66329594413,21940.472357329414,21776.835236172108,21662.148435371928,21598.580074141035,21573.41200988436,21498.980700848188,21425.354054612406,21410.914827694276,21462.72617134168,21510.670663198314,21505.01567185112,21516.459765012238,21519.074919113507,21572.473236617236,21658.393342303436,21735.909192074443,21826.07612920715,21902.54144698876,22002.923131337542,22099.907350529116,22210.280264649424,22305.968082662595,22393.698679649675,22507.044375782538,22599.848818760973,22664.981802103735,22723.409262109908,22793.37022225502,22886.509941400283,22949.273639830786,23004.70596607995,23067.71553369946,23114.497734844415,23163.805683112823,23217.248704105463,23286.717925872555,23416.693319880167,23496.17612316324,23551.630801156858,23628.766671272122,23650.67138083832,23664.529462400613,23690.5915964355,23741.37475983796,23725.147393363404,23728.075471887052,23768.487425862244,23768.487425862244,23768.152149695416,23769.627364829466,23728.433099798334,23688.825808623533,23610.5723512855,23536.0069317826,23456.747645944077,23334.95299040711,23161.972840067487,22964.428122571484,22769.856187088037,22620.323016682032,22464.68782003973,22285.627995208266,22094.60998709321,21918.880572185586,21780.724439707334,21670.642098264947,21565.70065804728,21470.72809585668,21396.60971124288,21378.23657730062,21395.313310064474,21485.167322774807,21609.42067020186,21718.63129361049,21884.145961302038,22079.50020784142,22279.2577480385,22487.821875550973,22710.802878237115,22999.45330613295,23352.700275504623,23717.726614204243,24058.85893808114,24396.34792761182,24670.492073356163,24894.50125628725,25076.91384278701,25231.409100462093,25409.619559004255,25578.82226453093,25769.840272645986,26020.62684543453,26302.661156971593,26601.0792971944,26938.52358323617,27320.537247721822,27743.0969766494,28152.0444932037,28529.163125653642,28841.28288522755,29106.933368078873,29382.57508070172,29650.304275787388,29825.497248828084,29943.805032230026,30049.260562570165,30085.626850798948,30082.497606575205,30048.411196280864,30035.223667052232,30013.98950981969,29965.97796272969,29937.88181994937,29932.9644361692,29918.994595884633,29911.59616846993,29802.09497238338,29604.19262697609,29319.18553342647,28937.663607318835,28506.006718397944,28104.0329461137,27689.22927251211,27269.418808152535,26943.485670505248,26760.9166217943,26727.27724638906,26829.87175343892,27099.970233436852,27465.39890353667,27917.01590025615,28461.30322948733,29019.06866062506,29569.81564400383,30093.069981702567,30470.769759508345,30844.803851223453,31223.732974974275,31538.065557249258,31797.77047607547,32042.030339483066,32248.515754761193,32354.50772696826,32407.436657838425,32440.22666695436,32377.373561546035,32249.566286750593,32068.852432829433,31901.393163370274,31768.48969083902,31653.713483061016,31572.286078010333,31466.115291847622,31355.40710156049,31324.896970378995,31296.599661898574,31247.00114095225,31125.228837159735,30797.08287681137,30280.51171070477,29577.035257462892,28743.35989276885,27874.324068346512,26897.150504249395,25664.85412893941,24209.50969570991,22703.136229888943,21442.67665656527,20691.725098100316,20538.05685497008,20828.584829400163,21351.861518843358,21944.45096784246,22445.666485508264,22868.650897580494,23270.46820765355,23696.380698249424,24189.41547744459,24736.899106132878,25303.85110424174,25862.30943945759,26398.818361618327,27017.849924308055,27646.13510920228,28209.19790377592,28799.015736462563,29475.31246844679,30110.884322033446,30687.492273747,31278.271231445222,31749.066024907355,32166.03781772111,32579.7909593333,32856.282038245445,33055.92781972025,33174.52617580011,33238.25099924219,33199.49307435669,33088.941346280735,32938.4246991187,32817.50176161549,32678.809187270308,32507.39365904256,32337.475697693313,32118.182732842295,31799.1562842317,31437.41565196701,31062.28632477359,30704.21137859957,30467.37229435114,30398.618328406614,30598.95701395953,31064.834423641496,31575.080046067247,31892.0277824435,31979.512510241573,31832.34862474783,31446.84808812715,30960.787053202042,30462.007875681866,29951.069349178,29368.024095061315,28798.456942851182,28188.209615732387,27547.698026621107,26833.045701151575,26084.754000276807,25336.01526451293,24584.214339758677,23820.790507887665,23037.920658340536,22224.473622378544,21396.67676647625,20596.03728008715,19908.251751452895,19383.253977686643,18917.756547660418,18473.78384754465,18124.269619497016,17842.235307959952,17602.311682976688,17382.124648347457,17121.95034288768,16826.080301532784,16506.003320932785,16187.11098278892,15802.79508862437,15413.159479279457,15006.290674959502,14635.430530957048,14290.677224478392,14045.679753503771,13982.916055073269,14041.164701123798,14179.90197895789,14339.26991692423,14574.767896505344,14907.38420574477,15208.976293680227,15521.744253843339,15908.764709086981,16261.721105780734,16558.46286516939,16815.865554316708,17111.757947416063,17406.376291081466,17673.569044300206,18002.787888382423,18334.711293543733,18658.923346867963,19022.295656477887,19386.69614633276,19741.597144794127,20029.53231686739,20280.050668722473,20618.992521642747,21001.296758806322,21375.397905754795,21727.169659992418,22019.485773978922,22246.98182904504,22419.4925927511,22625.933304540315,22816.95131265537,23077.460894281972,23315.976359364555,23578.005859614117,23851.166528602425,24136.508898318876,24493.488609014585,24846.266191752697,25160.710532749956,25497.551321691433,25844.360988659977,26200.46898132193,26598.88882623778,27110.564960308668,27784.69357308073,28571.117349996253,29629.62891216623,30871.089502702893,32194.156312245887,33538.77020344379,34795.49703544343,36044.624274328264,37227.05390775847,38223.11469592032,39127.60038704877,39948.512905658834,40609.76691362464,41128.68501289905,41578.96090495121,41937.1476098475,42127.875045284636,42156.68644388753,42083.9315156855,41934.73362144633,41720.93918573132,41401.644516187254,40990.95356356545,40567.65622707084,40133.33948055976,39637.39897458541,39131.333128372804,38620.05932570211,38100.40361886068,37557.14446987444,37031.90082691918,36551.986521719286,36081.75052186853,35666.075130233185,35366.80762372108,35186.496101200115,35141.03265297802,35181.06462729748,35264.63779981587,35424.22925522676,35562.89947782749,35655.793327783744,35616.521312775774,35400.983440993245,35088.03666687449,34720.1940083735,34333.64293976342,33890.743123381515,33479.180452725945,33100.43014293077,32736.834315876284,32421.719422545368,32168.049474722087,31943.45914643516,31723.51798099494,31479.213414098434,31236.965207691817,31016.442896895755,30766.371579929782,30528.079632291752,30322.33182458065,30183.840415935567,30047.27125731364,29925.431898287763,29830.258170397065,29764.879317865292,29722.902741778227,29658.127386346747,29600.772810074428,29618.989481805504,29645.81157515187,29673.505386531997,29666.95632540659,29660.4519677701,29583.539615099387,29523.480477747977,29449.451500111998,29366.05714154925,29304.902768719527,29247.21291628038,29163.840909462084,29026.93647467333,28879.19144382375,28720.002319813055,28523.97752094001,28316.955663794957,28067.443140440362,27765.426369360255,27457.62049646622,27119.997396468807,26789.7727238861,26463.37019960525,26149.819928386205,25872.16655876238,25624.64334066431,25375.913128365653,25155.614335014146,24953.576916882626,24770.694943749302,24657.170433660798,24550.172632953243,24448.2710299815,24439.73266359957,24435.329369941875,24407.389689372743,24423.97468375858,24450.305038726932,24435.575239130885,24449.120396270802,24515.57213253643,24697.13535274689,24921.83743975609,25132.92731439201,25392.721640196043,25642.010646106082,25850.26184919618,26017.564656444152,26176.105579865645,26287.730191675448,26365.49191063546,26446.427577308128,26500.38468842324,26455.480033812528,26225.77115604534,25893.467771228286,25529.179040095692,25222.356643957693,25073.136397974064,24983.774123641746,24962.9422978094,25014.41836528997,25081.831226567178,25195.266329677863,25268.177720091073,25294.888054715164,25243.52374595687,25081.272432955797,24893.58483476458,24723.97979783771,24514.81217322495,24259.3764375897,23994.620024516586,23649.26322093764,23289.646004396203,22909.889866100537,22600.161743183344,22326.46463232811,22035.914306153572,21779.964480395854,21562.482006845716,21433.691255294234,21354.409617711262,21281.78879997597,21241.376846000774,21185.18456044013,21144.66084774266,21109.233332780997,21059.858329279225,20986.81282839928,20927.446595125984,20836.452643448432,20696.79894409167,20454.751903385153,20134.294943129415,19734.66810401298,19239.129929438823,18724.928048244485,18239.828138330955,17723.055806524255,17191.82189605497,16474.82263741763,15528.069797524191,14471.256967932817,13422.535469834265,12405.866373284623,11451.156312365094,10699.534201566483,10068.499752104253,9502.106547606772,8995.63836999397,8520.507338107507,8012.541593616199,7563.517399253536,7232.823340037267,6834.962288732802,6221.9656970460055,5494.930505148233,4670.1511347474025,3766.358347697061,3112.100435745768,2991.0657395202807,3159.1955613131004,3641.657965380903,4780.6805110788955,6524.116578592847,8297.101652276713,9829.201975965736,11157.521445455724,12517.222764160964,13826.520899119485,14866.033478502452,15577.668318470518,16024.882021532301,16073.340603511406,15631.75954005236,14671.796819185833,13131.292239581615,10771.70798441267,7235.460845882994,2760.7533646527963,-1653.5373513147058,-3629.8785960529563,