0.0,20998.10045934921,20862.313611783222,21090.45786743854,20940.85764179917,21135.94366740509,20942.958705777968,21122.867896898737,20927.357188148166,21146.85131869928,20996.87111340417,21194.885217533734,21018.373491570175,21213.615979387283,21099.711489643036,21226.87056384928,21118.062271840845,21209.704424107604,21155.099112403288,21218.354549211806,21244.662552435704,21245.668380936193,21328.2357249541,21298.619663550817,21422.984769700142,21304.74404153157,21438.608639074402,21321.26198068404,21510.693014942768,21362.724466648637,21582.911501277864,21385.210321570674,21588.521789136146,21376.984879611122,21559.55392832207,21383.51158899207,21632.17474605736,21526.96508490623,21665.72471448478,21504.34511951746,21632.062987335084,21571.400352883382,21695.564293332613,21670.709153498312,21712.685729585377,21715.658511597936,21698.917055000908,21735.59626765207,21630.967751856777,21758.21623304084,21678.353450102026,21881.866083367597,21728.82368908211,21887.90105437053,21707.947159760854,21941.277020129804,21732.86935482852,21913.985540149875,21731.885878072488,21959.49369186088,21800.461030061368,21985.466418917946,21818.051852947698,21965.953346008464,21875.026449564273,22019.172849556548,21942.57342130821,22003.21370401546,21986.36048869616,22006.387651728113,22002.744317381897,22031.063977606773,22161.218185570026,22083.456466610012,22200.87018023374,22064.6586495231,22195.952796453574,22031.622771218154,22269.579442689355,22117.028786781884,22242.86910806526,22020.4468989905,22236.141232984213,22057.729608741953,22330.175021907693,22189.04610741688,22356.5277286205,22183.90520619216,22359.768731566517,22248.099416267803,22342.490833102565,22305.61045475131,22395.687984906195,22364.37319092431,22377.538368408488,22420.05138636248,22384.847388845374,22503.803372836515,22460.239822893123,22602.03928971759,22431.54018301251,22562.096722375958,22385.71910687913,22566.008277655637,22419.559647984464,22645.28991523861,22459.12223567036,22662.81368289157,22494.035660509548,22704.231465367255,22537.532155219575,22696.34129957453,22577.675888261307,22718.201305651823,22604.386222885398,22704.276168856166,22627.47557490773,22699.671709498372,22733.333436648063,22748.59967811104,22808.077670106613,22774.28183249019,22871.06488598167,22804.434335760398,22942.165785094,22785.79298088467,22954.369837566595,22773.097190034056,22976.006326199335,22812.90564690896,23046.906059611567,22878.86564479657,23060.38416151812,22892.321394958664,23099.365603848175,22938.835375170158,23135.418967654583,23036.870126351136,23202.653014976146,23108.306301630295,23215.572323271314,23201.758945197937,23215.79584071587,23175.383886740674,23122.38790063714,23168.790122126356,23152.07101727379,23264.36618141725,23178.82605538679,23403.304624951437,23300.71011790158,23463.296707069483,23283.834550837822,23460.033352379007,23228.02224493292,23401.695299350657,23198.897921907657,23414.368738456815,23268.32244018584,23474.807855463965,23318.65856869919,23496.019660952054,23390.49707537855,23514.61631233887,23443.761282415544,23563.99131584064,23559.8115396275,23563.34311525144,23513.275207671548,23472.371515318337,23560.593850683435,23509.631873325336,23623.424604347303,23529.122594490364,23701.365137262957,23575.368353768394,23783.84307430304,23584.309051550514,23757.915050734886,23606.66079600582,23863.23647060829,23720.855858427985,23911.650349098487,23734.51277429018,23939.813547112175,23821.639874176966,23960.377152011057,23841.734092442286,23915.763070078265,23824.56795270061,23941.624038413054,23936.729006377343,23954.900974619508,23977.342126052634,23923.58618063762,23987.5121697798,23886.705802286364,24032.79680404625,23950.721198406365,24141.381578610133,23970.234271315847,24211.923684111083,24089.436124496,24322.67657788713,24124.506011546375,24293.351089161766,24089.14555181808,24280.2306151665,24122.695520245496,24341.11676706276,24260.449321323555,24440.470271166596,24310.696042859083,24416.12922145477,24392.212854887588,24491.409896780242,24482.670364698217,24477.305946028944,24509.335995833397,24488.191245578677,24622.48052626616,24513.269902857533,24632.427052548774,24532.42534785573,24730.707672918757,24591.85863636239,24799.48399060774,24591.43395321774,24788.464580591273,24601.58164520045,24837.05727303711,24663.16070117482,24880.93374740288,24731.244114785688,24914.684881530393,24777.311060108073,24921.50216358926,24827.91540955489,24920.608093811046,24869.690819941858,24945.64204760099,24974.207577014873,24949.75476858077,24956.12501575053,24914.997805952768,25032.81385097669,24979.057905561676,25144.885497675597,25026.264789851284,25216.835763077233,25072.041162495752,25287.44492381155,25099.690270386967,25344.57598263931,25170.41118984356,25310.266054900418,25114.554180449748,25368.738218395498,25234.09130979673,25374.437913231603,25226.156440515097,25352.309686220848,25277.94543241804,25346.8335088293,25302.755868763434,25395.761477441967,25424.97520744505,25367.419465472638,25388.675974449634,25317.217447426017,25404.858637435274,25311.137772934173,25479.714629616097,25333.645979600667,25556.202299142158,25417.30855909688,25626.78910813202,25437.26866689547,25635.193364047216,25448.086911211838,25623.235180763626,25417.040338163417,25607.521904411544,25505.486190973068,25691.98914670815,25612.551046913988,25748.159080524336,25672.23020460966,25746.48269969019,25688.03288793956,25683.674297770776,25682.109675658903,25668.765684219085,25762.263031275637,25741.2747432321,25890.785561893652,25783.608947230452,25962.71347555083,25829.742947786206,26007.707537139362,25813.090898167004,25972.972926255814,25798.182284615315,26053.148633617002,25870.668991883875,26058.44599705291,25861.147148745913,26036.38482527552,25934.572629281596,26153.507966221332,26083.815227009683,26209.007347703857,26134.151355523034,26162.761588425827,26090.051363712715,26121.053233272225,26198.27851036531,26151.295143520256,26183.436952046988,26092.845331769626,26248.56993538975,26132.3185124777,26310.528971019863,26151.451605731443,26307.086802373746,26083.390543865033,26306.68447097355,26139.381663725577,26333.59597129774,26149.439948730465,26398.03605056239,26294.994508623426,26488.47120862856,26322.285988603355,26413.056422836355,26271.972211834458,26373.873814806204,26322.196581625532,26364.50843387943,26364.73195132398,26383.619175388718,26421.751251429472,26349.55511683883,26433.57532424633,26376.868948563213,26517.48377293155,26323.314168848297,26431.384853289706,26246.625333622138,26442.98540866201,26272.508653701385,26504.877389058758,26318.463840301498,26549.73734018056,26365.26839319091,26532.906476605713,26344.458919103017,26485.923109760657,26337.909857977615,26505.369127436774,26405.769754143927,26470.701571786594,26396.203207517054,26439.006798148966,26435.765795202948,26428.65794046616,26503.312766946885,26459.637458281217,26525.664511402192,26371.772750827404,26514.041604285434,26430.51313525595,26703.24912109961,26567.14934911124,26787.96223258522,26643.41350119275,26851.01650369364,26650.074321040433,26829.89410518338,26609.394146131774,26779.759142370123,26602.68862279518,26761.162490983308,26607.65071006426,26677.32109753145,26563.01427638701,26639.010207535055,26624.146297472274,26689.52515000405,26722.985711453643,26739.503650606115,26834.11858488543,26738.855450016912,26851.82116649403,26778.842720847457,26977.43797033286,26844.40038733487,27033.049110537664,26867.64620156839,27103.300643360693,26906.426478198347,27103.613567783068,26897.105800760484,27118.991567968318,26975.225147631783,27180.90590010952,27030.478659925302,27159.7611498548,27039.48641294079,27181.12941755407,27152.38507418455,27227.509287298835,27247.603505564155,27331.489602504924,27357.238812117437,27312.31180576227,27384.61969907519,27278.98535477941,27338.284532819336,27250.799805021266,27471.59033675079,27363.139672653637,27590.568672486388,27464.52718550291,27702.95324360767,27486.789522980398,27655.411083151233,27468.259926826948,27727.160182852767,27579.54926246992,27754.96575295517,27627.069071181904,27807.872332080882,27714.35263327988,27829.66528292481,27798.104619753914,27887.19867315277,27909.304548419066,27909.796286797082,27944.32973198053,27923.117926492447,28038.83290753757,28011.563779302094,28217.3115870132,28151.75392052578,28374.51140576737,28211.67894741046,28385.955498928488,28247.709959472413,28526.056233174353,28410.542417829325,28672.840139012354,28561.863727791755,28789.583300302424,28671.923717489688,28924.990168212673,28764.59405000139,28880.890176402354,28801.072096952452,28882.208929325217,28757.06151211995,28767.633887247313,28823.89322804132,28828.341225187927,28896.938728921265,28827.022472265064,28878.118560089897,28718.191828512172,28861.958248848707,28775.389942573303,28997.946262114798,28841.931085816752,29062.98983847974,28902.459609801725,29150.72043546682,29013.279558811137,29190.439485363902,28956.081444750005,29155.99544715827,28998.236834792715,29155.414301802433,29084.93925153485,29253.091425072125,29179.040095691693,29242.250829011304,29181.811712004153,29196.92149125594,29260.735721675843,29307.048536187238,29420.550694531288,29384.162054558048,29508.773029896383,29375.24370852038,29560.047931676858,29438.096813928703,29655.042845611915,29459.82270953926,29648.605543208785,29487.270651730378,29698.964023466593,29485.92954706306,29658.037979368924,29480.520424904877,29699.612224055796,29570.553251570855,29669.996162652515,29471.758541078394,29610.652281123675,29530.811849929316,29588.814626790838,29564.026542189902,29626.030281308926,29725.339081923856,29752.474099692598,29847.91604851676,29776.681038937695,29904.555368966507,29791.99198388958,29948.387139843362,29820.445754581186,30047.42771952483,29885.578737923952,30112.136019722944,29938.55237228303,30169.624706461993,30006.99341380518,30232.8354397816,30139.7627758697,30367.370589658094,30236.098794472076,30387.39775269005,30271.90628908948,30412.007023335344,30365.984781501866,30422.847619396165,30409.034241322788,30465.226526883427,30556.846327405732,30613.709165300035,30779.492053925045,30753.51932686798,30979.830739477962,30889.35087792288,31062.62160094042,30938.234143046637,31218.435611538367,31123.93243598133,31400.53527361575,31262.692065559873,31461.443777256463,31268.727036562806,31479.2804693318,31326.282778535224,31532.432917646518,31429.3690239631,31580.511519969885,31494.434952072497,31656.01571273991,31659.79315755286,31692.069076546322,31643.722253289492,31660.530765119885,31739.432423047117,31724.90378915117,31872.11237813382,31810.01923203698,32010.782600734547,31887.848006230357,31972.22584154914,31747.367292328752,32021.53378981755,31878.192052625665,32098.64730818836,31924.50486713706,32186.98140227573,32011.877836212858,32184.790931319112,31990.84484468041,32156.627733305424,32031.81559226699,32141.495602309184,32062.68335135977,32143.909590710355,32051.418072154294,32070.081778774475,32106.40336351435,32130.6326545039,32208.528483930648,32131.83964870449,32217.84916136851,32127.034023646596,32290.78290352618,32185.528538886138,32424.42398362446,32282.37864761098,32481.57739419668,32282.37864761098,32460.6114578976,32220.218446280775,32420.199503922406,32260.317475833595,32505.225539830393,32397.981869933832,32542.932932726497,32375.786587689712,32463.025446298772,32362.26378229425,32472.48023420337,32465.439434699947,32487.366496010603,32461.41612069799,32415.483285842336,32464.679475388468,32372.724398699334,32485.757170409823,32366.063578851652,32496.396600770546,32327.97620629981,32469.32863823517,32240.17855407936,32426.726213303355,32245.051234370618,32407.213140393873,32161.858041507967,32357.055825836163,32211.52361768766,32436.426870396957,32368.92460214193,32627.44487851201,32602.232110766425,32814.10429645828,32897.09632362083,33214.82637105303,33451.397234368,33714.47726660696,34010.03438353949,34272.33210472252,34651.99883604036,34861.09940541976,35247.82928798548,35349.1944490903,35683.66595311951,35603.13261784704,35831.47803920246,35641.30939737671,35841.983359096455,35594.37073402056,35695.177101514,35381.403312850394,35436.38860421045,35061.95218109515,35054.41964321371,34719.501104295385,34707.408810545065,34523.78922984472,34617.97948097938,34566.88339315455,34606.960070962916,34556.199259304914,34554.880506382055,34629.58003635169,34598.98049819237,34650.45656567295,34466.81463322814,34550.63367493554,34371.6632570819,34518.69303210891,34304.83154116053,34435.745708435265,34255.791813825585,34498.241185932304,34330.91602693988,34581.74730321733,34397.21130099431,34610.98338496487,34439.165525336924,34570.951410645415,34385.43193166637,34502.577424356634,34300.2941370361,34265.40306394137,34095.17217816975,33996.846854310854,33815.59655852277,33577.86340449612,33375.75893113124,33079.3077444205,32932.27796939349,32535.690967522976,32380.726323214334,31958.43481522022,31964.246268778596,31609.322918572776,31652.21591618251,31369.131072656048,31526.12972571012,31322.25946453327,31472.619649484117,31231.489030300265,31398.411857892497,31259.674580058407,31479.615745498628,31423.669329126995,31570.72145589846,31427.402070451033,31463.2766203018,31389.985250232847,31392.019258978282,31421.434154681465,31489.070533403225,31707.04474533138,31847.905438888723,32183.60628886298,32289.754723281232,32663.47589057397,32706.927681795085,33063.54976457951,32965.827937820904,33177.00721943465,32949.958199257635,33127.76632639961,32895.21877708659,33073.6080495844,32888.53560549446,33043.500249803095,32846.089642773826,32923.963120456116,32733.90623735264,32838.02066302546,32769.69138022559,32816.76415404846,32750.513583482934,32779.660258252654,32843.22861948355,32788.53390080141,32813.63490982472,32726.95484482704,32852.01285505448,32753.218144562026,32950.91932426922,32834.22086646806,33050.58575279543,32916.832913974875,33226.51633340315,33078.10075021991,33285.07790387606,33119.85380886243,33423.36814682104,33341.89603828145,33582.55727083174,33446.41279535447,33584.90420399955,33456.51578384826,33619.54940790527,33663.49293750441,33834.64024479869,33909.74210616852,34059.65525623027,34259.099872004976,34296.09200907851,34445.334606806595,34405.90612958743,34558.07680583916,34474.01189494275,34676.11636830764,34532.59581716011,34729.782906744826,34498.39764814349,34630.0717747297,34335.94516944232,34494.463741119354,34230.66845305782,34272.66738088935,33884.21641400056,33887.21154775757,33581.596145820164,33552.382415817076,33286.709581221294,33211.02657449563,33015.67232795624,32925.32657686789,32859.992427825026,32877.31502977789,33048.08235741644,33159.058768637035,33394.15441681795,33440.84721098509,33782.18070056209,33854.108614219265,34245.75588056516,34285.40787522887,34722.56329328576,34645.203905725946,34969.68417998364,34876.96914398303,35189.53593844604,35069.52942246549,35258.98280846868,35052.54209667946,35145.65946408027,34925.6959468956,34950.551086729894,34672.048350816774,34646.455603415445,34523.81158158917,34477.766988011244,34416.67967041489,34353.93832372884,34382.77207407619,34322.288253580125,34460.48908954729,34397.07719052758,34605.08252442867,34519.60945363158,34784.4105701936,34718.98701417292,35030.97266328009,34956.76487168847,35329.256693036165,35295.617317630924,35681.2743164628,35674.70290359294,36024.84298048532,35984.69924744359,36267.24764910313,36256.49646002012,36545.70568152734,36590.81150183815,36780.711922730436,36821.90618776157,36836.926560035536,36853.422147443554,36853.89153407711,36993.32171598932,36930.245093136444,37035.63356824322,36938.291721140355,37138.786868904455,36935.989491461456,37053.73848125202,36835.07136524575,37018.534483734904,36775.86159418364,36962.632770852186,36753.82277415071,36935.83302925027,36722.776201102286,36909.413267304095,36765.333922545185,36971.41700642312,36895.577537486264,37043.68019624713,36944.661968310116,36976.26733496992,36882.9040983801,36830.064574487755,36798.92859446151,36727.514770926806,36856.43963294502,36805.36589686464,36978.43545418209,36945.39957587714,37315.879740223856,37318.51724606958,37695.9488029419,37626.881912575,37951.1610211326,37911.151398557595,38341.1989618777,38297.09897006738,38658.14669825396,38632.486895619266,38914.36474494514,38868.58837230067,39134.50707608546,39115.01635492043,39256.32408336688,39167.45354741258,39289.8740517943,39422.53165513655,39540.43710713829,39681.811890818106,39688.740931599255,39837.98352932734,39735.25491181075,39764.379234836015,39538.76072630414,39670.01016974571,39404.91848050577,39512.65388878035,39201.94228910712,39325.748601645064,39006.43158035655,39093.961011643536,38765.032740239236,38870.64473279056,38578.19450833732,38580.63084848295,38264.107795251344,38293.63444967681,38094.54746181339,38076.286086593405,37882.60822088816,37776.52684170328,37669.86431716255,37590.96265923532,37586.24644115525,37510.988117574234,37662.04120660319,37516.732515899246,37602.94319426337,37430.454782301764,37639.51064819225,37477.52755612464,37758.891315328045,37632.693366133375,37891.16893901455,37687.11986388205,37875.567421384745,37659.91779087994,37885.04456103379,37757.974893805374,37932.966701145975,37801.06905711521,37992.69056233056,37941.43801229454,38014.70703061903,37922.08140159624,37899.1485117851,37867.945476525485,37795.34701053465,37811.06028688673,37701.08970416662,37771.5647544342,37581.172595163895,37659.336645524105,37429.27013984563,37570.51081305872,37363.82423208049,37591.11912144651,37408.03598261309,37695.14414014151,37564.34173158905,37825.946548693966,37629.22884574281,37852.25455191786,37778.113815559605,38034.35421399525,37965.64495153963,38107.511473597464,38088.33367685481,38216.587986539365,38220.924224963695,38263.079615006405,38286.146615284284,38183.68621870115,38204.24982360003,38090.83707223381,38208.49665504655,38060.751624196964,38212.385858581765,38022.038402800375,38200.1147508758,37984.84510002674,38189.65413447072,37935.961834902984,38108.89728175369,37873.891040550596,38045.88771413419,37769.97778057787,37892.66650589305,37721.42979162095,37871.722921338434,37745.18969597694,37876.617953374145,37824.13605739309,37909.966756101465,37956.50308805741,37987.86258552821,38072.776862713916,38077.56013602736,38259.65979810474,38297.5907084454,38607.45294182932,38590.107988132004,38876.947924726956,38756.71789130186,39034.61713011469,38900.23844244939,39187.57011742236,39026.72696432197,39253.8653914768,38978.871879443155,39111.9318141856,38871.985837457876,39039.847438317236,38875.629171804096,38987.32083884726,38839.55345625323,38968.65713222708,38936.314158000256,38963.11389960217,38943.489067970404,38948.47350698394,39038.90866505011,39021.787228797344,39138.59744532078,39021.98839449744,39227.06564987489,39109.89780544017,39323.803999877455,39163.18436422162,39393.74260827811,39184.84320459881,39430.89120756283,39222.930577150655,39454.271132263086,39254.37948159927,39462.317760267,39300.53583389948,39439.83190534495,39282.74384531306,39379.392788337806,39217.81202767039,39221.8576934168,39119.41964857813,39126.14752365917,39124.44879108057,39099.99598264647,39201.58466119583,39154.17661120613,39371.70378824518,39331.94003485919,39510.91045271283,39380.73389300512,39669.5631348566,39565.04637778358,39833.13320078054,39680.962524528804,39961.789841865284,39795.64932532899,40074.420282175575,39888.677285751975,40016.596319269695,39670.92659126838,39621.41747729987,39270.02570271798,39223.422315528675,38977.21785035347,38786.64687712752,38480.11505366743,38210.508312047525,37928.921035399566,37688.57272727165,37535.37387077497,37171.64393325376,37004.09525681678,36644.92507516445,36651.16121186748,36361.393196748875,36436.67387207435,36125.06820262292,36267.98525667015,36074.03917003145,36345.36699597442,36230.92606436325,36573.10892022955,36564.972885247815,36891.956554884506,36890.63780196164,37285.86134742038,37473.92892526733,37925.56827373127,38252.14961196776,38766.150327462,39168.32526544634,39663.52816385367,40264.16424085668,40753.041595583156,41357.745690077034,41784.97693359577,42470.95197092914,42809.42443721586,43381.67379876063,43546.29439667397,44034.88117872253,44016.93272792491,44343.20114173903,44152.987796424364,44296.37423710516,43968.49649769026,44109.73717090335,43821.10909475197,43866.14785982941,43590.036760573006,43575.64223714379,43198.79182562731,43026.07989622115,42699.520909729115,42525.40082042227,42385.0542169874,42307.672477683125,42325.6879837141,42272.22261097701,42424.75091514002,42408.836473087846,42630.454019362216,42572.831222156434,42856.9665976723,42754.103869688974,43036.629919604056,42881.75468227323,43085.78140566128,42824.5565682121,43059.38399545956,42850.663405735904,43001.94001220942,42720.39743905037,42800.84136734502,42572.67475994525,42640.78052530057,42490.86737523882,42484.51947981352,42326.336184303305,42289.20993676304,42289.008771062945,42263.39367191716,42246.65221532014,42139.43089716803,42217.79611322834,42048.883980379585,42201.52404326487,42060.059852607235,42284.62782914971,42144.10241175919,42437.02202284599,42259.929151526594,42480.563221044926,42238.605587316226,42422.44868546113,42225.50746506542,42451.50595325303,42301.92807935811,42481.546697800964,42377.14169945022,42509.79930279247,42405.617821886284,42455.05988062142,42405.57311839737,42421.88989184974,42449.69546195215,42450.67893870818,42560.694224917206,42482.46311932363,42598.491024791125,42452.55648524243,42613.667859276284,42407.27185097597,42568.584390709926,42325.576224991826,42538.92362581773,42357.740385263016,42685.30520025554,42592.50075727711,42912.465979154826,42826.4564664908,43105.31683031521,42973.59800024009,43126.595691036666,42981.01877939925,43094.230365065385,43026.79515204372,43128.24972012636,43182.96679055295,43412.6980200646,43753.0256811411,43991.295277034675,44429.501227080975,44748.59473092493,45381.238505987945,45797.003304601116,46619.055762178396,47098.210108066814,48048.9415584733,48605.388236688166,49671.05235708384,50283.57956213708,51456.219131495855,52138.819055416476,53266.173990508796,53986.45895558107,55188.938103787674,56032.694105231065,57209.1558228917,58004.29678014479,58958.93978583095,59628.955677623235,60427.35998956681,61085.887084709066,61673.603853416906,62268.808456517276,62708.17669727525,63292.51835257034,63540.53330904643,64184.12943889254,64655.39361898824,65660.90919505467,66222.09444309407,67026.4666708072,67071.05840099555,67119.40522425238,66597.38023249868,66376.47794204688,65173.70822116235,64070.649632292945,62246.63552601761,60750.946194046286,58835.64756341548,57321.94272541317,55652.58033902411,54417.28882995711,53176.699957454206,52215.083207497984,51379.50794452524,50694.94106709255,50319.00707709874,49975.9972066876,49973.6949770087,49785.6497509062,50033.7094108712,50046.852236610925,50572.364100499646,50660.4076219091,51245.26336732666,51325.10379852102,51932.579509327355,51900.907087434185,52215.48553889818,51819.97142076152,51799.65368505164,51188.35582594345,50913.585831354365,50058.318681516495,49373.908266294995,48380.082652578676,47634.02612614944,46765.81731627194,45998.72779831026,45286.73533043091,44631.046906834476,44227.75438162737,43762.36871032342,43630.426362803744,43284.153137702124,43378.7904237259,43162.76081356536,43474.47824173907,43341.61947269672,43711.42908470978,43523.20504465164,43848.333519498534,43641.98221468714,43983.74038740878,43762.88280044589,43911.253680140224,43490.817366935895,43403.712618793565,42924.20064499386,42740.5363608046,42319.47419875553,42070.85574517915,41677.219173576734,41287.38239853173,40966.50075513134,40675.12341441195,40625.6366521879,40338.21557023711,40300.32936338537,40001.643002229095,40227.86500786126,40067.915924539084,40313.98627924756,40074.08500600875,40353.34770123335,40096.302639997324,40301.26813665249,40017.75860998137,40281.48684280954,40010.315479077755,40080.27643922287,39697.43576019237,39745.73787996029,39474.1641848283,39530.42352562231,39362.40546255177,39292.04217100646,39151.337939660305,39017.71921130648,38926.21116950645,38754.19214417841,38798.00156331081,38640.26530268971,38798.96268832239,38647.1719917264,38900.014925004834,38688.50036722426,38975.22854509694,38759.62361808105,39063.5179356954,38871.65056129105,39192.33103899134,38956.67659719904,39197.91897510517,38953.52500123084,39168.61583812426,38970.51232701687,39136.20580866406,38959.76113793387,38906.96631753044,38680.2302217758,38635.30321542063,38526.696089112294,38356.264037640576,38308.11838008385,38194.03507638396,38288.09121705189,38149.93508457364,38313.16987433075,38144.45890718209,38417.910148848314,38220.38778309677,38497.974097487226,38291.64514442028,38614.583148310565,38404.47675043067,38727.99589967679,38618.628814056974,38994.674562773056,38874.33277062568,39124.18057014711,38972.233411339934,39192.50985294698,39117.430343321605,39216.33681253634,39145.973520991036,39164.056082255374,39138.01629996494,39069.70936890953,39085.26618305042,38895.2316516914,38968.79124269381,38811.725534406374,39025.34115616574,38885.84391902017,39225.34456555183,39068.23415377548,39434.31102446449,39348.65913971176,39801.23726144282,39709.05866730913,40127.95271014604,39966.550763434265,40251.93783663963,40072.520383896874,40313.226319936075,40191.72223707703,40434.171609183744,40374.22423055461,40429.90242599278,40325.944462531144,40311.86286352431,40368.36807350732,40332.42646842319,40419.57592005443,40316.4673228821,40533.61452026541,40451.315397180966,40678.74439701372,40551.60767455193,40926.58053953416,40824.99186098479,41225.71393557954,41125.511065186394,41575.92106770528,41467.380996630316,41822.23729160277,41661.81882164703,42002.14648272353,41916.62870843753,42162.36378697918,42048.48164897939,42192.91862164958,42141.06257451327,42276.67060812362,42320.189454578096,42338.294367586896,42339.411954809664,42256.285817180375,42336.01448965246,42209.4142090576,42348.71028050307,42156.28411248733,42404.79080734144,42232.88354073567,42557.49792546009,42378.147527950714,42696.05638933854,42480.496165811564,42880.61474330601,42773.46048038727,43122.0806386567,42970.64756997199,43334.19869353756,43345.28515878739,43728.79639015155,43749.31529156152,44014.96577441285,44067.87235353856,44220.55711991276,44285.757158488894,44389.20103182805,44528.51945501798,44492.73431214503,44610.81857810242,44461.97831177453,44677.13620390132,44519.04231536893,44724.231329468654,44550.69238551764,44929.15212263491,44756.08256531746,45060.46862130983,44781.85412667443,45030.24906280626,44753.89209436085,45000.43183570288,44807.33511535348,45122.159436006485,45156.29054978974,45544.38388876723,45705.47291105663,46172.22203877235,46460.73835620146,46824.75886640059,47042.10722948399,47094.94675337634,47186.09716726508,47085.000227093726,47131.51420730522,46841.47797125316,46930.81789384102,46706.29462078746,46925.14055074937,46644.44734387963,46810.87843309384,46473.09887088524,46638.30061415442,46275.91178130052,46459.28549281186,46168.28813174822,46440.644137936135,46270.703824842436,46451.03769910785,46259.505600870325,46451.79765841933,46404.23314621844,46628.9575849721,46717.96223139313,46810.297287738,46903.369951649904,46974.046167617584,47214.23801353431,47233.281699810235,47464.62225492266,47378.6350940031,47625.688925467606,47446.71850761396,47798.22204091812,47689.16787972068,48049.47800034023,47934.187702439755,48380.6190944456,48201.246345191765,48505.274773272846,48260.232598809314,48415.241946606875,48094.494413673216,48212.69043835288,47993.64334269087,48074.914285530365,47903.699923002714,47922.18481566725,47881.549344247505,47836.46587568115,47805.01697123254,47782.553468054946,47945.07300198949,47867.13246907383,48078.11058498747,48005.69093295228,48323.97977399585,48195.16667069992,48484.59940965169,48281.913790930965,48666.96729266254,48459.94543551748,48730.870930060264,48467.92500828803,48790.147756355735,48620.0286293064,48820.90375672624,48552.101677906714,48698.505604088976,48538.28829983334,48641.50865572794,48563.65752979011,48602.05782676433,48554.18039014106,48546.22316911497,48577.47090786349,48533.54973000881,48733.374325439254,48720.63383109973,49043.03539312308,48980.47286039268,49300.0357508702,49133.67171688935,49447.42315380849,49250.5266369017,49529.63286991511,49281.2826372722,49584.64051301963,49350.77421078375,49538.41710548605,49183.69492098033,49308.97644865233,49072.24912312617,49255.77929684869,49119.701876604784,49130.900100576895,48983.69151159424,49009.93245958477,49033.51354998512,49053.38425080589,49240.64716585245,49334.72565826484,49696.93567716309,49773.624512389244,50174.637159661914,50131.721810307725,50565.83739111869,50524.48666387638,50935.73641010957,50793.51226014045,51156.7728110281,50978.94233214168,51304.87546978897,51051.38433592133,51216.87665186843,50903.39343588275,50994.78971896049,50743.779628727396,50842.32847003084,50679.40660469611,50701.24425902894,50618.58750803322,50609.91503118456,50651.556331104795,50669.30361620231,50834.48300772703,50844.69775494311,51060.749716848106,50946.12997128129,51254.09230638651,51207.198346519275,51626.91940390103,51537.84770224663,51948.22573044607,51835.41647618014,52236.25030949716,52051.06610668494,52338.97892701375,52148.095029365424,52492.133080021515,52381.111965312004,52546.33606032564,52347.293775951126,52487.41686194144,52397.69695969784,52508.829833129625,52460.41595463944,52429.23527112428,52400.2674103102,52326.41724662987,52409.789253448165,52307.373560353946,52478.54321939269,52281.04320538559,52463.09816397407,52297.62819977143,52625.77416011979,52463.70166107437,52863.88729380218,52725.17236771255,53060.89556943126,52850.81152329583,53085.035453442986,52778.2577607939,52980.98808300353,52774.61442644768,52883.64623590067,52601.74603483034,52613.83832858066,52484.801707840175,52560.17179014347,52531.94153689642,52525.124254837545,52649.55641622024,52642.18034054999,52782.99633061842,52733.71073409447,53028.82081613789,52968.426402619654,53296.706473434744,53178.46574526617,53573.26460758026,53456.610853268015,53855.88006447316,53692.86879216061,54041.98068880805,53737.572281071225,53881.96455025251,53538.23942401879,53637.83879731164,53333.96683144174,53377.08334649603,53104.2356019301,53027.30089751493,52782.191667818035,52731.25204220439,52701.74773952338,52701.81479475675,52833.086589942766,52806.532717529866,53039.21437730961,53073.636063770784,53495.458185131334,53550.287014280206,54045.40050570971,54013.5492698609,54505.98055195577,54487.272141846675,54982.18446757609,54931.423655918086,55428.30293515956,55369.048460608545,55818.43028288249,55728.68802889443,55928.26675513587,55566.86139903801,55466.45736294477,55030.687753044105,54683.94514130893,54070.90384613322,53479.0743564456,52802.799976205824,52040.314917601936,51371.21544733232,50557.4331352035,49992.09046269542,49184.18665935835,48830.24678590856,48086.246619969206,47861.76805040456,47256.86279021058,47171.21090545785,46645.65433808021,46706.13815857627,46388.341055910714,46751.08751667589,46743.77849623901,47308.40591292452,47557.65021534565,48334.39568691202,48847.74820181706,49707.575107523815,50336.3296790516,51157.13043893939,51860.293967758895,52541.66454573447,53175.53766674253,53806.303895271296,54547.71125885383,55001.96576141904,55614.001228094254,55809.64604731155,56306.92765795322,56305.87712596382,56694.395148085976,56444.949679964746,56588.44787936782,56124.47036796455,56047.937994949585,55398.3739493339,55331.72104736818,54775.07320345321,54667.494257389815,54190.75389990257,54259.373755380366,54097.43536680167,54240.33006910444,54275.802287555016,54601.48955601329,54979.63636870818,55472.76055488116,56063.56186432384,56631.07265604409,57414.18837478023,57921.707084382426,58703.61580891798,59096.06773806426,59846.99694478476,60089.736889569394,60728.79561529108,60753.58369989201,61250.17240645557,61133.94333528797,61519.89090679776,61340.696971499565,61609.40964334126,61338.037113909384,61503.14945020073,61242.21518542948,61408.579219410334,61296.77579364488,61363.138122932694,61156.31743148773,61039.529566708756,60821.28713384714,60618.445052915224,60498.63970263478,60175.88051270015,60050.867205961615,59651.48623603419,59629.737988679175,59301.92730449764,59418.93868672117,59025.77150175232,59041.12715019312,58497.91270469579,58468.78838167052,57871.16979016898,57731.560794301135,57042.97060286649,56899.628865674604,56295.125936880824,56114.50148993749,55558.94888150083,55406.19705989326,55004.91619168713,54865.62012024166,54596.393358277484,54552.002793789245,54573.01343357724,54609.9385154174,54761.103363168644,54837.1439978056,55231.89815663078,55334.06798053598,55817.98324799338,55922.365894599665,56513.61423893145,56660.55460698064,57227.41719811168,57296.97582685659,57907.42431967549,57900.71879633889,58366.9761856766,58296.61289413129,58674.15620972589,58548.517054142605,58865.8447701746,58778.449449354346,58932.69883784042,58760.79157123466,58734.10358835502,58534.1672342023,58364.67395599771,58221.62279148374,57988.29293111479,57877.249464660825,57605.720473017755,57571.56700749004,57197.06352914137,57206.89829670171,56828.30444911772,56921.84649966318,56507.936895839804,56601.322484174074,56185.78120300546,56293.22603860212,55919.504871309386,56133.38871400222,55909.89362119361,56141.86002515078,55971.53973240135,56226.72959884758,56151.739496200025,56444.05561018654,56569.09126866952,56842.7660277803,56936.956278914964,57082.175562641096,57275.0711172904,57328.670600494224,57455.85202644492,57321.78626320199,57455.29323283354,57233.8097970259,57353.86101649535,57025.84916661372,57189.01690113746,56821.66598101449,56919.52191823983,56429.10229314594,56387.68451067025,55803.20874490843,55759.980471131865,55357.69377442524,55476.31448224956,55261.15659012277,55485.70221492079,55446.34079293499,55717.84743283361,55870.44279222999,56229.36710469331,56515.067102321045,56756.37653546054,57032.398227739126,57145.49805468298,57451.33697406495,57499.61674208841,57814.91044937497,57688.645444946946,57953.446561508965,57728.25273612174,57944.10353232665,57671.09932554953,57863.16786565398,57461.75288698112,57585.26862684115,57188.12283135925,57247.13143672126,56819.63197226906,56845.15766443702,56564.419754078364,56692.71876725183,56628.77042636519,56956.55875880227,57394.228266981634,58272.517713608475,59353.448075467124,60578.256616384584,62112.145079630034,63679.47175258062,65563.79086539637,67159.39249508292,69021.0916425099,70317.22459998424,72000.51212316897,73181.8688728653,74939.9453329975,76086.8580444882,77800.25336745422,79064.49038559085,81143.26967516777,82663.6576847622,84435.59222645668,85131.62554879494,85251.98969268677,85235.49410527875,85324.58815867761,85374.58901102413,85405.97086023938,85437.44211643244,85468.95807611443,85500.54109102978,85531.49825710038,85537.10854495867,85568.06571102927,85317.01091730726,85006.54518682304,84947.0001395941,84228.68212803389,83957.9130957023,83245.51829642276,83292.0099248898,82756.9315143742,82824.23261692913,82209.29142347473,82057.99246525676,81046.5760286541,80399.91770981762,79160.96051465995,78349.03339732092,77043.7362246199,76058.02429414085,74907.5353035373,74158.26012590648,73384.0180497191,72644.26471522627,71975.9922595015,71362.66039164786,71031.07226265338,70516.04336691421,70366.89017616394,69833.48814648249,69752.15014840962,69187.8803596354,69187.2768625351,68677.83590290975,68712.05642367083,68051.04828489403,67970.98433625512,67331.45622389988,67432.79903326023,67012.78740320056,67142.2040035968,66814.92976128218,66959.41143744129,66725.2992660164,66866.3834770183,66709.69774838659,66702.05345178288,66572.18981649754,66315.41297619497,66023.96858024223,65641.39612214519,65545.06010354283,65065.190501831836,64924.64273269686,64344.10087395917,64244.8144250887,63614.58463842686,63595.831524828856,63009.366453810515,63055.38869564399,62434.47958642001,62465.50380772398,61882.79382977413,61920.233001736764,61377.465591128544,61324.268439324915,60767.30767098757,60663.684983692765,60217.90179227613,60159.2508148254,59933.36408536007,59821.58301133908,59585.88386605786,59303.06724346486,59197.343492191256,58923.288753424735,58919.22073593387,58621.47314804473,58735.936431400354,58387.80801150895,58561.101086270945,58165.072878011815,58350.59235699086,57966.589387248685,58186.6870149001,57875.573083826675,58257.87732099025,57996.85364924117,58279.223236945065,57939.387314246575,58111.383987830166,57886.816011287694,58106.95834242801,57988.49409681489,58013.52805060483,57827.047446614204,57839.36325780908,57865.291281377235,57750.69388755487,57765.15546621746,57533.81491110503,57609.02853119714,57326.72599872661,57493.29119840756,57284.81647787291,57632.564918108576,57376.92801677323,57766.20599820686,57531.132701770395,57846.426409056956,57441.6586687158,57654.40257244141,57296.439384989666,57528.33873371348,57214.006151438494,57295.47825997809,56898.243057518375,56898.55598194075,56616.96870529279,56562.184579632834,56403.68835970025,56325.457254106674,56319.37757961483,56167.38571731874,56148.96787988757,55903.7468914684,56049.815541483826,55777.101907384626,55951.3561071582,55643.19260635288,55904.193926357504,55581.61355037851,55891.81105992926,55581.41238467841,55908.06077814827,55562.18988444685,55837.988059280884,55560.35704140151,55858.73047813541,55623.791292165675,55796.52557331629,55579.19956197734,55757.34296528614,55692.858182532575,55670.03705144371,55494.97818886974,55399.6256470234,55407.47110932721,55276.15461065229,55343.880396351866,55144.994574188546,55329.195300244726,55069.87036107426,55281.8990089773,54955.652946907634,55259.74843022209,54915.10688246571,55197.141194002776,54884.79791698432,55205.74661561807,54860.658032972584,55082.00735831349,54730.32501105369,54957.284624252876,54696.2609525038,54876.70658549149,54666.39902191151,54772.927435985504,54715.34934226863,54760.38810734607,54751.33565084168,54710.45431023292,54767.540665571774,54664.61088235508,54848.2975182888,54711.59424920014,54955.943519585555,54639.264004142766,54760.23164513489,54255.529255334055,54300.612723900405,53788.71307238496,54094.14966036674,54052.508360446496,54901.3605596257,55256.32861332043,56235.40207569624,56447.16250266582,57044.87050114519,57279.27324524799,58111.87572620818,58895.32672111115,60136.161462803066,61292.55131394283,62527.7087125431,63693.7321655431,64698.10780264233,65676.62247140676,66104.0995841145,66614.45696526254,66534.28125790134,66654.22071864852,66026.36021689895,65800.87581883381,64853.07244695097,64408.60800845719,63113.592638205606,62269.68017455104,60646.31767825099,59592.343520205446,57972.82552395172,57091.675054034604,55943.37653438766,55491.42426150135,54835.55702394927,54828.89620410159,54840.96614610746,55364.57811171748,55801.86764024111,56269.60024471286,56732.01313400426,57037.24855628593,57437.56829948048,57449.0123926416,57711.15365161344,57535.9830303172,57814.57517320814,57478.628454044876,57584.97805416323,57137.00439178997,57427.04062784203,57109.578801343305,57325.04961789246,56870.750411838344,57128.44367366358,56849.87388251709,57143.195825004084,56908.05547333425,57107.8800687647,56919.85719440666,57040.26604178739,56930.49662476738,57050.10080934773,57123.19101371658,57201.31036058788,57332.17982437371,57349.18950190419,57622.64074357042,57652.23445322925,58043.144112008114,57974.25603559685,58433.85260508688,58322.563269443905,58737.545757001135,58543.6667255958,59009.05239689975,58883.525000038746,59359.37128774778,59214.755501121945,59777.28185382865,59768.922301402374,60224.33909467925,60233.54801339484,60794.64385445641,60980.3421473911,61397.20218148258,61539.24751749606,61775.17018022182,61987.08706940259,62193.30426374725,62488.61551149077,62598.34022502187,62951.29662171562,63034.53451806719,63522.18252684862,63438.117615952215,63850.39554243035,63579.69356533213,63746.124654546344,63231.542793696266,63375.39862101062,62915.71264454278,63150.33890609013,62880.68746098131,63316.09944297069,63239.81293914473,63649.54276675496,63549.831634739836,63871.29442349606,63884.750173658154,64179.41322081247,64318.50812655785,64511.02370155141,64619.563772626374,64608.45495563209,64659.81926439038,64504.474640426,64704.90273295674,64543.05375135586,64856.156987685805,64664.64724119273,65075.44995253682,64886.063621767,65259.807140804194,65038.279001507646,65480.5529690448,65244.831472019134,65600.62654025872,65358.870072230115,65694.74973616001,65515.175821206074,65817.90784810875,65687.57482618986,65885.18659891923,65771.08094347488,65894.97666299065,65880.73860177262,65955.72870442018,66070.86254010946,66110.02279639516,66375.80738971321,66392.12416316559,66713.45284145509,66476.3902397621,66659.00399196196,66434.54777414177,66850.69255241068,66657.9311082281,67049.51131934063,66776.93179570817,67166.0980184195,66923.40277712379,67292.65359552547,67064.48698812569,67364.46975046037,67172.98235571175,67407.67567249246,67294.91112171544,67550.72683700644,67511.85715339865,67587.31664267977,67533.87362168713,67559.64518304411,67699.74591728997,67675.65073676714,67887.27705327,67809.91766571018,68113.09672750196,67939.37896959532,68170.76422819665,67880.75034388904,68232.9020777824,68001.06978429196,68356.06018973114,68100.6244540959,68525.21819176892,68277.60556669302,68622.51533538286,68391.33124248162,68717.64435978465,68551.66030545955,68807.40896551717,68718.60548479622,68959.55729002444,68972.96833669762,69006.60771210286,68953.4776155326,68943.88871716127,69072.21008207918,69011.86037204985,69209.74036571269,69015.36959592934,69273.44283741032,69067.18093957675,69465.0419908812,69286.78682885013,69647.05224598077,69362.40278034244,69730.89363943263,69434.15188004398,69803.24623623447,69539.80857608421,69844.19463207659,69615.71510025443,69969.07382834838,69825.75444290096,70037.31370417043,69905.90779851768,70046.09793974138,69984.54123551145,70048.17665197571,70151.82169101498,70134.2532198731,70273.50458782967,70193.57474965749,70424.4682698808,70296.81745729655,70569.15111174001,70268.31898311603,70561.9538500254,70325.07006228805,70695.75139233487,70380.97177517078,70755.74347445292,70510.45543080037,70863.59064144977,70610.41243200451,70929.10360444828,70737.21387829946,71045.77971050498,70910.19402863909,71079.73201033259,70939.47481387554,71039.29770461294,71057.17910017719,71045.8691174828,71061.91767000171,71026.7136724846,71200.78905830253,70955.14338673871,70941.3970638987,70551.11325396458,70718.66193040156,70363.13508309545,70548.2522306743,70094.6012252094,70276.56677682004,69786.88475929317,69904.05260372789,69475.07792414165,69742.1589186381,69441.12562431402,69682.03272605332,69474.11679913006,69765.47178810499,69727.74204346443,70052.28937295549,70056.75972184655,70204.66121490732,70200.25792124962,70177.32503143848,70272.72227677373,70243.06151188153,70448.33993295908,70241.22866883621,70340.62687642896,70077.99387907909,70384.05631590562,70190.8701885784,70540.0044369703,70293.6882130728,70730.57541019624,70443.10962475653,70732.00592184138,70440.27095321071,70752.39071278462,70495.12213410404,70762.8513291897,70505.64980574249,70773.91544269508,70644.16356613202,70707.37429945164,70585.1102572811,70731.00009334089,70885.4282957826,70907.37770883772,70974.14236952573,70841.30595222783,70965.58165139933,70782.8114369883,71023.7185387276,70792.80266675982,71119.5851706964,70871.1231793312,71214.6024363759,70892.35733656376,71231.58976216195,70917.12306942024,71187.53447384054,70880.1756358356,71256.8695851409,71041.97991394758,71234.04845405203,71002.46202975059,71222.47025042419,71115.8300776279,71228.32640747147,71180.47132259265,71245.98428559117,71269.40891378032,71197.63746233433,71369.16474928436,71295.87337921541,71484.03036404018,71330.27271393212,71618.90079008351,71363.73327538172,71623.43819420793,71313.62066431293,71638.70443567091,71313.59831256847,71625.94158958693,71326.11528946344,71698.2718346443,71440.2656483967,71735.59924788466,71476.54252964766,71693.57796830869,71471.17811097838,71658.44102602494,71526.2304575718,71556.07003641964,71501.04004157067,71536.9369431659,71565.48012083532,71473.88267205747,71584.72497281134,71474.79909358015,71686.15718914953,71541.5861060126,71852.208298708,71584.99319374481,71876.14701701964,71555.15361489698,71813.94211220052,71457.610602094,71794.92077766905,71456.13538695996,71795.85955093618,71557.6346585315,71852.76709231938,71578.22061517485,71743.86939333312,71569.145806926,71754.08414054921,71658.53043300277,71644.47118574037,71500.30243400365,71478.621241882,71579.85229252008,71540.60262925657,71722.54582912277,71611.36825220207,71829.00718796339,71591.31873742565,71816.95959770198,71496.50263744625,71753.97238182693,71427.0557674236,71759.85089061868,71451.62033457999,71824.13450767213,71484.7232681183,71724.26691344583,71378.41837148886,71619.14665927252,71445.13832868796,71679.42931406847,71549.74449273878,71700.19408466746,71608.03784227822,71622.54412442973,71538.32275132212,71488.38895420897,71573.23617616131,71471.49103540076,71628.19911577691,71396.23271181974,71595.47616189434,71335.90535353486,71604.86389456557,71352.75856885417,71729.6313321151,71401.46302002227,71666.55470926223,71302.60125429646,71650.79672942123,71353.1385485099,71658.32926730267,71360.9393073248,71590.37996415854,71359.93347882431,71506.94090210687,71372.0481243191,71464.0702562416,71379.37949650043,71382.21816804627,71398.04320312061,71302.64595778537,71369.14239753991,71237.51297444261,71445.63006706597,71288.0726204005,71480.67760237188,71133.0409208585,71382.32992676854,71058.38609437777,71387.78375241563,71102.30727223246,71458.43761663885,71144.8873454198,71493.90983508943,71213.66366310879,71423.16656388839,71116.5900369394,71343.92962979432,71202.24192169213,71321.42142312783,71172.42469458874,71287.33501283349,71287.04444015556,71291.64889951335,71254.321486273,71169.42956083173,71264.64799221135,71068.73495206058,71219.89979981181,70953.08702624882,71183.06412494948,70900.04633665638,71122.58030445341,70722.39467172559,71042.2704866255,70733.25761953088,71066.65623982623,70836.07564402529,71279.31073657403,71067.25973692653,71275.71210571672,70923.56037182336,71027.67479749618,70616.2685890518,70357.18951907034,69728.50200277592,69153.25750747413,68435.16301335848,67616.39626221613,66800.2223134306,65838.80672917447,65087.92222594288,64113.58733339159,63594.1104405058,62850.020867588624,62764.83836946945,62304.325378456764,62497.89148543972,62212.660874445544,62633.96890568363,62540.24804118253,63206.777060839784,63417.0175691864,64301.81137344973,64727.81327102343,65670.27457598146,66181.19075074086,67109.81632588105,67614.22814300396,68278.90196787142,68645.15765251609,68911.05400455643,69048.87486086784,69120.24398091364,69381.40176312946,69410.28021696571,69671.90738581508,69613.39051883107,69932.57342965287,69725.19394459653,69995.89592169476,69696.82958088274,70021.06398595143,69785.18602671457,70197.53100842607,69981.92608141019,70346.43832998733,70088.45449548418,70499.30191031718,70354.48495799124,70665.3306681312,70507.54970402119,70777.89405320812,70790.83571324775,70991.91200636768,70998.37166051527,71100.34031872038,71164.75804624057,71137.26540056056,71237.42356746478,71161.71820899466,71461.00806725121,71437.40462510641,71843.87109802617,71751.98307657041,72158.00251460106,71891.59207243826,72202.25896862257,71892.15086604963,72160.01417160203,71816.55726630178,72050.84825168231,71723.19402971197,72045.84146092433,71865.75345584792,72084.018240454,71921.6775204751,72104.44773488614,72023.8026408914,72159.65654369075,72159.32126752392,72214.15009667279,72316.78930721155,72245.8001668215,72325.5735427825,72169.17838682872,72384.31392721104,72166.29501179398,72391.06415403655,72111.35442392284,72362.8339007895,72027.80360314889,72320.67851074679,72034.08444334083,72393.74636337119,72094.59061558136,72455.72775074575,72242.98384702014,72554.88008914949,72376.28965095158,72621.33182541512,72546.60994370103,72766.39464693006,72677.2558900423,72710.5152857918,72660.02269506725,72604.05392695116,72705.15086712252,72660.51443344528,72841.76472923336,72754.90585028003,72995.90235899715,72721.98173069737,72969.1249691397,72697.73008796335,72978.64681227766,72676.49593073082,73003.97133874553,72654.21124150888,72913.17855276806,72587.1336563985,72824.24096158039,72548.91217337993,72769.85916732064,72490.01532674019,72608.97131073133,72425.10586084198,72551.124996081,72508.65668161592,72576.65068824896,72586.37369708702,72527.9685888253,72602.55636007266,72495.44680064284,72614.55924684517,72424.70352944179,72712.25872185931,72473.87736724346,72659.3968462225,72256.84192858242,72482.2592714142,72061.28651634294,72185.31634632545,71691.61101479662,71886.04883981333,71626.0086448203,72004.0436987929,71866.08873201474,72235.22779169414,72118.79755482645,72358.34120015397,72304.07116461649,72474.77143702167,72469.22820439676,72549.09098733557,72649.60678215108,72593.41449659044,72721.13236440807,72631.97125577585,72887.29523268882,73265.30793491697,73391.93056725629,73031.75455710347,73189.26730028001,73053.9945428365,73267.92308901824,73303.95410108019,73532.67950209136,73764.19887115943,73987.98453664596,74257.43481605468,74305.15579046677,74578.89760481092,74441.47907989968,74554.15422369889,74238.83816466788,74484.5285397206,74127.79469821391,74240.35808329083,73750.94428669743,74033.24681916795,73784.33779291366,74095.29526177589,73748.86557446308,73926.56194288278,73570.58806068756,73742.58473427113,73531.6066183575,73703.67034717445,73503.46577208827,73555.70179888031,73456.8400331545,73420.45139318125,73415.95869254574,73312.24659827311,73302.07655454594,73124.02255821497,73243.96201896215,73016.19774296257,73214.12244011431,72933.69745417804,73245.75015851858,72970.77899822939,73190.49664622506,72780.81152210373,73066.51151973147,72746.45689087592,73011.25800743795,72656.33465723213,72935.59735245674,72658.77099737775,72813.6909381975,72520.77132711069,72648.66800888396,72552.06376934813,72591.06756342264,72485.12029470448,72422.17778231834,72392.06998253704,72282.03234458355,72377.25077596317,72231.29388467001,72408.85614262297,72154.47093897712,72352.55209834005,72077.15625490621,72323.18190612578,71990.18561723061,72307.69214721824,72001.0932685248,72341.21976390122,71979.56853861435,72207.73514601412,71889.11102880372,72121.88209556128,71860.38903717864,72017.96883558856,71816.89254246862,71957.70853253706,71854.24230745343,71871.54255766184,71799.97227191595,71773.46310299195,71862.15482499062,71715.929712764,71774.26776579235,71545.05062640317,71698.89768348905,71478.33066920408,71778.53694898331,71513.44525974337,71769.90917562356,71401.39596478891,71671.94147967595,71359.17351951284,71690.94046246297,71398.51258975417,71713.24750342936,71466.70776208732,71650.70732244341,71384.18512155833,71522.40830926994,71364.06855154855,71526.58808548309,71470.99929702275,71510.628939942,71448.42403512288,71359.08411253501,71446.07710195507,71338.52050763613,71518.13912607898,71326.42821388581,71549.31980959413,71256.37784676289,71418.6068080195,71087.80099008096,71447.52996534467,71141.2887145625,71439.32687512957,71165.18272938523,70961.67009611966,71226.24769523712,70926.75667128047,71207.02519500557,70990.28032902245,71226.82884059296,71066.32096365941,71224.39250044734,71097.76986810802,71185.299299395,71194.88819776633,71185.23224416164,71205.79584906052,71064.59987933635,71143.43448203022,70988.1122098103,71244.48671871267,71051.50175708554,71313.06187070154,71027.40657656272,71283.91519593183,70931.49524110499,71308.36800436593,71024.03146314996,71336.35238842397,71030.17819287517,71285.45746629924,70995.46593373608,71264.04449511105,71049.4230448512,71280.78595170808,71135.45490925967,71233.064977296,71093.38892619478,71124.6366649433,71108.38694672429,71093.2324639836,71210.91439854079,71081.94483303366,71204.16417171528,71006.53004724145,71260.55762297602,71048.5736785619,71280.74124821917,70927.67309280313,71208.05337525051,70917.74891826497,71295.60515828195,71017.75062295802,71272.60521323743,70919.22413339902,71200.0067472466,70966.36396245527,71257.56248921901,71097.00990879655,71280.76359996363,71118.95932185165,71187.17684592925,71112.25379851506,71208.27689269507,71332.97727501122,71264.96091663372,71315.81113526954,71133.82323191443,71273.00754463763,71059.81660602291,71298.10855366095,71050.33946637386,71299.96374845073,70964.08408452083,71275.46623652772,71000.49507623853,71415.32110158457,71128.27999928952,71377.52430171064,71070.88071952829,71352.13272000942,71135.74548193759,71376.76434239917,71182.304165638,71353.67499037684,71247.10187281393,71307.51863807662,71182.90766273829,71165.20508112968,71284.7198587322,71232.39442496233,71374.99855458719,71203.24775019262,71398.93727289882,71191.5577878425,71441.33853213055,71161.0029531721,71465.9701545203,71134.06910110344,71387.62729020444,71097.90397857476,71439.30452338512,71151.7940344565,71426.92165695688,71111.69500490368,71378.03839183312,71155.05738914697,71326.67408307482,71099.91563557573,71222.60436089091,71140.37229303984,71196.74339255612,71172.55880505548,71171.01653468807,71334.67600758982,71285.7256872327,71442.76904377568,71256.64606769635,71472.56391913461,71218.49163991114,71448.06640721159,71131.69981619118,71403.25115957871,71185.41105811729,71309.30677763304,71268.33603004647,71357.69830437879,71414.8070114621,71344.13079549442,71417.04218590763,71270.14652134736,71434.00715994921,71251.77338740509,71532.62305648602,71269.43126552478,71483.24805298424,71163.7522177401,71440.44446235233,71109.01279556904,71442.76904377568,71142.27219131854,71448.82636652308,71193.14476169882,71447.17233743338,71203.00188100361,71431.23554363675,71217.44110792174,71317.10753644795,71156.30908683647,71293.50409430315,71310.20084741127,71326.96465575274,71335.21244945675,71249.49350947065,71337.91701053584,71188.8532267634,71387.06849659306,71155.97381066965,71382.26287153517,71096.33935646288,71352.8926793209,71040.23647788007,71435.4153198499,71136.8407174159,71392.41056351789,71111.1362112923,71445.56301183261,71202.84541879242,71488.67952688689,71242.45270996723,71435.39296810544,71289.25726285664,71448.02170372268,71347.57296414053,71468.89823304395,71478.55418664863,71419.6573400089,71477.59306163706,71402.22297933376,71526.78925118319,71318.31453064854,71508.17024805192,71265.13973058936,71510.33836726408,71293.4817425587,71648.7627206758,71357.45243518979,71708.5759888382,71398.37847928745,71633.98821759084,71262.43516951027,71544.67064674743,71324.61772258494,71654.50711900082,71480.00705003823,71641.11842407208,71457.07416022709,71550.95148693938,71457.87882302748,71514.60755045504,71532.35483555256,71459.62225909499,71496.5249891907,71425.82642147856,71664.52070051679,71461.58921260705,71613.71518536987,71412.68359573884,71781.0403443623,71529.5832192401,71763.5836319427,71410.98486316024,71713.91805576302,71380.94411861231,71654.64122946754,71367.62247891695,71694.20381715344,71453.02849448068,71643.89004038455,71380.29591802311,71518.49675399027,71366.348429483,71518.630864457,71507.6785096739,71546.61524851504,71608.5072289118,71513.35585276554,71552.04672241768,71408.14619161442,71589.10591472458,71348.42233042984,71507.4326404849,71206.42169790527,71519.65904470194,71215.6529683653,71503.92341660541,71140.95343839568,71400.32308105506,71051.01001870751,71323.99187374019,71029.37353007478,71290.01722216811,71123.49672597609,71387.91786288236,71234.38373021886,71406.603921247,71292.69943150276,71403.38527004543,71473.63680286847,71590.60348160309,71720.10948897713,71668.67812498548,71813.0480424223,71717.15905870903,72015.82306812085,71806.9013126971,72049.08246387035,71759.00152432937,72043.31571380088,71796.68656548102,72176.57681424342,71858.13151098866,72115.4671449026,71718.92484652101,71935.11091889274,71648.85212765362,71903.214979555,71701.46813410141,71891.18974103806,71749.01029455785,71928.76302346743,71857.19273772153,71907.88649414618,71927.98071241149,71947.89611672117,72080.41960959669,71921.05167163035,72021.12043155676,71812.53395229983,72020.76280364547,71809.51646679836,72124.89958106275,71848.43085389506,72103.46425813012,71781.37562052913,72077.37977235076,71734.2804949618,72090.74611553505,71832.02467346485,72041.68403645564,71713.80629704075,71966.67158206363,71803.01210916188,72004.73660287102,71900.19749405354,72028.69767292711,71967.43154137512,71978.49565488049,71976.08166647931,71935.84852645975,72028.25063803801,71816.22199013496,71905.89718888965,71687.36418335012,71902.83499989928,71683.58673853717,72070.51778680299,71855.62811560967,72155.32030526642,71810.99168193241,72140.41169171473,71832.42700486505,72166.60793621636,71842.5076416144,72020.62869317875,71712.64400632906,71906.43363075658,71768.94805061199,71940.00595092845,71816.78078374635,71916.71543320602,71916.55897099483,71976.6851635796,72076.84333048384,72013.61024541977,72103.017223241,71871.69901987303,72006.10005928279,71851.18011846306,72222.33083514344,71927.62308450021,72164.01513385953,71820.58058030374,72171.30180255197,71879.3656682212,72167.54670948347,71835.62330432216,72155.25325003306,71908.55704647984,72127.11240376382,71849.8613655402,72034.37501601875,71918.50357276245,72071.4118565812,71976.30518392386,72073.37881009327,72069.35549609132,72007.08353603883,72030.64227469472,71901.33743302077,72022.21566703507,71864.27824071387,72097.85397027183,71854.01879000888,72138.6235521583,71871.94488906204,72151.00641858655,71794.11611486867,72087.92979573367,71776.05590534877,72136.09780503486,71898.25289228593,72207.28811112502,71950.9359539671,72156.54965121146,71913.96616863801,72108.269883188,71986.76580032895,72058.7607692195,71953.484052835,71956.233317403,71987.1457799847,71935.24502935947,71995.25946322197,71821.47465008196,71941.36940734023,71743.19884099947,72006.21181800507,71767.20461454448,72089.89674924575,71818.68068202503,72130.06283403192,71803.77206847335,72107.04053724295,71765.4388267325,72029.77055666097,71734.25814321735,72018.70644315559,71788.66228922157,71996.95819580057,71748.40679745756,71890.98857533796,71767.9869256004,71805.67196675205,71778.55930072776,71813.13744940012,71868.6591826271,71832.49406009843,71972.14775945518,71787.74586769889,71989.93974804161,71755.22407951643,71962.49180585048,71665.10184587263,71888.64164217016,71539.35093156707,71857.93034528857,71596.39258341701,71971.5889658438,71658.99981963633,71854.55523187581,71522.09538484758,71780.5933094732,71640.5149269718,71899.32577601979,71709.67122431651,71832.42700486505,71704.64208181406,71670.0639331417,71589.37413565804,71555.77946374172,71654.84239516764,71565.1448446685,71692.08040143018,71515.6804341889,71728.55844838124,71472.11688424551,71745.70223637846,71511.50065797576,71835.3997868776,71519.01084411274,71778.78281817232,71457.83411953856,71848.38615040615,71604.08158350964,71862.40069417963,71531.90780066345,71733.18525948349,71487.0702012861,71576.00779247377,71348.57879264103,71501.08474505959,71477.32484070359,71461.83508179606,71380.45238023429,71299.22614088371,71477.03426802567,71446.47943335527,71669.72865697487,71472.74273309026,71690.76164850732,71392.07528735105,71666.88998542905,71379.60301394499,71672.1202936316,71330.47387963222,71607.14377250001,71328.84220228699,71659.35744754762,71347.46120541827,71566.53065282472,71302.37773685191,71520.19548656887,71322.71782430624,71526.69984420536,71457.49884337174,71542.41312055745,71442.43376760886,71366.21431901626,71348.57879264103,71268.85012016895,71407.52034276967,71264.75975093362,71396.9032641534,71144.12738610833,71416.97513067427,71172.91643296677,71460.7621980622,71149.31299082196,71477.01191628122,71184.4499331057,71462.70679982982,71089.32090870391,71362.10159803649,71074.27818468549,71320.16972543833,71058.31903914441,71291.15716113534,71151.10113037839,71269.0736376135,71108.38694672429,71194.26234892159,71244.93375360177,71249.29234377055,71347.08122576252,71224.63836963635,71344.37666468343,71171.17299689926,71354.56906015505,71136.68425520472,71449.89925025693,71182.550034827,71420.46200280929,71078.34620217636,71423.61359877749,71142.38395004082,71442.65728505341,71114.15369679376,71426.27345636766,71148.46362453265,71341.98502802671,71091.60078663836,71283.53521627608,71187.71328779618,71327.2328766862,71254.58970720645,71318.73921379319,71407.31917706957,71346.99181878469,71372.31634525256,71222.22438123517,71420.97609293176,71250.1193583154,71493.19457926686,71265.54206198956,71566.35183886909,71290.8218849685,71547.35285608207,71238.83172736547,71692.75095376384,71409.17437185936,71630.94838034491,71283.91519593183,71593.55391187119,71363.10742653697,71539.55209726717,71306.08812643148,71497.19554152436,71408.48146778125,71506.67268117341,71472.00512552322,71512.12650682051,71593.88918803803,71524.129393593,71591.63166184803,71369.99176382921,71560.87566147753,71400.9042264109,71654.59652597863,71392.0529356066,71706.11729694811,71387.40377275989,71635.39637749152,71271.10764635893,71639.53145021576,71382.55344421309,71631.59658093413,71315.58761782499,71603.0534032647,71388.096676838,71546.16821362593,71312.90540849035,71461.3656951625,71394.44457226331,71462.1703579629,71456.78358754916,71426.1616976454,71459.17522420589,71399.8089909326,71610.13890625702,71490.24414899875,71700.90934049003,71403.42997353435,71617.91731332747,71300.70135601776,71556.45001607538,71265.29619280055,71658.37397079158,71388.47665649375,71725.89859079107,71420.52905804265,71686.26894787181,71440.2656483967,71822.79340300482,71752.94420158198,71964.70462855157,71867.45218842653,72144.81498537243,72268.77776012156,72525.44284170185,72761.83489106118,72927.41661398609,73155.2702969635,73154.68915160766,73459.1422628334,73351.18333711426,73711.24758854481,73548.52688891017,73852.75648269134,73550.89617382243,73908.61349208516,73643.99118947878,73957.65321942011,73660.4867768868,73973.1653300721,73621.46063106784,73827.2754940123,73513.7475745377,73674.16604449345,73368.19301464476,73373.17745365828,73072.50178724549,73070.82540641134,73011.4815248825,72907.59061665424,72805.39844100457,72583.71383949684,72576.1813016154,72378.39071493039,72505.66154785891,72212.96545421665,72334.11190916442,71974.87467227873,72252.9527250472,71924.02445364291,72173.20170083067,71773.55250996978,72001.42854469163,71601.6005398751,71858.04210401083,71570.26339414876,71847.80500505031,71637.58684844815,71785.98007988693,71532.2877803192,71598.18072297344,71430.31912211409,71459.35403816153,71417.62333126347,71358.97235381274,71391.71765943976,71337.46997564673,71528.7338529508,71339.70515009227,71516.26157954473,71289.9278151903,71538.90389667796,71221.41971843479,71469.63584061096,71105.63768215629,71405.28516832413,71042.42694883668,71277.99198365117,70920.47583108852,71236.48479419766,70951.0530175034,71143.47918551913,70902.16975237963,71079.5755481214,70938.91602026415,71109.70569964715,71089.14209474827,71137.98065638312,71129.01760685655,71083.64356561226,71194.41881113277,71136.8407174159,71327.79167029759,71071.64067883977,71196.56457860048,70827.42551892108,70986.61464293177,70617.5202867413,70842.40118770614,70476.48077922831,70714.3480437217,70282.17706467833,70494.80920968165,70185.39401118684,70448.11641551452,70190.2666914781,70374.55682451211,70113.89078067432,70227.75056692965,70086.8451698834,70181.43775241825,70140.39994959832,70197.6204154039,70294.47052412874,70230.9245146423,70306.76398357916,70143.01510369958,70347.44415848782,70186.98098504318,70481.93460487541,70248.42593055082,70574.58258564265,70252.24807885267,70542.64194281602,70223.23551454968,70566.62536461656,70256.56196553254,70547.96165799638,70293.19647469479,70593.24629226283,70379.92124318138,70598.58835918765,70394.1146009105,70527.53216356423,70478.58184320711,70619.93427514247,70645.30350509925,70568.61466987309,70629.43376653598,70554.19779469942,70727.42381422804,70639.76027247432,70995.82356164737,70766.2487943469,70950.36011342527,70565.44072216043,70855.81223437932,70594.90032135253,70991.86730287877,70720.60653216917,70979.61854691726,70627.06448162372,70901.87917970172,70612.80406866122,70888.69165047308,70735.53749746532,70904.51668554744,70726.35093049418,70911.87040947324,70899.733412234,70898.52641803342,70882.90254865916,70861.57898444879,70985.74292489802,70798.0106232179,70901.76742097943,70744.67936094754,71056.1732716767,70860.55080420386,71079.48614114358,70761.26435533338,71160.98060142763,70838.80255684884,71082.41421966723,70770.94266068253,71218.53634340005,71017.4153467912,71234.74135813015,70879.61684222423,71096.5852256519,70944.41454940016,71119.83103988541,71057.89435599976,71200.54318911352,71160.4441595607,71108.96809208013,71055.3239053874,70901.07451690132,71027.16070737371,70959.92666005215,71194.17294194376,71007.49117225304,71286.15037037735,71007.71468969759,71258.21068980821,70946.2920959344,71317.7333852927,71059.25781241152,71386.97908961524,71048.68543728416,71315.05117595807,71043.83510873737,71335.27950469012,71119.1828392962,71306.60221655396,71117.17118229523,71273.25341382663,71192.63067157635,71287.96086167824,71290.64307101286,71236.2165732642,71275.15331210534,71204.43239264876,71391.15886582839,71262.323410788,71500.34713749256,71215.4070991763,71500.123620048,71196.4081163893,71440.7126832858,71100.36267046483,71444.98186647677,71134.78435692601,71452.80497703612,71173.05054343349,71468.45119815484,71189.99316573062,71435.48237508326,71224.2583899806,71432.21902039279,71310.580827067,71417.48922079674,71382.21816804627,71456.5600701046,71445.67477055488,71367.13074053892,71468.02651501019,71315.98994922519,71502.40349798245,71393.23757806273,71681.55272979173,71358.36885671245,71575.65016456248,71331.4350046438,71702.58572132418,71392.00823211769,71707.30193940425,71359.01705730165,71596.16906597246,71274.70627721623,71606.4508684219,71388.9013396384,71656.80934867972,71510.1819050529,71640.64903743852,71467.57948012107,71525.89518140498,71513.48996323228,71602.09227825311,71693.06387818622,71589.44119089142,71617.78320286074,71413.01887190568,71642.07954908366,71450.6145060795,71709.6265208276,71440.24329665223,71759.3368004962,71457.8117677941,71760.61084993015,71436.33174137256,71729.676035604,71399.2054938323,71729.81014607074,71476.9225093034,71789.64576597759,71590.78229555873,71762.86837612014,71554.61717303004,71688.28060487278,71622.43236570744,71641.69956942792,71605.69090911042,71608.1496010005,71733.90051530606,71654.73063644537,71811.25990286587,71662.33022956018,71891.10033406023,71604.61802537656,71850.64367659613,71596.05730725019,71885.78061887987,71529.91849540694,71821.09467042622,71559.91453646595,71955.33924762478,71656.27290681278,71913.80970642682,71599.96886252986,71831.5552868313,71608.28371146724,71742.59534389917,71600.41589741896,71742.2377159879,71727.06088150274,71739.44374793099,71731.933561794,71650.99789512133,71722.59053261168,71629.02613032176,71887.79227588086,71711.63817782857,71925.18674435458,71646.54989797472,71938.79895672786,71627.81913612118,71883.83601711226,71563.20024290089,71929.32181707882,71643.01832235078,71914.56966573831,71593.88918803803,71846.59801084972,71621.62770290705,71867.25102272643,71729.4748699039,71876.23642399746,71702.920997491,71731.35241643815,71680.65866001352,71673.14847387654,71785.93537639802,71745.14344276708,71866.5134151594,71696.03666019878,71899.05755508633,71702.80923876874,71976.10401822376,71670.10863663061,71884.19364502355,71517.75914642324,71762.8907278646,71427.32398835706,71785.51069325337,71542.70369323537,71874.42593269658,71593.68802233793,71807.16953363056,71550.37034158353,71716.86848603112,71569.145806926,71724.78100356829,71641.54310721673,71666.48765402885,71623.63935990803,71588.45771413538,71657.23403182437,71525.49285000478,71698.0706689442,71553.05255091818,71767.42813198903,71507.54439920717,71774.17835881452,71467.60183186554,71763.82950113172,71453.49788111424,71774.33482102571,71444.17720367637,71737.20857348545,71414.91877018438,71732.96174203894,71485.50557917423,71728.73726233689,71538.05453038866,71723.35049192316,71604.43921142092,71622.76764187428,71494.33451823409,71467.2218522098,71472.65332611243,71432.42018609289,71562.21676614485,71443.77487227618,71635.08345306915,71389.41542976088,71580.76871404276,71250.34287575995,71525.60460872705,71226.9182475708,71537.87571643302,71220.12331725638,71600.1476764855,71326.60702784146,71585.41787688946,71268.15721609083,71599.00773751829,71358.92765032384,71559.3333911101,71442.70198854232,71643.44300549543,71537.45103328837,71585.17200770044,71492.34521297755,71462.34917191854,71536.80283269916,71420.9090376984,71483.11394251752,71302.86947522992,71552.3372950956,71303.36121360793,71520.66487320243,71251.1698903048,71587.13896121252,71276.58382375048,71634.30114201321,71377.90428136638,71695.00847995383,71352.8926793209,71645.72288342987,71418.89738069742,71650.55086023222,71388.67782219384,71600.61706311906,71481.63872738347,71584.72497281134,71485.08089602958,71518.65321620145,71512.37237600952,71474.75439009123,71607.34493820011,71500.39184098147,71633.67529316846,71479.62707038248,71766.64582093309,71453.31906715859,71633.78705189074,71270.41474228082,71561.143882411,71270.34768704746,71623.14762153002,71331.94909476627,71664.67716272798,71396.36682228647,71662.5090435158,71394.31046179659,71650.84143291014,71435.08004368306,71567.78235051422,71420.26083710919,71539.86502168955,71561.41210334445,71615.39156620402,71651.33317128816,71593.55391187119,71674.40017156604,71481.99635529474,71668.164034863,71468.2723841992,71724.64689310157,71399.38430778794,71634.79288039124,71316.39228062538,71660.98912489285,71380.65354593439,71765.86350987715,71493.93218683389,71829.99066471943,71566.888280736,71788.08114386573,71506.56092245113,71708.173657438,71541.65316124597,71697.04248869926,71576.70069655188,71626.2545140093,71627.12623204305,71621.6053511626,71699.79175326726,71601.22056021936,71746.2833817343,71573.1914726724,71733.18525948349,71467.8253493101,71740.09194852019,71451.57563109108,71718.18723895398,71402.26768282267,71722.65758784504,71431.57081980357,71793.93730091302,71503.05169857165,71836.69618805603,71586.62487109004,71815.52908605685,71587.89892052399,71809.4047080761,71759.44855921848,71859.40556042262,71721.80822155574,71737.45444267445,71703.18921842446,71652.29429629973,71750.59726841417,71638.10093857061,71849.6601998401,71614.98923480383,71791.47860902293,71569.45873134836,71875.69998213054,71548.87277470503,71784.84014091971,71400.77011594416,71724.42337565702,71437.65049429542,71764.8353296322,71490.89234958796,71753.39123647108,71488.00897455323,71688.25825312833,71478.21891048181,71652.78603467776,71602.6063683756,71719.77421281031,71695.54492182075,71690.49342757386,71676.03184891127,71581.43926637642,71755.82757661672,71652.24959281083,71855.49400514293,71636.17868854746,71864.90408955862,71593.53156012674,71896.53180796288,71614.94453131492,71912.75917443744,71606.652034122,71991.54907364238,71661.6596772265,71861.52897614587,71502.80582938265,71656.85405216862,71369.25415626218,71575.40429537348,71425.22292437828,71586.73662981232,71555.01950443024,71685.55369204923,71670.04158139725,71569.01169645926,71597.30900493969,71505.5774456951,71674.55663377722,71462.88561378546,71637.8550693816,71349.91989730834,71610.11655451257,71353.9432113103,71719.88597153258,71421.7584039877,71670.913299431,71254.813224651,71573.12441743904,71321.9802167392,71632.78122339025,71390.62242396145,71626.14275528703,71359.77701661314,71440.35505537452,71166.38972358582,71156.17497636974,71002.9090646397,70947.40968315717,70909.70229026108,70903.86848495824,71295.3816408374,71539.99913215627,72096.89284526026,72345.46659534772,72973.5729662863,73052.9440108471,73639.34202663208,73475.90607117488,73786.90824352602,73415.80223033455,73643.99118947878,73262.29044941551,73594.07974411009,73276.01442051106,73346.15419461182,72924.35442499572,73026.65835936766,72758.19155671497,72996.21528341953,73013.96256851705,73147.64835210424,73092.46189504408,73057.41435973816,73074.46874075755,72971.74012324096,73060.34243826181,72754.50351887984,72780.0292110478,72408.38675598941,72612.23466542181,72337.1740981548,72674.01488709627,72408.47616296723,72674.93130861895,72299.48905700316,72607.56315083065,72265.64851589782,72517.23975148675,72204.0918116679,72445.06596864057,72152.2804680205,72233.97609400465,71990.63265211972,72046.1543853467,71938.95541893905,72000.28860572442,72076.19512989464,72059.99011516453,72038.84536490982,71859.18204297806,72003.66371913717,71849.30257192881,72096.51286560451,71813.6068360337,72060.30303958691,71717.4272796425,71886.25000551343,71486.10907627453,71775.27359429284,71435.88470648346,71741.67892237651,71515.65808244444,71847.08974922774,71595.4985136388,71789.06462062176,71535.14880360947,71646.2593252968,71465.41136090891,71536.19933559887,71431.59317154804,71377.18902554382,71357.7430078677,71323.4330801288,71449.7651397902,71320.12502194942,71523.70471044835,71269.2748033136,71438.85748849601,71129.8893248903,71424.46296506679,71155.1467961248,71489.41713445392,71159.97477292715,71414.51643878418,71053.8710419978,71351.26100197565,71058.18492867767,71333.51371687815,71055.9274024877,71203.47126763717,71041.68934126965,71197.0563169785,71074.36759166332,71152.3975315568,71147.6366099878,71110.68917640319,71136.75131043808,71019.27054158099,71180.09134293692,71053.80398676444,71203.78419205954,70932.59047658331,71243.25737276762,70996.36000351429,71281.36709706392,70943.02874124394,71221.4644219237,70869.98324036399,71195.53639835554,70919.15707816566,71272.40404753733,71082.81655106743,71395.13747634144,71198.97856700166,71357.02775204513,71180.27015689255,71263.10572184392,71179.17492141425,71255.19320430675,71291.15716113534,71268.89482365786,71379.53595871163,71211.49554389663,71334.92187677883,71093.94771980616,71293.41468732532,71052.95462047514,71328.12694646441,71009.30166355392,71257.38367526337,70887.4846562725,71177.4985405801,70886.72469696101,71210.06503225148,70910.66341527265,71153.42571180174,70868.5750804633,71077.96622252063,70892.84907494177,71077.13920797578,70957.6467821177,71091.7348971051,71079.68730684368,71099.42389719772,71162.76874098406,71113.99723458258,71221.0620905235,71038.96242844612,71217.7540323441,70980.26674750648,71253.85209963944,70979.506788195,71197.03396523405,70798.90469299612,71103.17899026621,70804.24675992093,71107.47052520163,70745.97576212595,71105.57062692293,70866.6751821846,71066.90210901524,70755.63171573063,70893.67608948662,70700.91464530404,70896.69357498808,70869.35739151924,70927.49427884749,70868.19510080757,70844.3681412182,70953.66817160466,70898.12408663322,71076.13337947529,70884.7800951934,70994.21423604658,70640.58728701917,70821.97169327398,70505.44864004239,70790.72395452547,70479.31945077413,70769.6015560152,70411.10192669653,70716.18088676702,70452.98909580578,70760.05736113279,70536.29404739071,70868.86565314123,70718.23724725691,70930.44470911559,70762.73957046743,70843.42936795109,70707.01667154035,70729.54722995129,70723.69107290401,70583.47857993587,70585.44553344793,70336.87178336046,70363.7609319402,70022.20392491865,70093.5953967089,69718.80134568231,69888.8981209872,69522.86595378708,69795.17725648609,69398.16557147093,69613.6363880201,69144.9203067923,69316.51464897569,68896.59242589383,69038.9953898186,68689.99525189343,68797.90947412366,68565.6301457441,68624.57169587276,68449.66929550997,68484.42625813797,68420.61202771807,68413.63828344802,68439.61101050509,68308.31686357461,68384.13398076702,68213.63487406193,68450.33984784363,68283.97581386278,68580.941090696,68391.51005643727,68781.54799718238,68506.37567119309,68806.00080561648,68483.12985695957,68876.60996635079,68655.23828926543,68996.81764803144,68753.8318340578,69033.34039847141,68815.3885382877,69027.23837223511,68943.66519971672,69107.10115517392,69037.47547119563,69030.61348564786,68966.26281336103,68963.49119704857,69124.4684606157,68996.86235152035,69073.75235244661,68864.13769294473,69100.55209404851,68881.19207396414,69190.47316199221,68948.33671430788,69253.9968197342,68989.57568282791,69419.39972870347,69220.31274084005,69587.26132956283,69313.72068091878,69582.79098067177,69333.09964336154,69595.9785099004,69485.94087194692,69752.48542457646,69726.78091845286,69948.64433391624,69999.04751766296,70056.782073591,70191.7642583566,70258.10423589995,70517.27271285924,70506.32035807615,70850.09018779876,70835.1145190137,71245.17962279078,71112.05263281497,71403.38527004543,71172.6482120333,71603.2992724537,71451.82150028009,71929.74650022347,71732.51470714984,72137.75183412454,71988.17396022963,72390.66182263635,72309.63674898587,72752.04482698976,72832.37699656213,73153.9738957851,73175.58803267337,73300.93661557873,73315.01821458558,73267.31959191794,73260.63642032581,73115.93122672215,73192.66476543722,72955.71392246652,73089.26559558697,72748.40149264353,72891.74322983543,72492.02698374116,72637.55919188967,72209.791506504,72524.43701320136,72259.47943442815,72699.7640967088,72470.23403289725,72744.73580655287,72400.80951461906,72621.86826728204,72405.43632572131,72548.24162104627,72329.52980155108,72420.52375322864,72356.86598501992,72408.31970075604,72461.62861128195,72392.18174125931,72455.88421295694,72405.86100886596,72659.24038401133,72505.59449262553,72698.73591646385,72463.46145432729,72839.86483095466,72595.80613324716,72896.45944791549,72544.10654832203,72853.03000843883,72581.65747900694,72869.23502316893,72551.81790015912,72872.23015692594,72636.21808722235,72815.63553996511,72580.47283655082,72717.93606495096,72613.62047357803,72788.94755708547,72828.86777268264,72801.82216189172,72806.76189741635,72721.69115801944,72799.20700779045,72630.60779936406,72752.55891711223,72534.09296680606,72823.25748482437,72585.30081335317,72862.90947948808,72465.74133226172,72670.52801496125,72232.63498933733,72401.837694864,71999.10396326828,72190.27843359452,71861.10429300122,72124.6760636182,71903.12557257719,72074.09406591584,71858.80206332232,71966.5374715969,71872.50368267343,71862.60185987972,71777.06173384926,71720.02008199932,71664.02896213878,71380.13945581192,71390.66712745036,71100.85440884286,71162.38876132832,70688.95646202046,70699.30531970327,70226.78944191807,70410.65489180743,69963.91057537921,70092.47780948614,69558.94166933795,69606.59558851666,69078.96030890469,69078.64738448232,68642.60955364819,68749.07091248881,68372.66753586144,68370.54412013819,68065.57691878997,67978.27100494754,67743.95766782257,67676.23188212299,67649.58860273226,67543.79779622529,67624.62170417568,67524.97762739392,67754.6418016722,67654.01424813441,67964.41292338526,67791.18690385662,68146.49023371818,67861.93017505767,68221.72620555475,67975.36527816836,68266.67556365438,67933.1875363812,68206.21409490277,67894.78723940697,68154.67097218883,67898.85525689785,68093.11426795891,67983.50131315009,68236.36659817297,68268.62016542199,68431.11734761207,68439.92393492746,68381.83175108812,68401.7918588867,68334.96014296534,68469.02590620828,68232.23152544875,68296.38103203548,68035.29030505304,68334.1778319094,68141.14816679337,68524.07825280169,68402.06007982018,68924.30858901842,68727.05444420033,69101.44616382672,68876.96759426208,69148.18366148278,68883.89663504323,69093.01955616708,68854.5040910845,69090.94084393274,69055.71449467116,69276.61678512297,69343.98494291127,69453.88847039801,69460.37047629005,69383.45812361933,69469.35587756109,69360.92756520839,69528.94562827893,69342.75559696622,69495.82034299617,69235.06489218056,69505.78922102324,69172.36824898342,69330.4174340269,68908.84118185534,69122.65796931481,68836.06390190887,69278.2037589793,69186.0251648456,69631.96481847344,69561.80269262823,69975.75699994052,70020.61695106231,70410.85605750752,70543.24543991631,70862.16012980463,71006.44064026364,71212.054337508,71460.73984631775,71643.53241247326,72056.0562081404,72200.53788429951,72627.36679641805,72635.88281105552,73054.12865330323,72969.34848658425,73451.5873732075,73320.82966814395,73684.89488183199,73451.25209704068,73785.3659731586,73469.13349260492,73737.3097225797,73449.12868131742,73642.67243655592,73349.19403185774,73563.07787455057,73502.83992324352,73799.0675925097,73947.3043617373,74344.60661943039,74695.37254516751,74990.79555163332,75304.83756123038,75469.10053123243,75904.44545798845,75839.4018816235,75993.65127010958,75573.39377086089,75600.14880897389,75133.980826614,75232.37320570627,74625.7692129337,74573.89081405292,74025.8707434977,74162.32814339736,73703.69269891891,73768.60216481712,73417.2327419797,73643.03006446721,73540.16733648388,73855.32693330372,73874.97411667992,74218.3192632579,74387.18669261775,74504.91333066384,74478.94060360678,74360.54341322702,74367.33834354143,74164.45155912061,74163.04339921993,73735.52158302326,73749.69258900793,73282.16115023626,73380.64293630635,73057.66022892717,73392.64582307886,73113.07020343187,73408.53791338658,73137.6124188438,73518.91082750689,73356.77127322809,73713.88509439053,73547.43165343185,73788.15994121552,73596.44902902235,73688.7393818783,73506.70677503428,73541.95547604031,73445.95473360477,73310.12318254985,73208.8250766784,73002.36201314474,73095.72524973456,72908.37292771017,73024.17731573312,72770.03798127627,73042.21517350855,72811.90279864107,73077.17330183665,72731.2130011574,73021.9868447765,72755.59875435814,73089.44440954262,72811.00872886286,73015.14721097317,72679.13343657654,72852.47121482746,72665.56592769217,72934.59152395625,72835.97562741944,72994.96358573003,72941.25234380394,73061.59413595131,73187.79208514596,73208.46744876713,73316.76165065309,73287.9502520502,73508.58432156853,73232.16029788976,73281.78117058054,72952.85289917623,73203.66182370923,72994.80712351884,73350.5127847806,73105.06827891688,73400.93832027177,73077.88855765921,73342.1085288654,73063.22581329654,73348.4117208018,73169.77657911499,73504.76217326667,73369.37765710088,73479.81762645455,73253.68502780021,73260.90464125927,73231.53444904501,73270.65000184179,73290.99008929612,73212.11078311334,73276.55086237799,73113.53959006544,73266.67139132874,73073.66407795716,73316.3593192529,73039.33179847381,73195.99517536107,72772.38491444409,72832.95814191796,72327.65225501684,72395.86977909444,71814.9032372121,71709.1794859385,71014.88959966775,70845.48572844097,70296.43747764081,70281.2382914112,69940.57535416787,69882.25965288396,69564.68606766297,69366.64961178895,69083.47536128465,68823.56927675835,68651.5055479414,68299.73379370378,68080.59729106394,67592.9045787936,67497.82025788072,67018.59885675894,67007.75826069812,66507.36975757715,66573.64267988714,66119.49993604422,66191.09257353457,65739.1179489038,65998.576998541,65715.46980327008,65931.25354424161,65647.43109314813,65899.26819792607,65786.9730337826,66048.6896096098,65951.30305901803,66082.17252280386,66074.5505779446,66128.15006114842,66120.86339245598,66077.43395297932,66154.86039577251,66045.42625491932,66181.5260269077,66014.55849582655,66332.84733687012,66235.0361031337,66571.74278160844,66411.41371863052,66866.20466306266,66747.62865872725,67121.26041904217,66982.72430690817,67496.30033925777,67429.20040240293,67810.07412792137,67773.19374957011,68160.28126004711,68220.76508054318,68686.6648419696,68963.91588019322,69399.1266964825,69681.58569116422,69971.48781674956,70287.31796590304,70534.03652120073,71017.59416074684,71260.4682159982,71793.28910032382,71927.55602926684,72516.21157124182,72620.28129342572,73193.22355904861,73289.31370846197,73974.93111788406,74007.58701653326,74577.98118328824,74608.37955574747,75185.43454235012,75220.10209800031,75729.34189192556,75787.07644785363,76117.50228613643,76037.21482005296,76230.80327878038,76271.3046397334,76423.20709505166,76468.69289501822,76446.7434819631,76492.63161332985,76388.29367021247,76543.45948022121,76390.41708593573,76560.78208217408,76319.36089031231,76599.60706229294,76388.8301120794,76694.11023784998,76484.96496498167,76810.36166076204,76524.70636662321,76756.9186397694,76401.30238548547,76560.78208217408,76232.43495612562,76403.31404248644,76107.64516683164,76175.10273159776,75962.89526973906,75962.1800139165,75820.0452709252,75846.28621891573,75954.44631033497,75887.36872522459,75919.06349886222,75784.10366584107,75964.10226393965,75832.80811700918,76075.458654816,75818.97238719134,76063.27695408785,75797.96174740336,76128.83462057528,75897.33760325165,76215.42527859512,75901.22680678687,76156.70724591103,75925.83607743218,76171.19117631807,75926.86425767711,76005.25182548187,75759.96378182934,75867.02863777026,75741.70240660934,75822.61572153756,75782.67315419593,75720.08826972106,75709.02415621569,75621.0476900396,75778.44867449388,75590.13522745791,75747.51386016773,75502.38227872638,75788.99869787678,75569.25869813666,75739.06490076362,75424.68761499973,75761.8860318525,75492.86043558842,75716.17671444139,75420.28432134204,75652.4071875104,75380.60997493386,75525.15870632633,75191.51421684197,75224.90772305819,74989.87913011064,75006.28531054084,74899.30986157774,74955.9938855164,75052.84399424124,75069.04900897134,75174.12455965574,75068.17729093759,75252.46742397158,75199.2479204235,75585.4413611223,75455.24244967014,75710.45466786083,75525.98572087118,75919.06349886222,75617.13613475993,75789.57984323261,75410.8518851819,75633.89994310141,75321.60136957186,75456.67296131527,75131.74565216848,75246.65597041321,74991.35434524469,75083.15295972263,74909.70342274946,74965.62748737664,74968.6449728781,74947.32140866773,74953.80341455978,74913.97260594042,75093.01007902743,74983.15125502959,75148.84473667678,74961.11243499666,75200.87959776874,74963.1464437421,75185.0992661833,74878.76860842331,75151.37048380023,74891.44204752948,75169.7883212314,74812.47333436887,75057.67197104359,74757.398636031,74877.27104154481,74535.28935137861,74662.09079767356,74485.91434787684,74567.0511802496,74434.86296354092,74458.10877777443,74437.9698560202,74363.58325047293,74356.83302364743,74264.47561555811,74436.33817867497,74340.80682287298,74553.5954300875,74374.82617793395,74663.74482676326,74389.17599787426,74668.70691403233,74426.99514949265,74706.07903076161,74405.35866085991,74610.14534355943,74267.40369408175,74510.45656328877,74277.10435117535,74490.22823455671,74316.53282839451,74467.38475172338,74326.61346514386,74375.6531924788,74234.90425764374,74286.22386291312,74391.27706185306,74348.47347122115,74396.21679737768,74271.73993250608,74487.59072871099,74331.55320066848,74511.84237144499,74295.05280197297,74574.38255243094,74265.88377545879,74510.6353772444,74244.2696385705,74577.84707282152,74316.10814524986,74590.49816018321,74300.21605494214,74497.42549627132,74222.83431563787,74426.34694890345,74291.40946762676,74405.02338469308,74258.77592072201,74317.56100863946,74261.79340622347,74225.82944939488,74237.4747082561,74116.61882598625,74180.94714652862,74020.79689750636,74212.39605097724,73993.6618797376,74176.56620461539,73889.86037848717,74158.39423637322,73910.26752117486,74197.86741708129,73902.98085248242,74152.18045141465,73855.95278214847,74157.63427706173,73900.52216059234,74112.1931805841,73911.54157060881,74058.61604912473,73908.12175370715,74056.87261305722,74013.30906311382,74040.95817100504,73979.08854235275,73950.90299259461,74044.35563616225,73914.78257355482,74007.65407176664,73884.20538713997,74169.63716383424,73910.69220431951,74066.95324980655,73752.66537102048,73983.91651915509,73713.05807984568,74033.58209533479,73804.25319722334,74108.16986658215,73828.10250855715,74056.73850259048,73804.7225838569,74058.86191831373,73904.16549493856,74046.05436874085,73930.2946842068,73992.96897565949,73875.06352365775,73841.9829418639,73882.2384336279,73861.2277938399,73954.85925136319,73770.09973169562,73874.68354400201,73653.44597738338,73858.90321241655,73633.82114575162,73894.95657622298,73631.1836399059,73943.37045471316,73637.79975626466,73921.71161433597,73644.37116913452,73904.23255017192,73630.26721838322,73830.58355219169,73602.30518606963,73810.95872055992,73701.63633842902,73832.59520919266,73732.36998705506,73749.02203667427,73691.86862610205,73636.59276206407,73639.36437837653,73486.97018468025,73546.5599353981,73440.72442540222,73691.75686737978,73503.13049592143,73723.4516410174,73398.34551791496,73620.56656128963,73375.59144205945,73699.62468142805,73430.68849214178,73773.13956894155,73499.66597553086,73688.5382161782,73384.8674160084,73551.16439475589,73331.78202292706,73522.48710661974,73409.56609363153,73521.63774033044,73464.14905359138,73543.78831908564,73578.81350264711,73468.48529201571,73536.47929864876,73417.18803849079,73558.69693263734,73364.43792157626,73549.42095868838,73332.43022351626,73581.45100849283,73314.14649655181,73587.68714519586,73269.21949019664,73517.05563271709,73221.05148089546,73545.48705166424,73302.38947896833,73559.14396752644,73322.61780770037,73549.64447613293,73369.77998850108,73489.0936004035,73354.35728482691,73403.06173599503,73372.70806702472,73414.30466345605,73472.50860601767,73425.45818393925,73541.88842080694,73440.81383238004,73630.84836373906,73418.2832739691,73676.84825382808,73422.70891937125,73680.87156783004,73353.75378772661,73568.59875543103,73236.5859432919,73504.62806279994,73227.66759725423,73482.87981544493,73263.40803663827,73508.71843203527,73246.06308294095,73353.15029062633,73130.43750887364,73267.16312970677,73195.79400966097,73161.41702668871,73124.1119651928,73062.77877840743,73062.93524061862,72867.0445522123,72906.65184338711,72702.7145269769,72916.93364583656,72699.71939321989,72955.44570153306,72707.22957935686,72984.05593443585,72652.73602637483,72888.68104084504,72570.8839381795,72854.77344450634,72584.07146740812,72799.3858217461,72534.85292611754,72768.4286556755,72617.889656769,72795.20604553295,72723.36753885359,72828.13016511562,72792.50148445387,72777.41405694652,72755.12936772458,72711.163486381,72830.3429878167,72732.4646988469,72914.20673301301,72756.11284448062,72953.36698929871,72692.16450359399,72934.43506174505,72689.16936983698,72953.45639627652,72634.07231975465,72939.64301820315,72699.22765484186,72943.2640008049,72637.4921366563,72894.82777057025,72690.91280590449,72858.72970327493,72659.37449447805,72817.28956905479,72792.52383619832,72934.88209663416,72934.3680065117,72882.62371809766,72889.19513096752,72824.91151391405,72973.84118721976,72815.34496728718,72963.98406791498,72701.3063670762,72849.65489502608,72572.62737424701,72801.50923746935,72441.46733778327,72671.17621555045,72337.82229874401,72616.90618001297,72352.30622915104,72615.36390964554,72354.51905185211,72501.30295769012,72267.61546940988,72421.30606428458,72249.84583256791,72334.26837137561,72260.93229781775,72252.03630352454,72250.18110873475,72152.14635755376,72147.98893308509,71977.26630893545,72099.19507493914,71931.62404675772,72135.53901142348,71885.33358399077,72099.84327552834,71796.93243467003,72058.91723143068,71754.10649229366,72029.77055666097,71707.19018068197,71899.14696206414,71578.91351925296,71843.1111387147,71652.54016548874,71833.09755719872,71606.29440621071,71709.55946559423,71538.74743446677,71593.93389152693,71554.99715268578,71577.39360063,71602.27109220876,71470.2169859668,71461.70097132934,71283.51286453163,71442.76904377568,71223.69959636922,71394.01988911866,71122.02151084204,71389.05780184959,71123.42967074271,71401.5524270001,71136.01370287106,71435.72824427226,71175.84451149042,71468.29473594365,71230.29336098355,71456.04597998214,71233.40025346282,71375.80321738758,71240.97749483318,71362.1463015254,71303.20475139676,71368.91888009536,71404.01111889018,71504.77278289471,71679.67518325748,71646.8628223971,71780.1462745841,71660.22916558138,71954.71339878005,71757.05692256177,71981.66960259315,71787.96938514346,72136.72365387961,71970.85135827678,72405.79395363259,72252.79626283601,72599.60592980456,72446.38472156343,72834.29924658529,72769.4791876649,73179.3207739974,73092.35013632181,73327.60224671391,73333.10077584992,73647.92509650292,73832.48345047039,74045.36146466272,74204.17060901769,74303.54646486598,74586.87717758145,74668.86337624352,75004.89950238461,75043.67977901456,75555.89235495239,75616.04089928161,76165.31266752633,76222.53313333192,76845.3868443235,76824.80088768016,77318.23799827552,77295.4392189311,77855.99861812576,77838.29603651716,78287.18612041308,78246.99768388244,78649.93258117826,78690.76921829811,79112.74780186985,79298.98253667146,79606.9895752656,79768.59268767748,79934.91201816942,80152.48389869736,80233.8889520036,80475.08662642082,80385.99257302197,80555.01646459299,80394.91091905964,80724.66620500878,80496.07491446435,80717.84892294991,80369.00524723592,80563.21955480809,80206.44100981248,80404.11983777522,79970.29482964217,80048.63769395801,79617.40548818177,79651.17897405375,79219.5444368773,79229.04392827081,78927.76476475773,78909.3245755821,78701.4757038922,78675.83825300196,78622.28347328705,78546.55576307247,78595.7519526186,78490.25171878954,78675.10064543494,78486.42957048769,78641.43891828525,78373.77677843295,78639.27079907309,78405.2033311371,78708.4717999067,78378.71651395757,78648.88204918886,78323.0830220083,78516.00092840206,78151.46632808047,78324.75940284245,78063.8251380712,78255.20077409754,78007.23052111037,78121.96202539945,77992.67953546996,78087.33917323819,78056.0243792563,78083.58408016969,78111.41200201654,77994.93706165995,77997.10518087211,77746.74329122821,77746.58682901703,77400.53712135996,77531.51834386807,77192.35297350324,77308.80556211539,76902.54025489572,77122.3026063803,76777.12461675699,76954.77628168778,76485.79197952652,76587.15714063135,76127.33705369677,76190.54778701637,75793.02201187874,75770.31263951215,75338.34282616888,75193.48117035403,74784.98068868884,74531.57896179902,74166.15029169922,73797.59237737565,73528.94676076731,73110.4103458417,72903.16497125209,72491.98228025225,72517.84324858704,72146.24549701756,72254.98673379264,71906.99242436796,72194.77113423003,71960.86012850526,72327.36168233892,72112.89669429025,72428.7938986771,72216.5417333295,72549.8732983915,72366.41017990235,72601.72934552781,72393.70165988227,72568.35819105605,72407.78325888912,72457.71705600226,72286.88267313036,72184.66814573624,72021.85803912378,71887.61346192521,71956.70270403656,71798.40764980408,71876.4152379531,71676.09890414464,71946.82323298731,71842.57469684776,72209.83620999292,71962.3353436393,72273.1587020348,71978.7415240695,72221.25795140957,71867.51924365989,72097.42928712718,71726.32327393572,71801.78276321683,71406.62627299146,71550.4373968169,71304.79172525308,71357.89947007889,71188.58500582994,71256.33314327397,71221.4644219237,71252.75686416113,71379.15597905588,71406.71567996927,71557.14292015349,71409.26377883718,71604.72978409885,71459.10816897251,71736.06863451823,71468.38414292147,71674.53428203276,71346.54478389559,71636.93864785894,71348.95877229677,71628.7579093883,71333.67017908933,71667.2699650848,71494.15570427844,71806.9013126971,71650.39439802103,71971.94659375508,71956.81446275883,72168.50783449506,72165.37859027131,72349.48990934968,72484.82972202655,72547.14638556796,72662.12375904605,72606.57967407462,72777.86109183563,72699.31706181969,73019.17052497512,72876.23111918345,73194.25173929356,72945.40976827261,73160.32179121039,72839.08251989871,73135.08667172035,72867.78215977934,73152.99041902905,72841.96589493346,73123.03908145895,72900.52746540635,73070.22190931105,72763.73478933988,72972.03069591889,72920.35346273822,72973.66237326413,72793.06027806524,72777.70462962445,72798.31293801224,72733.6716930475,72797.26240602284,72724.99921619883,72962.08416963628,72699.33941356414,72769.5238911538,72402.41884021983,72637.4474331674,72343.67845579129,72522.6712253894,72103.77718255248,72347.63471455988,72021.56746644586,72292.89529238884,71946.66677077614,72117.7693745815,71805.4931527964,71926.32668332181,71704.86559925861,71821.34053961522,71704.93265449199,71785.04130661981,71768.97040235644,71739.22023048642,71713.44866912946,71525.33638779359,71577.147731441,71407.36388055848,71585.73080131183,71359.01705730165,71532.31013206365,71210.71323284069,71492.7251926333,71176.98445045763,71379.22303428924,71032.86040220982,71309.32912937751,71008.78757343144,71223.1631545023,70929.99767422648,71197.10102046741,71062.20824267963,71222.62671263536,70981.38433472924,71097.09931577437,71055.5697745764,71065.38219039228,70996.1588378142,70971.72838112454,71079.75436207704,70936.7926045409,71043.83510873737,70854.44877796755,71054.25102165354,70836.1650510031,71094.66297562873,70836.1203475142,71188.0038604741,70924.96853172405,71165.60741252988,70820.04944325083,71155.794996714,70885.33888880479,71113.37138573783,70822.66459735211,71065.76217004802,70957.8479478178,71169.09428466491,71036.54844004493,71103.93894957768,71120.09926081887,71135.63372321532,71087.01867902502,71007.37941353075,71179.5996045589,71141.37812154033,71361.20752825827,71133.93499063671,71342.92380129383,71080.1790452217,71355.57488865554,71085.54346389096,71348.91406880785,71044.77388200449,71387.42612450435,71137.55597323847,71408.30265382561,71139.70174070618,71375.93732785432,71127.72120567813,71375.40088598739,71259.59649796445,71374.50681620918,71212.56842763048,71281.03182089709,71340.93449603731,71368.15892078387,71390.01892686116,71286.79857096655,71395.47275250826,71232.30501798452,71365.00732481567,71118.40052824026,71359.75466486868,71069.74078056107,71304.05411768606,70999.39984076022,71320.77322253863,71026.89248644025,71216.9046660548,70912.04922342888,71304.32233861952,71129.50934523456,71298.7791059946,71048.73014077308,71242.67622741178,71123.09439457589,71213.01546251959,71091.04199302697,71093.18776049468,71114.62308342733,71035.98964643356,71031.92162894268,70840.30012372734,70958.94318329611,70779.6598410201,71050.02654195149,70819.33418742826,71056.46384435461,70713.49867743239,70969.42615144564,70675.85833976965,70950.76244482546,70629.74669095835,70922.39808111168,70660.48033958439,70951.27653494795,70745.61813421466,70907.66828151564,70651.27142086881,70813.29921642534,70735.51514572086,70801.96688198649,70706.1896569955,70679.25580492686,70768.12634088115,70698.70182260298,70781.06800092077,70624.96341764492,70797.85416100672,70565.21720471588,70745.21580281446,70459.56050867564,70763.83480594573,70539.57975382564,70864.17178680561,70568.68172510645,70916.56427580885,70658.62514479461,70921.54871482238,70644.99058067687,70880.75678119145,70634.06057763823,70820.92116128458,70683.16736020653,70843.38466446218,70780.44215207602,70896.76063022144,70962.11713100877,70966.22985198854,71083.35299293435,70968.08504677833,71071.66303058423,70890.25627258496,71109.57158918043,70867.725714174,71112.36555723734,70849.73255988747,71156.30908683647,70829.61598987771,71080.96135627764,70799.68700405204,71190.66371806429,71027.13835562926,71319.32035914903,71048.52897507299,71277.96963190672,71101.59201640988,71348.46703391874,71297.25918737164,71403.2064560898,71297.30389086055,71270.83942542547,71277.79081795107,71222.78317484655,71318.15806843735,71229.13107027186,71473.94972729085,71306.33399562049,71508.23730328528,71214.3565671869,71452.9167357584,71235.68013139727,71598.60540611809,71342.02973151562,71670.53331977526,71348.91406880785,71651.04259861023,71383.60397620249,71576.18660642942,71416.28222659614,71696.64015729907,71551.17500438393,71660.09505511464,71596.83961830611,71757.4369022175,71812.86922846666,71760.63320167462,71730.57010538223,71629.04848206622,71848.22968819496,71702.675128302,71834.1033856992,71586.71427806787,71913.31796804881,71758.08510280671,72068.86375771329,71796.12777186964,72122.35148219485,71808.3988795756,72084.0629439429,71791.23273983393,72110.75092682254,71890.94387184906,72123.2232002286,71901.8738748877,72116.76354608101,72090.92492949068,72292.44825749972,72250.89636455731,72264.53092867506,72183.01411664655,72108.58280761038,72233.41730039327,72126.08422351888,72351.90389775085,72357.55888909804,72836.445014053,72968.70028599504,73681.16214050796,73796.54184538625,74365.37139002937,74125.00073015699,74205.53406542946,73469.80404493857,73138.30532292192,72149.66531391923,71735.84511707368,71005.54657048543,71097.72516461911,71158.298392093,71882.00317406692,72600.32118562712,73749.13379539654,74774.0506856502,75719.68593832088,76456.28767684552,76642.50005990268,76554.9706286157,75881.62432689957,75175.75623700097,73835.36682550512,72764.78532132928,71179.800770259,70121.98211216714,68531.32021800522,67574.5985000847,66151.6640963154,65462.02337289136,64377.87435983114,64055.271632107695,63435.815386273316,63458.34594468427,63205.167735239,63569.09883846031,63770.890387402826,64406.350482267204,64952.40359931035,65748.48332983057,66547.13351096315,67444.55605084372,68499.6701478565,69419.95852231486,70578.87412057807,71399.74193569922,72521.44187944435,73161.72995111108,74152.82865200385,74444.9212485458,75105.1247245222,74996.8528743807,75311.2748636335,74952.50701338137,75182.52881557093,74739.83016488912,74778.23046186334,74296.036278729,74358.3529422704,74098.31274727735,74449.07867301449,74678.76519903723,75238.05054879791,75617.91844581586,75972.90885125505,76077.93969845053,75958.96136271494,75799.5934247486,75269.00771486852,74912.29622510627,74160.27178290747,73841.9829418639,73114.18779065464,73006.72060331353,72422.31189278506,72492.96575700829,71976.17107345714,72020.51693445646,71517.35681502304,71653.6130492226,71232.84145985145,71302.08716417398,70876.75581893395,70902.46032505755,70619.28607455327,70711.2411512424,70603.8186673902,70682.45210438396,70688.01768875333,70730.93303810753,70798.61412031819,70682.8320840397,70748.0991778492,70533.79065201171,70675.2324909249,70551.87321327606,70976.08697129333,70880.980298636,71297.77327749411,71200.99022400263,71777.55347222727,71758.06275106224,72324.34419683745,72271.54937643402,72749.78730079977,72678.61934645407,73073.21704306806,73029.85465882477,73423.08889902699,73437.08109105601,73678.07759977313,73672.44496017038,73767.75279852781,73810.73520311537,73766.63521130505,73768.19983341692,73581.78628465967,73616.83381996558,73285.53626364902,73278.27194670105,72893.48666590294,73092.70776423308,72830.56650526125,73221.02912915101,73105.82823822835,73619.06899441112,73457.15295757687,73731.38651029904,73399.86543653792,73588.13418008498,73203.7288789426,73256.36723713485,72859.28849688632,72782.46555119343,72438.87453542645,72391.57824415901,72209.00919544807,72094.68002255917,71959.51902383793,71710.18531443898,71605.02035677676,71322.31549290604,71391.2482728062,71158.7007234932,71349.22699323023,71143.00979888557,71496.03325081269,71295.80632398205,71612.88817082503,71311.45254510076,71586.78133330123,71286.99973666665,71582.44509487691,71282.41762905332,71481.50461691673,71225.35362545891,71396.12095309746,71238.92113434328,71389.7507059277,71292.6770797583,71342.70028384928,71244.53142220157,71219.09513701143,71370.9975923297,71385.32506052555,71606.09324051061,71570.71042903786,71919.66586347412,71824.51448732788,72142.87038360482,71977.9368612691,72302.59594948243,72010.3915942182,72211.19966640469,71747.4903759349,71862.15482499062,71417.04218590763,71582.86977802156,71257.65189619684,71411.23073234926,71184.76285752808,71351.08218802002,71246.87835536938,71452.38029389147,71488.43365769788,71706.6760905595,71882.9195955896,72081.33603111935,72436.88523016992,72563.91019390944,72917.15716328111,72928.69066342004,73344.47781377767,73300.02019405607,73660.44207339789,73478.87885318743,73856.51157575984,73604.4733052818,73887.2899278748,73581.22749104828,73870.86139570015,73571.59388918804,73791.37859241708,73529.21498170077,73784.94129001394,73659.05626524166,73817.10545028513,73669.82980606912,73806.46601992441,73913.10619272068,74107.56636948185,74288.39198212528,74371.58517498794,74614.61569245049,74545.41469161687,74754.42585401844,74556.61291558896,74739.47253697783,74463.6296586549,74734.17517354192,74379.47534078066,74514.32341507953,74086.22045352703,74302.25006368758,73940.5988384007,74196.95099555863,73933.69214936401,74177.21440520459,73974.75230392841,74194.1123240128,74020.3722143617,74166.39616088822,74055.37504617871,74027.05538595383,73995.27120533839,74014.9183887146,74087.74037214999,74014.35959510322,74139.97639894205,73903.941977494,73985.48114126697,73699.46821921685,73926.78546032733,73671.86381481455,73991.20318784752,73776.82760677667,74163.40102713121,73923.14212598112,74225.62828369478,73984.89999591112,74300.61838634234,73975.66872545109,74013.97961544748,73530.86901079047,73395.08216322448,72841.22828736642,72502.7111175908,72011.57623667434,71654.50711900082,71285.9715564217,70954.98692452752,70836.41092019212,70639.20147886295,70791.30509988131,70664.45895009744,70963.32412520936,70882.36610679222,71313.95594047975,71224.43720393625,71680.47984605787,71577.12537969653,72049.57420224836,71903.12557257719,72330.64738877385,72149.7323691526,72450.2962768431,72178.85669217785,72263.39098970783,71882.22669151147,71908.71350869101,71641.78897640575,71495.25093975675,71244.35260824593,71071.81949279542,71023.33855907185,71021.50571602651,71237.37886397587,71299.85198972846,71734.34755019516,71774.31246928126,72232.00914049258,72216.0946984404,72753.07300723469,72715.90205620552,73252.56744057745,73159.18185224317,73580.17695905888,73363.20857563122,73665.18064322241,73455.7895011651,73719.60714097109,73451.34150401849,73555.70179888031,73367.81303498901,73518.3520338955,73494.05568767259,73591.866921409,73635.87750624151,73720.27769330474,73864.64761074158,73818.64772065255,74012.39264159116,73930.40644292909,74146.83838448982,73917.26361718937,74221.98494934857,74002.28965309735,74336.93997108222,73985.59289998923,74129.42637555914,73698.5965011831,73932.93219005254,73598.41598253441,73798.53115064278,73482.7904084671,73607.60254950554,73238.03880668149,73229.70160599967,72929.67414017608,72892.19026472453,72648.48919492832,72451.01153266568,72193.78765747401,71956.90386973666,71933.21102061404,71733.2299629724,71779.945108884,71504.03517532768,71640.53727871625,71349.87519381943,71589.95528101388,71301.23779788468,71613.71518536987,71398.78081068765,71794.98783290242,71566.55300456918,71887.5687584363,71636.44690948092,71941.23529687349,71757.48160570642,72062.73937973253,72020.82985887885,72168.93251763971,72001.54030341392,72069.91428970269,72053.73162671705,72072.0600571704,72126.48655491907,72075.03283918295,72153.46511047664,71899.43753474207,72000.19919874659,71693.51091307533,71809.0023766759,71427.0557674236,71510.56188470863,71029.64175100825,71103.60367341086,70611.15003957153,70753.06126511827,70323.41603319836,70496.32912830463,70161.63410683085,70297.01862299665,70038.16307045973,70244.58143050449,70205.01884281861,70444.8307090796,70457.25827899674,70695.25965395685,70961.89361356421,71215.74237534314,71496.0779543016,71539.55209726717,71841.36770264719,71830.32594088625,72203.68948026771,72012.8949895972,72199.39794533228,71811.28225461034,71926.08081413279,71431.6155232925,71472.18393947887,70941.62058134325,70973.0471340474,70473.10566581556,70561.19389071393,70254.1256253869,70451.51388067173,70297.6444718414,70557.1035214786,70578.74001011133,70808.53829485635,70948.08023549084,71253.18154730578,71542.59193451308,71689.88993047357,71893.80489513933,71863.8088540803,72070.6071937808,71848.69907482852,71982.2954514379,71650.21558406539,71818.34540585821,71416.7069097408,71642.72774967286,71329.42334764282,71614.18457200343,71341.69445534878,71614.09516502562,71380.09475232301,71747.11039627915,71676.65769775602,72033.41389100718,71990.65500386417,72207.82455299194,72142.89273534928,72290.30249003202,72413.48295372522,72652.51250893027,73008.19581844757,73152.18575622866,73499.88949297542,73670.25448921377,74203.6118154063,74320.08675576291,74815.82609603717,74754.20233657389,75163.79805371739,74971.7518653574,75226.67351087017,74779.7503804863,74871.5713467087,74341.9914653291,74334.05659604748,73777.14053119905,73667.41581766795,73166.96025931362,73263.542147105,73170.0671517929,73457.97997212171,73635.8328027526,73997.08169663927,74337.61052341587,74658.872146472,75079.01788699841,75262.52570897648,75601.15463747438,75626.65797789789,75926.46192627691,75726.54792386865,75944.58919103017,75688.72877225027,75889.80506537021,75425.31346384448,75504.05865956053,75048.39599709463,75122.82730613081,74644.34351257604,74787.48408406784,74436.38288216387,74511.75296446717,74171.67117257968,74216.64288242375,74000.45681005203,74035.39258663566,73906.73594555091,73842.25116279736,73795.53601688576,73715.74028918032,73819.45238345294,73683.21850099784,73789.92572902748,73556.10413028051,73746.27277210627,73465.55721349207,73622.19823863485,73248.41001610876,73473.51443451816,73072.65824945668,73259.38472263631,72866.23988941193,73088.72915372005,72775.67062087901,72920.30875924931,72644.15295650398,72895.83359907074,72745.31695190871,72870.73259004744,72779.71628662542,72889.55275887881,72899.52163690588,72909.3564044662,72965.07930339329,72884.43420939853,73038.48243218451,72945.67798920607,73208.40039353375,73076.1004181028,73324.92003737927,73101.13437189274,73482.09750438899,73258.78122553602,73560.12744428247,73293.96287130867,73618.35373858854,73345.6624562338,73655.85996578455,73466.80891118156,73731.11828936556,73545.68821736434,73757.38158910055,73618.15257288844,73729.82188818716,73643.56650633413,73761.53901356924,73857.53975600479,73939.28008547785,74155.10852993828,74196.74982985853,74534.03765368911,74469.06113255753,74760.12554885454,74663.99069595226,75032.14627887563,74751.29660979469,74871.39253275306,74429.49854487163,74618.7060616858,74165.92677425465,74279.56304306544,73826.85081086765,73897.07999194623,73459.1869663223,73576.91360436841,73318.03570008704,73471.88275717292,73377.60309906043,73442.80313763657,73387.3261078985,73469.02173388263,73539.69794985032,73405.60983486293,73406.90623604134,73192.70946892613,73275.83560655543,72990.24736764996,73153.63861961826,72910.65280564461,73211.64139647978,72960.20662310203,73227.57819027641,72871.73841854792,73178.13613154128,72943.59927697174,73240.29633287148,73049.61360092326,73355.25135460512,73200.75609693004,73398.68079408178,73182.13709379877,73292.46530443017,73174.49279719505,73261.1952139372,73292.554711408,73318.61684544288,73446.66998942733,73413.76822158913,73532.29952243561,73420.8760763259,73669.24866071327,73453.7331406752,73649.69088431488,73364.28145936507,73576.66773517939,73262.84924302688,73590.1234853415,73310.72667965015,73529.81847880107,73179.36547748631,73413.43294542229,73148.83299456036,73357.44182556175,73202.4771812531,73422.30658797105,73266.44787388419,73380.48647409517,73303.77528712456,73284.53043514854,73245.79486200749,73185.48985546707,73235.35659734686,73107.61637778478,73207.39456503328,73030.36874894724,73260.21173718116,73002.54082710038,73201.94073938618,72914.78787836885,73296.84624634341,73057.97315334954,73265.46439712816,72912.15037252312,73236.47418456963,73025.04903376687,73269.73358031912,73050.95470559057,73283.90458630379,73127.44237511663,73272.23697569812,73156.27612546398,73209.8756086678,73161.28291622197,73216.51407677104,73325.92586587976,73230.30510309996,73327.66930194727,73173.6657826502,73300.46722894517,73126.88358150526,73415.73517510119,73159.69594236565,73374.83148274798,73061.54943246239,73325.14355482382,73037.52130717294,73371.61283154642,73064.29869703039,73301.00367081209,73016.98005401851,73300.55663592299,73155.53851789696,73439.56213469054,73347.02591264558,73450.62624819593,73279.03190601253,73284.64219387081,73220.04565239497,73099.72621199205,73015.46013539555,72851.24186888241,72910.18341901105,72623.388185905,72749.78730079977,72520.6148648995,72774.62008888961,72551.16969956992,72795.94365309998,72496.49733263222,72820.84349642319,72520.34664396604,72692.11980010508,72276.22089102518,72455.48188155674,72101.1173249623,72178.11908461084,71840.96537124699,71837.79142353433,71544.42477755842,71557.52289980924,71473.5697476351,71548.89512644948,71621.22537150687,71626.07570005365,71750.75373062537,71687.90062521704,71871.05081928383,71688.05708742823,71879.03039205437,71622.87940059655,71878.24808099844,71568.02821970324,71832.67287405407,71517.13329757849,71781.8450071627,71458.37056140549,71642.32541827267,71250.6110966934,71472.40745692342,71289.16785587881,71561.00977194426,71445.98769497726,71648.58390672016,71639.86672638259,71895.30246201783,72086.29811838844,72204.13651515682,72325.30532184904,72381.92229055433,72626.76329931775,72597.12488617002,72939.8665356477,72950.19304158606,73405.78864881858,73338.64400847483,73732.52644926625,73517.63677807293,73861.80893919575,73651.0319889822,74069.85897658575,73895.85064600118,74283.20637741165,74148.04537869041,74493.089257847,74362.01862836107,74648.18801262237,74595.34848873001,74847.23029699687,74870.05142808575,74978.90442358308,75013.48257225545,75070.88185201667,75245.13605179025,75244.1078715453,75465.79247305304,75389.17069306025,75731.68882509337,75674.87069068798,76068.48491054594,75948.23252537638,76414.91459785875,76221.03556645341,76562.88314615288,76290.54949170942,76541.42547147578,76198.63911850919,76406.7338593881,76004.15659000356,75971.12071169862,75440.3561878629,75331.92787551021,74954.89865003809,74831.74053808935,74491.90461539086,74257.4795195436,74036.71133955853,73780.60505158962,73649.82499478162,73331.1114705934,73329.79271767053,73051.6923131576,73183.94758509965,72837.92022918705,73017.96353077455,72663.151939291,72876.4993401169,72539.21151628632,72735.59394307065,72343.16436566882,72578.21531036083,72295.44339125675,72565.34070555457,72319.6726822463,72457.62764902445,72203.55536980098,72296.80684766851,72185.45045679217,72302.84181867146,72288.9166818758,72302.28302506007,72350.29457215006,72285.83214114096,72455.3030676011,72354.40729312984,72590.17349364443,72424.77058467515,72695.58432049565,72469.94346021932,72769.99327778736,72487.62369008348,72789.77457163032,72487.33311740555,72771.33438245469,72478.50417834571,72776.81055984623,72580.53989178418,72830.3876913056,72621.35417715958,72875.6499738276,72806.04664159377,73010.87802778221,73002.78669628939,73137.03127348797,73181.60065193185,73243.69379802869,73429.079166541,73434.60004742147,73685.16310276545,73581.22749104828,73782.39319114604,73539.11680449448,73806.19779899095,73547.92339180988,73824.30271199974,73525.23637118774,73854.25404956986,73589.09530509655,73943.23634424643,73697.18834128241,74013.48787706946,73748.46324306288,73947.7066931375,71484.92443381839,71666.37589530658,71514.76401266623,71841.59122009174,71657.18932833544,71992.46549516506,71721.13766922208,72034.1514985742,71779.9898123729,72172.7323141971,71950.42186384462,72225.21421017816,71965.77751228542,72257.98186754965,72133.92968582269,72372.84748230547,72219.51451534206,72339.47632783369,72209.9926722041,72257.53483266055,72247.96828603368,72189.80904696096,72234.1996114492,72098.30100516093,72205.00823319057,72005.3400999713,72203.15303840078,71984.48592239451,72236.56889636147,71953.8863842352,72231.29388467001,71921.83398268628,72142.19983127115,71798.96644341545,72093.13775219176,71840.87596426916,72197.65450926477,72009.60928316228,72238.06646323997,71992.2419777205,72155.99085760007,72003.14962901469,72093.60713882532,72033.61505670728,72116.38356642528,72222.12966944334,72217.05582345198,72338.06816793302,72234.82546029396,72392.00292730366,72240.45809989668,72529.53321093717,72230.75744280308,72393.07581103752,72105.1182872198,72465.607221795,72188.26677659355,72406.62096817743,72033.16802181817,72291.93416737726,72016.31480649886,72251.54456514651,71987.03402126241,72121.7256333501,71873.464807685,71961.39657037218,71819.19477214752,71916.69308146156,71866.73693260395,71873.64362164064,71925.87964843269,71809.6505772651,71903.1702760661,71756.78870162829,71995.30416671088,71824.24626639442,72043.2486585675,71726.09975649117,71892.01675558291,71512.93116962089,71722.94816052297,71367.30955449457,71566.66476329145,71160.77943572753,71427.12282265698,71135.41020577076,71276.44971328374,70920.87816248872,71009.7039949541,70803.82207677628,70825.86089680922,70604.75744065731,70522.27950361723,70408.10679293952,70361.97279238376,70443.73547360128,70312.39662318189,70368.45479827581,70164.29396442103,70356.54131848113,70170.8653772909,70507.1920761099,70248.71650322873,70475.96668910583,70153.09574044893,70490.71884044634,70270.62121279493,70669.24222341088,70477.37484900652,70798.92704474057,70573.24148097534,70819.73651882846,70658.15575816104,70876.10761834474,70813.20980944751,70997.11996282577,70974.254128248,71021.30455032641,71478.84475932656,71629.47316521087,71283.13288487589,71538.07688213311,71203.31480542598,71415.96930217378,71044.72917851558,71265.5197102451,70893.67608948662,71027.63009400727,70686.29660443027,70849.50904244292,70629.81374619172,70764.08067513474,70568.54761463971,70651.31612435772,70582.60686190211,70629.47847002489,70684.06142998475,70711.6881861315,70802.19039943104,70676.37242989212,70871.59256596478,70738.93496262253,71055.3239053874,70903.01911866893,71229.33223597196,71009.10049785383,71393.21522631827,71161.33822933891,71523.86117265954,71270.50414925863,71616.35269121561,71400.47954326625,71773.3960477586,71650.55086023222,71944.09632016376,71840.92066775807,72033.59270496282,71933.83686945878,72129.77226135401,72223.82840202194,72251.99160003563,72282.18880679474,72243.27441969805,72441.46733778327,72361.24692693316,72597.66132803695,72459.97458219226,72770.41796093201,72555.70710369434,72832.57816226223,72566.21242358834,72887.09406698872,72606.40086011897,72818.56361848876,72422.75892767416,72684.98959362383,72487.66839357238,72753.54239386827,72559.66336246293,72761.38785617208,72606.66908105243,72735.86216400411,72648.39978795049,72783.62784190511,72868.4974156019,72881.12615121916,72926.45548897452,72823.59276099119,73035.0849670273,72927.12604130818,73148.90004979374,72953.81402418781,73287.97260379465,73127.33061639436,73508.20434191279,73337.36995904088,73717.81900141467,73454.26958254214,73728.99487364231,73427.71571012923,73755.68285652195,73523.96232175379,73828.81776437971,73708.34186176561,73884.09362841769,73776.89466201003,73927.81364057228,73933.87096331966,74101.19612231209,74286.42502861322,74404.24107363714,74615.73327967325,74672.32789663409,75073.25113692894,75113.05959380385,75496.01203155662,75413.82466719445,75847.78378579424,75745.59161014458,76172.35346702975,76068.5072622904,76625.04334748308,76539.816145875,77022.23384645389,76957.57024974469,77451.78967139598,77382.02987695097,77713.12626756744,77635.81158349653,77974.10523582759,77978.19560506292,77995.49585527132,77774.37004737498,77637.93499921978,77473.69438096219,77044.13855602009,76704.61555774398,76096.80457077081,75856.41155915399,75258.41298799671,75051.94992446303,74316.39871792779,74109.6897852051,73443.89837311488,73448.01109409465,72964.05112314834,73200.68904169668,72899.67809911705,73201.09137309688,73066.243298798,73502.52699882115,73482.05280090008,73902.93614899351,73920.86224804667,74228.55636221843,74226.92468487319,74356.0507125915,74341.36561648436,74315.88462780531,74317.91863655075,74155.24264040502,74142.68096002114,73803.18031348947,73856.26570657083,73443.27252427013,73472.57566125103,72977.5739285438,73063.80695865238,72561.89853690845,72591.02285993373,72077.80445549541,72232.5008788706,71839.89248751313,72015.73366114302,71731.48652690489,72044.20978357909,71948.79018649939,72210.3950036043,72139.58467716989,72354.60845882994,72366.34312466897,72449.11163438698,72484.06976271508,72476.38076262246,72567.70999046684,72521.82185910009,72756.33636192518,72629.62432260804,72843.8434414677,72614.60395033407,72833.42752855153,72580.00344991726,73012.59911210526,72852.11358691617,73232.13794614529,72977.976259944,73348.47877603516,73129.61049432881,73407.24151220817,73194.98934686057,73421.59133214848,73204.04180336498,73336.45353751822,73164.43451219017,73218.8833616833,73115.43948834414,73043.77979562042,72998.98689973199,72842.9493716895,72878.48864537342,72715.70089050542,72880.96968900796,72683.51437848978,72918.63237841516,72625.86922953954,72814.87558065362,72520.70427187733,72946.23678281746,72727.4132046,73055.82738588183,72756.69398983647,73092.17132236616,72832.33229307321,73016.95770227406,72771.55789989924,73016.51066738495,72900.59452063973,72993.73423978499,72847.41972058055,72943.12989033817,72951.80236718683,72877.21459593947,72836.690883242,72703.25096884381,72833.02519715134,