-12198.710405672839,-12218.067016371133,-12218.290533815687,-12222.962048406845,-12234.316734590142,-12269.52073210725,-12262.926967492935,-12281.657729346482,-12323.38843624454,-12344.130855099065,-12338.900546896524,-12337.06770385119,-12365.476771053884,-12370.237692622864,-12403.184163949987,-12436.197690510475,-12453.36383025215,-12432.397893953073,-12407.319236674219,-12414.337684433185,-12398.803222036746,-12391.673015555503,-12386.576817819694,-12398.132669703087,-12437.717609133437,-12435.705952132459,-12399.0267394813,-12363.822741964192,-12382.531152073283,-12374.663338025015,-12360.82760820718,-12327.791729902236,-12319.76745364278,-12333.737293927348,-12304.38945345753,-12293.593560885616,-12278.23791244482,-12273.924025764945,-12286.530409637739,-12258.031935457222,-12212.479080257306,-12170.234283236776,-12159.25957670922,-12136.63961132045,-12141.73580905626,-12137.913660754402,-12128.660038549906,-12111.24802961922,-12063.080020318035,-12037.420217683342,-12012.363912148943,-11993.767260762128,-11997.388243363886,-11985.251246124655,-11971.013184906626,-11953.288251553566,-11947.074466594991,-11939.273707780088,-11941.911213625815,-11916.810204602505,-11899.68876834974,-11889.518724622576,-11866.138799922324,-11833.907584417771,-11816.070892342435,-11819.535412733008,-11776.441249423176,-11705.854440433317,-11685.894332634727,-11706.815565444895,-11718.661990006209,-11706.07795787787,-11682.608626199797,-11633.948878520594,-11589.20068612107,-11544.273679765902,-11521.452548677034,-11510.969580527495,-11483.253417402913,-11445.344858806713,-11436.962954635974,-11433.78900692332,-11425.004771352384,-11374.668642839033,-11333.76495048582,-11321.784415457776,-11305.780566427777,-11293.129479066072,-11268.073173531673,-11224.397864866003,-11168.518503727735,-11111.968590255809,-11092.38846211296,-11060.537226264147,-11015.341998975517,-11017.532469932135,-10964.7376495287,-10914.580334970991,-10912.59102971447,-10914.178003570796,-10890.932189337276,-10853.068334229987,-10824.86043272739,-10812.455214554693,-10801.681673727237,-10771.059783823464,-10753.066629536943,-10727.697399580169,-10681.742212980058,-10653.221387055086,-10597.00674974999,-10577.985415218523,-10569.0447174364,-10548.32465032633,-10526.978734371512,-10532.924298396623,-10518.261554033943,-10456.63779457066,-10385.872171625158,-10372.572883674251,-10389.739023415927,-10352.746886342393,-10308.065749176234,-10275.052222615746,-10234.50615817382,-10226.191309236445,-10183.946512215914,-10156.833846191626,-10149.793046688204,-10144.540386741208,-10162.108857883079,-10115.99720907178,-10086.716423835329,-10073.484191117786,-10053.814655997117,-10031.731132475274,-9989.64279766593,-9985.999463319715,-9994.962512846294,-9970.085021267536,-9970.06266952308,-9940.804236031085,-9894.938456408794,-9850.033801798083,-9815.813281037008,-9783.380899832357,-9761.699707710708,-9748.959213371183,-9742.924242368252,-9704.97098028314,-9674.43849735719,-9654.81366572543,-9639.167444606715,-9627.745703190054,-9612.054778582427,-9609.484327970067,-9590.239475994049,-9559.32701341236,-9533.980135200041,-9545.93831848363,-9535.120074167262,-9505.615771486257,-9475.575026938322,-9450.339907448282,-9432.81613979532,-9438.739352075978,-9412.900735485642,-9356.887263880642,-9344.482045707948,-9362.89988313912,-9365.112705840196,-9359.033031348352,-9355.568510957779,-9342.04570556232,-9317.481138405936,-9294.727062550433,-9263.769896479833,-9242.111056102642,-9201.006198049332,-9217.457081968438,-9234.73498043239,-9204.15779401753,-9192.892514812054,-9119.064702876176,-9069.488533674305,-9058.424420168927,-9051.160103220953,-9041.906481016455,-9033.368114634528,-9033.099893701065,-8976.661738951414,-8932.38293318545,-8943.29058447964,-8955.58404393006,-8963.54126495615,-8929.968944784277,-8922.838738303035,-8914.881517276945,-8878.358766836973,-8859.471542772239,-8850.821417668036,-8849.74853393418,-8841.478388485717,-8834.728161660214,-8826.12274004492,-8826.83799586749,-8835.711638416247,-8843.333583275507,-8866.489990531205,-8912.087549220032,-8948.766761871191,-8965.575273701581,-8974.135991827965,-9001.002788663243,-9019.912364472433,-9016.02316093721,-9018.794777249668,-9027.914288987433,-9044.432228139905,-9039.35838214855,-9048.03085899721,-9101.429176500938,-9123.37858955605,-9143.29399386573,-9145.86444447809,-9116.270734819262,-9095.774185153745,-9084.933589092921,-9106.36891202556,-9144.657450277502,-9152.90524398151,-9163.76819178679,-9176.084002981665,-9176.978072759875,-9176.463982637404,-9169.423183133982,-9180.889628039555,-9200.357997460127,-9206.035340551774,-9205.074215540197,-9204.24720099535,-9185.650549608536,-9146.691459022935,-9133.816854216679,-9136.744932740323,-9125.837281446133,-9122.775092455757,-9124.719694223368,-9126.530185524249,-9093.002568841288,-9062.380678937518,-9041.280632171707,-9020.046474939165,-8995.481907782783,-8993.380843803983,-9011.373998090507,-9034.195129179374,-9045.102780473564,-9007.440091066372,-8989.402233290939,-8978.047547107642,-8955.137009040953,-8956.925148597378,-8948.789113615647,-8954.600567174026,-8906.85724101749,-8876.70473774728,-8866.08765913101,-8825.854519111457,-8802.049911266555,-8809.068359025521,-8798.36187343143,-8789.622341349404,-8757.391125844852,-8705.222154286164,-8677.81891558396,-8651.667374571249,-8651.153284448777,-8638.56925232044,-8649.119275703344,-8655.936557762214,-8653.410810638763,-8642.503159344573,-8608.327342072409,-8562.461562450118,-8516.260506661,-8483.112869633778,-8468.986567138025,-8447.1936162941,-8424.752464860972,-8415.297676956377,-8404.680598340106,-8387.648569065163,-8394.890534268681,-8361.049993163348,-8342.69921096554,-8334.004382372426,-8290.68670161804,-8231.67809625603,-8188.785098646295,-8196.965837116937,-8204.76659593184,-8204.900706398572,-8179.486772952888,-8166.858037335639,-8153.894025551561,-8080.580303738154,-8032.25583222578,-7997.007131219761,-7968.888636694985,-7955.365831299524,-7904.225039985781,-7868.015213968184,-7831.6489257394,-7819.243707566704,-7810.012437106662,-7805.318570771047,-7791.236971764204,-7742.510168851634,-7714.011694671118,-7712.3800173258805,-7722.952392453241,-7689.76005193711,-7630.930260530742,-7570.1558673567615,-7506.118119492307,-7465.929682961665,-7463.336880604849,-7445.924871674165,-7417.5381562159255,-7416.5993829488025,-7425.070694097364,-7379.473135408537,-7339.709382022546,-7302.91841064911,-7323.839643459278,-7309.288657818874,-7251.084715257253,-7233.560947604293,-7205.375397846151,-7183.336577813217,-7182.710728968469,-7173.9935486309,-7125.780835840802,-7109.1958414549645,-7080.205628896431,-7073.030718926278,-7078.193971895454,-7075.712928260914,-7059.552617019727,-7042.185311577954,-7017.0395990657335,-6978.684005580427,-6969.542142098206,-6938.361458583053,-6909.192432068877,-6929.264298589743,-6947.972708698834,-6904.118586077522,-6870.680376372383,-6844.394724892942,-6815.069236167578,-6799.53477377114,-6810.375369831964,-6789.9905788887245,-6751.433819703319,-6725.550499624074,-6682.992778181169,-6637.55168170353,-6645.084219584968,-6653.890806900359,-6633.349553745932,-6622.710123385206,-6583.549867099508,-6555.9007592082935,-6551.273948106044,-6537.43821828821,-6529.3692385398435,-6511.9348778647045,-6514.259459288056,-6516.248764544579,-6504.044712071981,-6471.657034356241,-6429.501644313532,-6402.74660620053,-6408.8039289479175,-6413.095463883336,-6422.79612097694,-6410.748530715529,-6394.364702029789,-6363.139315025725,-6342.933338038128,-6326.8624337747615,-6296.329950848813,-6279.141459362681,-6228.246537237947,-6176.546952312822,-6161.101896894204,-6163.292367850825,-6168.880303964652,-6153.725821223953,-6122.321620264247,-6073.4607068849455,-6054.171151420016,-6046.549206560756,-6040.9389187024735,-6025.069180139206,-6007.098377597139,-5987.473545965379,-6002.359807772614,-5982.109127296106,-5946.36868791207,-5924.195757412405,-5901.888716446008,-5896.591353010101,-5917.490234075813,-5929.336658637126,-5955.041164760729,-5948.6038623576005,-5897.999512910786,-5859.375698492015,-5859.889788614487,-5854.078335056107,-5824.1046457415405,-5823.277631196694,-5838.5438726596685,-5831.346610945059,-5787.425433090381,-5784.5420580556465,-5826.96566903182,-5859.800381636665,-5847.372811719515,-5822.338857929571,-5851.552587932657,-5864.181323549906,-5906.4037688259805,-5946.212225700882,-5940.467827375869,-5931.191853426916,-5951.576644370156,-5965.725298610366,-5991.876839623075,-5995.654284436022,-5992.100357067628,-5991.943894856441,-6022.208156848927,-6057.121581688116,-6091.677378616021,-6116.644277172599,-6097.377073452124,-6076.7464133198755,-6106.608343912166,-6132.044629102305,-6169.5508562983105,-6161.9736149279615,-6133.810416914274,-6158.017356159372,-6177.5080773244,-6154.351670068702,-6139.286594305825,-6138.16900708306,-6149.210768843981,-6176.949283713017,-6177.038690690839,-6128.468349989456,-6125.6967336769985,-6151.7588677118865,-6168.4332690755455,-6145.925062409051,-6136.492626248912,-6136.716143693465,-6121.0028673413835,-6121.82988188623,-6136.045591359805,-6114.185585282516,-6079.428622654513,-6082.289645944792,-6063.7153463024315,-6006.2490113078375,-5993.441461734947,-6000.348150771636,-6010.697008454444,-6010.629953221078,-5980.008063317307,-5936.265699418271,-5914.137472407517,-5896.256076843271,-5874.954864377363,-5854.458314711847,-5853.720707144822,-5838.2532999817495,-5808.950163000842,-5788.230095890773,-5773.410889316904,-5747.125237837463,-5727.008667827687,-5725.287583504628,-5711.250687986695,-5710.043693786108,-5720.057275302086,-5701.3041617040835,-5680.382928893916,-5662.434478096304,-5646.475332555215,-5603.895259367855,-5548.462933118693,-5528.726342764658,-5517.438711814727,-5516.2317176141405,-5477.160868306264,-5464.912112344756,-5483.598170709392,-5489.2308103121295,-5478.904304373777,-5467.661376912758,-5454.0715162839315,-5430.535129372493,-5375.72865196808,-5341.932814351656,-5323.29145947593,-5281.940732233612,-5253.442258053095,-5250.782400462914,-5238.019554378933,-5209.431673220596,-5176.909885038124,-5169.824382045792,-5140.6777072760715,-5120.516433777384,-5121.991648911435,-5106.77011093737,-5060.300834214787,-5042.732363072916,-5021.408798862552,-5028.47195011043,-4977.152344841045,-4947.960966582414,-4916.266192944789,-4848.093372356102,-4816.33154348511,-4814.498700439775,-4803.14401425648,-4768.387051628477,-4750.192731641857,-4745.543568795153,-4742.928414693883,-4697.1520420494135,-4655.935425273827,-4665.2784544561455,-4670.955797547794,-4632.153169173381,-4570.752927154652,-4532.330278435979,-4517.868699773396,-4468.940731160728,-4430.987469075617,-4445.180826804737,-4441.984527347628,-4415.073027023438,-4397.973942515128,-4376.650378304766,-4341.535787765478,-4292.473708686079,-4265.830429295353,-4246.764391274976,-4222.0433619074065,-4218.26591709446,-4245.199769163104,-4228.9724026885515,-4206.754768699976,-4226.469007309557,-4214.488472281512,-4168.06389904784,-4148.751991838454,-4143.29816619136,-4116.297258889349,-4093.09614814474,-4067.1457728321284,-4014.2391937064167,-3957.3093005787496,-3936.700992190956,-3956.0128994003417,-3947.742753951878,-3918.126692548596,-3887.460099155915,-3845.6623370244906,-3808.9384208844212,-3806.5467842277035,-3812.8946796530104,-3794.65565617748,-3750.8685887895335,-3724.3817716099948,-3715.530480805693,-3712.8259197266007,-3713.630582526992,-3691.792928194157,-3686.562619991615,-3663.0262330801766,-3603.145909684409,-3568.1430778673985,-3571.7193569802475,-3581.732938496225,-3574.021586659144,-3593.3558456129845,-3537.3200222635296,-3502.3842456798848,-3518.477501687706,-3500.1490712343543,-3441.363983316897,-3408.8198433899697,-3404.7518258991036,-3391.4748896926512,-3373.9511220396903,-3382.221267488154,-3358.2154939431543,-3339.104752433867,-3322.8550342148587,-3322.966792937135,-3300.8385659263813,-3323.033848170501,-3343.4409908581965,-3322.899737703769,-3293.4177867672192,-3246.5014751555295,-3229.8047220474155,-3219.813492275893,-3203.4743670790635,-3208.7940822594264,-3187.694035493617,-3166.4375265166195,-3128.0595812868573,-3069.3191968583105,-3054.075307139791,-3048.3532605592327,-3015.2279752764675,-3000.0064373024034,-2968.959864253982,-2962.2096374284793,-2992.1386232541354,-3036.082152853269,-3048.4873710259644,-3018.4242747335766,-2960.689718805518,-2904.318619289234,-2908.8783751581163,-2894.4614999844434,-2882.1009853006585,-2893.701540672963,-2918.95901190746,-2950.4749715894427,-2997.793614601328,-3039.524321499386,-3071.688481770573,-3043.5476355013416,-3030.337754528255,-3037.467961009498,-3021.4194084905876,-2995.893716322627,-2986.5506871403086,-3040.3289842997774,-3081.9032289866486,-3094.2860954148887,-3092.1179762027236,-3096.7447873049723,-3120.907023061159,-3144.085782061313,-3188.096366893812,-3209.9563729711026,-3224.2167859335887,-3241.2488152085325,-3234.8338645498593,-3233.9844982605578,-3213.8902799952366,-3206.1565764137003,-3200.4121780886867,-3200.8592129777926,-3210.0457799489236,-3213.622059061773,-3215.9913439740353,-3244.7356873435606,-3256.73857411606,-3236.1526174727223,-3215.4996055960187,-3190.286837850432,-3186.1964686151114,-3161.944825881103,-3144.756334394972,-3123.075142273324,-3130.8982528326815,-3140.844779115293,-3132.95461332257,-3147.595005940796,-3129.8700725877375,-3109.4405781555865,-3105.2608019424442,-3078.4163568516205,-3065.497048556453,-3045.2240163354895,-3061.4737345544977,-3040.306632555322,-2981.7674138268726,-2943.2330063859235,-2925.932756177516,-2898.0601308417477,-2871.126278773103,-2874.9037235860496,-2859.145743745058,-2850.1603424740247,-2864.9124938145274,-2860.1962757344577,-2826.311031140212,-2811.5588797997093,-2800.181841871958,-2770.83400140214,-2729.505625904277,-2692.357026619557,-2691.0159219522384,-2717.390980409501,-2727.248099714291,-2706.4386256264,-2698.6825703004088,-2642.3114707841246,-2588.4437666468343,-2573.132821694949,-2538.487617789223,-2525.590661238511,-2536.2747950881476,-2514.7724169221424,-2475.500401914168,-2440.4975700971568,-2431.847444992953,-2409.9650871712074,-2328.671792587256,-2297.8487369833874,-2267.9644546466416,-2253.994614362075,-2242.2375967785833,-2244.986861346586,-2220.0646662789186,-2188.7945757859443,-2178.5574768254137,-2201.6244771032902,-2209.9169742962094,-2184.8159652728996,-2158.1503341377183,-2153.2776538464614,-2127.081409344841,-2077.929923287621,-2031.1477221426635,-2017.3119923248282,-2003.5880212292698,-1992.2109833015186,-1977.8611633612113,-1958.9739392964768,-1928.3520493927062,-1870.326920786729,-1843.4154204625395,-1834.5641296582378,-1801.4164926310175,-1761.4739252893837,-1734.271852287275,-1716.301049745208,-1667.5295433437282,-1598.954391354846,-1560.799963569637,-1525.439503841341,-1525.9982974527238,-1531.2509573997208,-1484.9828463772353,-1454.2491977511881,-1440.2570057221658,-1443.900340068381,-1430.7798660731157,-1411.1103309524456,-1371.8606676889262,-1331.2922515025439,-1280.129108444346,-1260.8619047238715,-1210.0563895769585,-1189.0457497889697,-1204.5802121854083,-1202.456796462154,-1204.1108255518468,-1200.3333807389,-1165.330548921889,-1121.1635018782022,-1059.785611603929,-1023.8663582642506,-1013.0704656923373,-1020.7147622960523,-1021.7205907965412,-993.0433026603822,-972.6808634615975,-963.6284069571981,-960.2085900555361,-962.1755435676031,-944.3612032367234,-916.3544674342237,-868.0076441773945,-811.2118615164592,-800.8853555781074,-788.1672129830376,-778.5336111228003,-790.1788699840153,-737.4734565584013,-712.126578346083,-697.195613049938,-667.8924760690303,-643.1490949570054,-612.7283707533325,-604.7040944938773,-594.0199606442405,-590.2201640868383,-583.4252337724249,-554.7702973807213,-527.7023348453445,-514.5595091056239,-483.6023430350236,-427.07478130755203,-406.84645257549914,-419.721057381756,-431.7686476431665,-409.03692353211926,-393.83773730251045,-387.109862221463,-338.78539070908914,-314.46669274171506,-311.98564910717596,-335.8126086965333,-334.8291319404998,-295.87004135489957,-281.5649249035031,-286.57171566149185,-281.6096283924137,-254.69812806822398,-228.7924562445231,-198.4164355297608,-191.1744703262413,-167.52632469252643,-137.46322840013843,-146.42627792671658,-176.2435050300962,-189.11810983635306,-154.1599815082528,-107.9365739746778,-87.37296907579531,-99.97935294858848,-91.1280621442869,-45.35168949981803,-17.680229864147886,-22.7764275999579,4.984439013533475,32.767657371480155,46.91631161168952,40.233140019552714,62.070794352387715,107.44483559666105,90.88219295527851,91.48569005557181,109.1659199197197,117.99485897956599,120.11827470282016,133.864597542834,175.39413874079452,168.93448459321078,174.47771721812694,164.95587408016613,137.91026328924457,148.46028667214952,170.186182282708,160.32906297791757,180.78090915452353,196.8071099289787,180.3562260098727,172.06372881695376,150.38253669530593,140.5030656460602,107.48953908557166,73.93957065815576,90.70337899963606,86.90358244223385,78.09699512684287,82.20971610661938,82.79086146245736,69.0221868779882,56.058175093910116,35.65103240621477,9.790064071424494,-33.08058179385445,-71.1679543456977,-75.48184102557195,-137.73144933360211,-180.84796438788945,-165.67112990273594,-159.74791762207957,-129.01426899603237,-121.48173111459388,-139.02785051200993,-136.03271675499877,-140.5254173905155,-139.85486505685628,-134.15517022075298,-142.47001915812723,-179.93154286522184,-203.91496466576632,-189.6321999588251,-172.734281150613,-167.50397294807112,-192.04618835999827,-192.64968546029158,-197.45531051818259,-212.72155198115732,-188.604019713881,-148.3932314387836,-148.46028667214952,-132.94817602016641,-92.84914646734553,-80.55568701692665,-94.05614066793213,-88.35644583182882,-77.26998058199652,-55.52173322698275,-51.319605269385015,-50.49259072453865,-27.91732882467852,-0.715255822569826,28.1631980136869,52.45954423660567,106.48371058508285,119.85005376935646,101.54397506045999,127.42729513970556,137.17265572221945,142.1570947357529,155.81401059794553,208.02768564554285,251.12184895537484,249.7136890546905,240.10243893890848,227.40664808829405,252.64176757833573,285.94586681674326,286.28114298357286,295.244192510151,302.73202690267885,342.98751866668687,392.07194949054116,421.2856794936275,452.4887147532362,442.0951535815184,422.4703219497588,435.8366651340324,415.8765573354432,424.43727546182583,459.2836450676495,499.1815089203726,526.6070993670344,562.2134282843385,578.4631465033468,577.2561523027603,577.4126145139473,606.7604549837655,638.5669873436675,671.3569964596029,694.2228310373821,748.2022938969486,797.1302625096158,848.9416061570175,864.40901332009,849.343937557213,859.4245743065566,912.8899470436511,943.9812235809832,948.5633311943211,960.3650522667233,973.4855262619885,983.7002734780639,1012.7128377810524,1045.4134399191666,1085.8700973832724,1072.3919954767223,1075.0295013224486,1096.9342108886494,1147.9632434801154,1198.4558342046541,1233.682183466218,1273.8929717413155,1324.1396932768457,1373.2688275896105,1392.4242725878087,1399.3533133689539,1405.5000430941634,1462.1840670328222,1495.2870005711318,1498.863279683981,1515.8059019811037,1540.3257656485755,1559.3247484355866,1594.9310773528907,1645.758944244259,1655.2807873822198,1678.7501190602923,1702.0406367827222,1755.170733352987,1817.397989916562,1823.6564783640479,1821.8236353187128,1859.2181037924415,1875.0207871223436,1876.9430371455,1876.3171883007515,1896.2772960993407,1921.9594504784884,1929.0226017263653,1958.2139799849965,1997.3742362706944,2017.1778818580965,2059.2662166674395,2130.255357057495,2149.90254043371,2165.481706319059,2145.767467709478,2122.8792813872437,2130.903557646699,2180.2562094040168,2171.404918599715,2157.613892270791,2178.4233663586815,2225.183215759184,2285.5329257885132,2329.342344920915,2317.4065133817808,2319.574632593946,2339.8029613259987,2351.7164411206772,2365.5521709385125,2376.2810082770598,2376.504525721613,2410.814453460509,2477.556762404056,2529.9268996628407,2573.9821879842507,2615.8023018601302,2609.7673308571975,2585.8956677789292,2600.9830952862617,2614.3941419594457,2629.190996788859,2628.6992584108425,2619.3785809729793,2640.098648083049,2677.5825235345987,2703.219974424836,2690.5688870631325,2678.476593312811,2690.2336108963027,2735.9876317963162,2782.970998641372,2838.1798074459803,2877.317711987223,2868.801697349751,2874.6131509081306,2895.020293595826,2897.0766540857144,2886.9736655919155,2910.6218112256306,2917.4837967734097,2941.556625551775,2972.6255503446523,3014.2668502648894,3038.5184929988973,3091.3803686356987,3112.4804154015083,3102.37742690771,3127.6796016311173,3186.8223174598597,3194.779538485949,3185.7047302370943,3160.067279346857,3159.776706668938,3158.6367677017174,3191.627942517751,3213.9573352286025,3257.4091264497197,3269.143792288756,3251.6870798691607,3235.9961552615355,3266.2157137651106,3277.7045104151384,3252.2458734805437,3272.8318301238814,3308.527566019007,3326.6101272833503,3358.3049009209753,3361.52355212254,3341.7869617685037,3340.2223396566324,3372.006520272079,3403.4554247206956,3410.4962242241177,3404.0142183320786,3399.7226833966597,3404.774177643559,3415.4806632376512,3425.4942447536287,3450.282329354564,3452.5845590334607,3411.2338317911426,3383.2717994775535,3383.4953169221067,3359.71306082166,3308.460510785641,3269.5908271778617,3244.422762921186,3222.853329521815,3213.5997073173176,3180.1167941232675,3176.920494666159,3174.2606370759772,3188.9904366720248,3176.2499423324994,3135.9273953351258,3124.6621161296507,3140.911834348659,3124.6621161296507,3095.7166070600283,3056.779868218883,3042.3182895562995,3051.1025251272354,3040.530149999875,3066.7487462459503,3072.9401794600703,3045.6486994801403,3013.372780486677,3005.5049664384087,2993.1444517546242,3009.304762995811,3032.6399842071514,3026.7167719264953,3014.5127194538977,3015.2503270209227,3022.179367802068,3040.843074422249,3045.2687198244003,3015.764417143395,3001.0346175473474,3031.41063826211,3056.109315885224,3088.1617174341345,3130.4512179435756,3171.4443172746087,3170.684357963128,3160.5813694693293,3183.8271837028487,3221.3110591543987,3243.1934169761444,3242.656975109217,3262.527675929985,3286.399339008253,3294.3789117787974,3321.89390920328,3357.9249212652353,3380.835459331925,3408.6633811787824,3382.9588750551793,3369.614883615361,3387.228058246143,3430.188111089243,3476.7467947896475,3519.9080133328457,3542.8185513995354,3540.4269147428176,3531.2626995161418,3537.454132730262,3512.666048129326,3514.8788708304014,3534.2354815286976,3585.4656798202614,3623.798921561113,3643.3790497039618,3639.892177568934,3647.8717503394787,3662.0427563241433,3652.856189353012,3670.558770961615,3715.821053483612,3742.4419811298826,3766.112478508053,3769.241722731796,3764.726670351824,3786.8101938736672,3822.617688491069,3870.852753025622,3888.6223898675908,3928.497901975859,3965.959425682953,4004.0467982347964,4033.9534323159974,4052.058345324796,4041.0389353083297,4053.287691269838,4077.025243881374,4096.471261557492,4105.546069806346,4141.465323146024,4167.281587991904,4184.335969011303,4189.342759769293,4206.911230911163,4246.339708130326,4314.75839790802,4364.938064210184,4377.276227149514,4386.999235987572,4404.768872829542,4417.196442746692,4458.748335689108,4512.504281104121,4512.683095059764,4538.052325016538,4571.624645188409,4561.14167703887,4582.465241249232,4630.074456939037,4649.319308915056,4674.6661871273745,4718.430902770866,4760.966272469315,4772.052737719147,4773.4608976198315,4809.603668404063,4845.589976977108,4859.3362998171215,4881.665692527973,4889.6229135540625,4910.8123672976935,4973.240789561366,5014.636220292595,5037.434999637008,5072.259017498376,5088.57579095075,5106.166613837077,5128.7642274813925,5139.627175286672,5137.526111307873,5143.225806143976,5128.786579225848,5117.051913386812,5115.710808719494,5126.953736180512,5166.985710499967,5221.8592431377465,5232.208100820554,5259.745449989492,5299.956238264589,5328.208843256098,5337.10483754931,5354.539198224449,5380.176649114686,5402.014303447521,5410.776187274002,5411.603201818848,5442.9179958007335,5480.156002063275,5495.377540037339,5509.593249510915,5529.441598587227,5564.310319937506,5575.933227054265,5595.759224386123,5632.147864359363,5671.956321234265,5689.837716798511,5719.207909012784,5751.394421028426,5742.923109879865,5749.829798916555,5751.305014050605,5731.724885907756,5740.665583689879,5766.705365980311,5775.33313934006,5768.627616003468,5770.169886370884,5780.451688820325,5808.838404278566,5860.336823503593,5881.749794691777,5878.106460345562,5885.840163927098,5909.823585727642,5939.976088997852,5933.359972639081,5936.489216862824,5968.496914922824,5993.195592545938,6014.228584078382,6052.539474074778,6084.390709923591,6106.585992167711,6112.218631770448,6099.701654875476,6101.534497920811,6121.82988188623,6144.449847275001,6154.083449135238,6197.669350823087,6259.360165519734,6281.108412874748,6284.7740989654185,6268.4796772575,6265.842171411774,6276.459250028044,6243.311613000824,6223.820891835796,6193.646036821132,6182.917199482585,6214.8578423092185,6235.801426863841,6230.302897727835,6248.564272947821,6236.337868730769,6224.80436859183,6208.018208505894,6171.741327254931,6118.365361495657,6076.411137153046,6052.6735845415105,6025.158587117027,6009.668828209499,6030.590061019667,6039.553110546245,5999.342322271147,5988.322912254681,5965.881760821553,5933.4046761279915,5927.481463847335,5934.008173228285,5946.771019312265,5976.923522582474,5953.901225793508,5902.536917035212,5911.231745628327,5925.402751612992,5919.300725376693,5909.309495605171,5895.764338465255,5902.514565290758,5913.668085773956,5920.395960855003,5914.964486952364,5887.78476569471,5872.272655042727,5895.116137876051,5913.69043751841,5931.303612149193,5968.653377134011,6025.270345839303,6011.85929916612,5973.950740569919,5981.393871473536,5988.6134849326,5986.5794761871675,6016.195537590449,6054.685241542487,6112.889184104108,6167.4944958084225,6196.775281044875,6206.744159071942,6223.217394735503,6200.485670624455,6195.255362421914,6225.653734881132,6261.7070986875415,6311.216212656047,6363.07225979236,6375.276312264957,6373.4658209640775,6367.49790519451,6357.037288789426,6397.203373575613,6422.438493065655,6454.915577759216,6488.800822353462,6500.177860281213,6517.9251453787265,6542.266195090556,6546.20010211469,6550.446933561198,6583.393404888321,6612.45067268022,6627.493396698642,6652.393240021854,6689.519487562119,6715.782787297105,6714.016999485136,6727.875081047426,6761.983843086225,6798.0372068926345,6829.5531665746175,6859.593911122551,6907.851327401559,6926.671496232927,6952.845388990091,7002.95800005889,7018.000724077311,7004.0532355372,6988.116441740566,6976.225313690343,6968.335147897619,6981.5226771262505,7018.425407221963,7078.037509684266,7096.723568048903,7111.967457767422,7127.256050974853,7116.191937469475,7170.394917773595,7223.681476555047,7290.8708203877,7326.298335349362,7328.175881883608,7366.8220480468335,7413.648952680702,7451.892787443732,7499.122023477796,7534.124855294807,7560.790486429988,7576.21319010415,7625.476434883647,7660.367507978382,7664.547284191523,7667.475362715169,7685.110889090406,7697.739624707655,7708.580220768478,7718.1914708842605,7754.423648646313,7790.119384541439,7798.680102667821,7812.426425507835,7850.804370737597,7891.395138668435,7962.451334291856,7990.972160216828,7981.115040912037,7998.884677754007,8033.798102593197,8080.736765949341,8127.004876971827,8121.416940858,8125.127330437581,8155.503351152343,8159.884293065584,8169.920226326017,8187.823973634717,8200.206840062958,8237.847177725695,8273.677024087552,8258.522541346854,8219.719912972441,8224.637296752608,8275.107535732692,8315.02775132987,8338.720600452496,8345.448475533543,8358.837170462271,8355.663222749617,8359.172446629102,8367.196722888557,8387.402699876155,8431.994430064491,8480.095384132312,8511.074901947368,8534.410123158708,8559.98051881558,8594.066929109924,8584.723899927605,8569.50236195354,8562.014527561012,8576.78903064597,8608.953190917158,8661.680956087226,8673.437973670718,8701.332950750942,8720.041360860034,8718.364980025886,8737.766294213092,8737.319259323986,8744.628279760871,8777.999434232644,8814.544536417072,8836.628059938916,8869.820400455046,8885.511325062673,8892.507421077184,8896.195458912309,8912.623991086959,8917.921354522867,8927.912584294389,8972.012576104711,8976.974663373789,8956.053430563621,8974.247750550241,8989.335178057574,9014.033855680687,9011.172832390408,9036.385600135995,9044.275765928718,9060.592539381092,9118.036522631231,9143.137531654542,9124.406769800993,9127.647772747014,9147.674935778969,9152.704078281413,9213.701988899946,9275.616321041147,9311.580277869734,9309.523917379847,9276.286873374806,9274.699899518479,9296.202277684484,9307.691074334512,9294.816469528256,9287.730966535923,9280.623111799136,9282.321844377739,9276.376280352626,9223.961439604931,9194.01010203482,9195.753538102334,9178.654453594025,9147.987860201343,9124.406769800993,9125.99374365732,9123.736217467334,9120.986952899331,9119.936420909933,9115.443720274416,9113.163842339975,9086.900542604988,9091.639112429513,9108.268810304262,9065.912254561455,9052.858835799556,9053.752905577769,9050.735420076302,9011.932791701889,8975.812372662112,8928.471377905773,8931.734732596247,8953.594738673537,8958.780343387169,8954.10882879601,8941.52479666767,8940.831892589556,8971.386727259962,8982.96493088781,8952.67831715087,8951.560729928104,8935.780398342658,8913.875688776456,8907.080758462043,8913.406302142896,8922.391703413929,8928.091398250031,8945.592814158537,8986.25063732274,9024.270954641219,9049.93075727591,9054.825789311622,9084.330091992628,9106.234801558829,9126.396075057517,9106.726539936846,9067.298062717684,9094.231914786329,9122.305705822195,9154.738087026846,9190.232657221874,9194.881820068576,9174.742898314345,9184.957645530421,9202.816689350211,9212.293828999262,9206.7729481188,9203.44253819496,9229.907003630044,9255.969137664932,9293.095385205197,9280.310187376761,9301.209068442473,9317.145862239107,9377.652034479623,9410.330284873282,9420.276811155893,9425.82004378081,9442.96383177803,9480.335948507303,9516.054036146885,9527.676943263645,9542.764370770976,9551.16862668617,9589.725385871576,9621.442511253657,9633.199528837149,9628.14803459025,9616.346313517846,9644.733028976087,9665.028412941505,9680.317006148936,9713.218773987148,9728.820291616952,9739.504425466588,9746.83579764793,9784.677301010764,9841.763656349618,9892.859744174451,9928.108445180469,9972.946044557815,9988.59226567653,9983.54077142963,10011.12282408748,10037.788455222662,10025.919678916893,9997.510611714199,9980.143306272425,9956.83043680554,10024.533870760664,10118.09827305058,10171.027203920747,10199.771547290273,10202.073776969168,10236.160187263511,10251.60524268213,10277.98030113939,10277.019176127813,10297.51572579333,10358.446581178498,10383.726404157449,10399.506735742896,10402.948904389013,10417.186965607043,10451.362782879209,10487.93023680809,10518.954458112057,10515.579344699305,10518.350961011764,10509.924353352113,10531.158510584655,10567.18952264661,10617.168023248676,10693.320416607907,10724.948135012166,10713.325227895408,10719.941344254177,10759.213359262152,10770.724507656636,10809.66124649778,10858.633918599358,10882.05854678852,10902.756262154135,10928.505471766648,10947.683268509301,10965.609367562458,10966.682251296312,10966.145809429385,10988.877533540432,11012.883307085433,11016.817214109566,11062.079496631563,11122.071578749606,11141.405837703447,11145.898538338964,11162.572939702624,11163.534064714202,11186.824582436631,11222.98970496532,11267.46967643138,11293.80003139973,11304.66297920501,11309.133328096072,11310.697950207943,11339.308183110737,11342.370372101113,11345.253747135848,11353.367430373124,11343.91264246853,11354.14974142906,11381.977663275919,11414.566506691755,11436.337105791225,11445.523672762356,11477.978405711461,11538.551633185343,11569.017060877928,11575.119087114226,11571.900435912661,11584.05978489635,11606.72445377403,11627.153948206182,11635.647611099197,11677.132448808248,11719.55605978442,11772.596749376864,11828.409055281765,11822.57524997893,11805.118537559336,11808.560706205453,11799.910581101249,11799.24002876759,11823.894002901794,11862.20489289819,11876.82293377196,11896.44776540372,11905.656684119307,11906.617809130885,11910.73053011066,11894.63727410284,11898.057091004503,11898.571181126974,11957.535083000075,12006.083071957002,12045.444493942798,12075.1499623239,12077.563950725074,12043.81281659756,12056.463903959264,12102.083814392545,12136.103169453523,12144.172149201888,12156.420905163397,12167.641480879962,12164.244015722754,12132.325724640576,12129.97879147277,12164.042850022657,12213.730777946805,12251.99696445429,12238.787083481204,12255.975574967335,12300.634360389038,12314.268924506776,12320.080378065155,12321.53324145475,12330.29512528123,12332.843224149135,12334.765474172293,12325.176575800966,12288.586770127627,12247.481912074318,12236.507205546763,12263.843389015603,12269.252511173787,12257.361383123563,12246.09610391809,12223.677304229415,12216.189469836889,12189.099155557056,12113.840831976036,12109.415186573886,12123.116805924989,12136.527852598174,12131.945744984836,12076.826343158049,12024.1879849658,12001.009225965647,11977.428135565298,11990.660368282839,12028.993610023692,12043.946927064291,12033.910993803858,12030.357066435465,12037.107293260968,12026.557269878063,12021.058740742057,12031.072322258035,12064.599938940995,12074.546465223608,12063.080020318035,12083.218942072266,12074.814686157071,12058.743781893705,12051.971203323747,12059.43668597182,12095.959436411791,12109.146965640422,12153.828102806581,12192.496620714262,12171.441277437363,12177.610358907028,12190.954350346847,12187.042795067167,12197.481059727796,12228.102949631566,12262.94931923739,12294.800555086204,12324.215450789387,12341.046314364234,12360.939366929457,12337.894718396035,12344.510834754807,12355.306727326719,12375.78092524778,12390.533076588283,12393.505858600838,12446.591251682194,12470.462914760461,12510.450185591006,12522.743645041424,12529.67268582257,12542.748456328924,12564.273186239385,12559.19934024803,12556.830055335768,12584.613273693714,12607.322646060305,12639.710323776046,12652.942556493588,12650.372105881228,12672.857960803267,12702.071690806353,12733.095912110319,12775.363060875305,12802.699244344145,12817.317285217916,12818.658389885235,12857.036335114997,12884.953663939676,12883.634911016812,12878.7398789811,12913.899173009298,12968.884464369354,13001.249790340638,13012.693883501755,13017.186584137271,13001.450956040735,13028.697732531755,13047.20497694075,13061.912424792341,13061.10776199195,13087.840448360497,13142.669277509365,13191.150211232927,13200.269722970692,13212.764348121209,13264.933319679896,13269.940110437885,13278.813752986642,13334.402541446989,13347.478311953344,13359.481198725844,13377.273187312268,13419.383873866067,13435.231260684879,13465.607281399642,13491.959988112449,13510.355473799167,13538.63043053513,13557.629413322142,13580.651710111108,13598.331939975256,13627.143338578146,13665.543635552363,13671.109219921735,13689.549409097364,13736.331610242321,13755.956441874081,13767.132314101735,13773.569616504863,13827.526727619974,13819.524803104974,13805.01852095348,13830.745378821539,13867.581053683884,13879.673347434205,13909.781147215504,13941.386513875308,13998.204648280698,14039.264802845099,14008.911133874792,14031.844023685935,14088.483344135684,14114.612533403939,14112.958504314245,14134.326772013519,14140.451149994273,14165.842731695502,14207.059348471088,14236.138968007443,14277.132067338476,14310.391463087972,14311.866678222023,14317.052282935654,14327.848175507568,14359.654707867468,14389.807211137679,14421.412577797482,14412.605990482092,14413.790632938222,14424.407711554493,14441.149168151518,14463.903244007022,14499.353110713138,14513.501764953347,14509.67961665149,14531.025532606309,14543.900137412566,14537.462835009437,14562.116809143641,14592.761050791867,14589.251826912383,14598.952484005988,14656.24000504494,14726.58094484579,14757.024020793919,14758.476884183514,14767.775209876922,14784.628425196222,14784.851942640775,14798.441803269603,14849.537891094435,14880.383298442757,14876.985833285551,14865.877016291264,14888.89931308023,14891.067432292395,14904.389071987758,14893.257903249016,14879.42217343118,14904.299665009936,14932.395807790257,14916.86134539382,14928.819528677408,14951.953584188652,14958.189720891682,14954.836959223387,14942.118816628315,14965.722258773121,15019.902887332784,15064.271100076568,15039.795939898007,15025.468471702156,15050.010687114083,15047.864919646374,15035.88438461833,15028.798881625997,15047.149663823804,15039.237146286625,15020.506384433078,14982.776639792519,14945.069246896417,14916.056682593427,14866.949900025118,14861.630184844755,14853.6059085853,14815.876163944742,14766.545863931879,14757.895738827676,14778.504047215469,14794.194971823094,14779.375765249226,14788.852904898276,14776.648852425678,14734.784035060888,14714.354540628738,14693.567418285302,14687.174819371085,14709.168935915106,14725.530412856391,14713.527526083892,14696.227275875483,14705.279732379882,14703.737462012466,14725.686875067579,14729.330209413793,14710.219467904506,14710.621799304701,14731.833604792788,14769.429238966613,14800.83343992632,14794.507896245468,14778.727564660021,14821.5982105253,14834.830443242841,14843.547623580413,14873.141333239239,14890.151010769727,14903.293836509447,14937.71552297062,14954.635793523288,14955.507511557045,14950.478369054601,14946.097427141362,14974.148866432772,14984.922407260228,15016.483070431123,15067.892082678329,15088.07570792147,15092.680167279264,15105.063033707505,15144.893842326861,15176.34274677548,15223.192003153803,15261.458189661289,15273.17050375587,15297.064518578592,15317.605771733019,15353.94970821735,15393.199371480869,15417.138089792501,15415.640522913996,15423.597743940085,15449.861043675071,15486.450849348408,15483.701584780407,15498.341977398632,15506.388605402542,15534.037713293757,15540.854995352627,15552.634364680573,15568.459399754931,15578.025946381802,15575.388440536075,15581.334004561188,15596.89081870208,15634.240583686898,15642.33191517972,15647.539871637808,15693.897389638114,15730.643657522638,15770.116838230711,15822.330513278308,15848.638516502204,15890.1010024668,15922.309866226897,15913.369168444773,15897.9017612817,15931.027046564466,15975.439962797162,15977.719840731603,15992.673157772204,16011.538030092483,16028.860632045345,16063.550539439982,16087.310443795974,16123.408511091295,16167.642613368347,16199.605607939437,16213.798965668557,16264.045687204087,16322.093167554518,16290.912484039365,16272.986384986209,16308.257437736684,16344.534318987648,16346.478920755259,16343.036752109141,16359.711153472801,16410.62842734199,16472.96744262784,16492.525219026236,16510.250152379293,16520.50960308428,16562.732048360354,16609.871877416597,16627.552107280746,16635.598735284657,16641.879575476596,16631.53071779379,16641.52194756531,16657.726962295408,16689.354680699667,16712.6451984221,16766.22232988147,16824.359217209723,16854.310554779837,16896.62240703373,16899.841058235295,16895.705985511064,16944.74571284601,16998.188733838648,16999.194562339137,17013.1644026237,17024.295571362447,17059.723086324106,17087.551008170965,17074.966976042626,17054.89510952176,17071.256586463045,17081.00194704556,17088.333319226902,17092.691909395686,17102.6384356783,17135.0931686274,17218.912210334805,17274.389240072876,17269.13658012588,17291.51067632564,17308.699167811774,17316.3881679044,17335.364798946954,17358.744723647204,17404.2081718693,17460.378105685486,17451.92914628138,17437.244050174242,17477.521893682708,17498.08549858159,17518.582048247106,17550.94737421839,17575.1990169524,17588.565360136672,17573.52263611825,17584.519694390263,17597.595464896618,17620.21543028539,17631.592468213137,17637.783901427258,17631.72657867987,17653.69834347944,17689.528189841294,17725.760367603347,17747.262745769352,17753.074199327733,17769.055696613275,17804.036176685833,17812.731005278947,17809.646464544116,17852.67357262058,17905.848372679757,17955.35748664826,17939.487748084994,17903.546143000858,17883.25075903544,17927.864840968232,17975.675222358135,17987.812219597366,18003.391385482715,18012.399138498204,17991.18733301012,17997.356414479782,18019.551696723902,18020.445766502115,18019.216420557073,18000.23978951452,18010.543943708413,18015.349568766305,18050.173586627672,18078.269729407995,18100.57677037439,18099.68270059618,18074.089953194853,18067.272671135983,18049.503034294015,18015.975417611055,17999.61394066977,17971.964832778554,17938.012532950943,17902.048576122354,17872.656032163624,17864.698811137536,17827.505508363905,17782.42203979755,17749.564975448247,17729.157832760553,17709.242428450874,17665.34360234065,17650.859671933613,17649.7644364553,17640.242593317344,17631.43600600195,17637.24745956033,17672.54086405526,17665.500064551838,17645.651715475527,17640.801386928724,17624.52931696526,17567.062981970666,17560.156292933978,17551.886147485515,17542.543118303194,17548.354571861575,17569.00758373828,17592.00752878279,17619.72369190737,17614.851011616112,17635.481671748363,17665.723581996393,17698.98297774589,17706.582570860694,17704.570913859716,17691.048108464256,17677.011212946323,17694.55733234374,17697.50776261184,17713.109280241642,17736.13157703061,17762.551338976784,17773.771914693345,17815.65908380259,17826.14205195213,17834.747473567426,17859.133226768165,17902.54031450037,17967.98622226551,18025.005522370997,18041.836385945844,18051.62645001727,18086.271653922995,18091.546665614445,18085.33288065587,18071.027764204475,18075.766334029002,18121.8779828403,18151.002305865564,18181.60184402488,18237.592963885425,18250.489920436135,18239.872841819866,18264.14683629833,18285.246883064137,18314.550020045044,18353.48675888619,18388.40018372538,18403.286445532616,18405.11928857795,18423.60418124249,18451.946193211817,18465.401943373912,18511.200667762838,18518.062653310615,18505.724490371285,18535.497013985758,18575.73015400531,18600.786459539708,18634.179965755935,18647.188681028925,18672.870835408074,18744.441121153966,18786.216531540937,18790.39630775408,18770.279737744302,18779.555711693254,18813.91034292106,18841.090064178716,18881.54672164282,18920.997550606437,18967.55623430684,19012.125612750722,19020.485165177008,19029.58232517032,19079.53847402793,19123.571410604884,19151.600498151838,19168.766637893517,19199.120306863824,19245.723694053137,19267.069610007955,19289.24254050762,19304.15115405931,19342.998485922635,19401.26948371762,19436.7864056571,19449.459844763263,19465.866025193456,19540.185575507352,19616.06974793312,19610.83943973058,19589.426468542395,19620.16011716844,19689.763449402268,19745.553403562713,19793.922578563997,19844.012837888342,19882.949576729487,19880.110905183665,19873.070105680243,19887.621091320645,19890.102134955185,19881.474361595436,19853.177053115018,19863.190634630995,19914.800812578298,19977.94449066454,19996.451735073537,19996.496438562448,20031.81219480183,20067.59733767478,20115.832402209333,20161.98875450954,20197.460972960114,20200.500810206035,20206.044042830952,20226.652351218745,20264.33739237039,20264.627965048312,20264.270337137026,20299.027299765028,20299.429631165225,20337.69581767271,20397.88906549085,20398.55961782451,20405.80158302803,20455.10953129644,20485.172627588825,20481.261072309146,20473.505016983156,20473.236796049692,20492.48164802571,20522.991779207205,20540.046160226604,20550.21620395377,20530.613724066465,20542.929535261337,20544.784730051128,20610.252989560722,20672.56965310212,20692.66387136744,20687.18769397589,20697.693013869884,20699.86113308205,20703.95150231737,20694.34025220159,20718.10015655758,20775.030049685247,20788.552855080707,20810.949303024925,20804.668462832986,20791.16800918198,20798.857009274605,20833.479861435873,20883.592472504675,20906.324196615722,20929.48060387142,20974.944052093513,21027.82827947477,21033.907953966613,21010.68449147755,21033.63973303315,21080.287823711376,21079.84078882227,21095.75523087445,21110.41797523713,21143.833833197812,21183.396420883706,21198.059165246388,21183.821104028357,21204.89879904971,21252.485662995063,21273.9209859277,21246.093064080844,21219.650950390216,21231.273857506974,21277.40785806273,21291.623567536302,21274.1221516278,21286.862645967325,21288.516675057017,21292.69645127016,21287.466143067617,21287.890826212268,21280.827674964392,21272.825750449392,21225.529459181962,21213.615979387283,21232.033816818457,21219.91917132368,21202.283644948442,21180.87067376026,21179.7977900264,21168.57721430984,21125.058367855356,21076.59978587625,21060.327715912787,21020.563962526794,20957.509691418374,20922.41745262354,20912.269760640833,20917.678882799017,20925.32317940273,20890.096830141167,20829.657713134016,20822.77337584178,20818.370082184087,20822.97454154188,20829.881230578572,20844.499271452343,20818.59359962864,20820.44879441843,20840.431253961477,20841.995876073346,20834.12806202508,20789.424573114466,20794.565474339186,20841.25826850632,20864.682896695485,20811.373986169576,20799.102878463615,20856.099826824648,20887.839303951183,20882.36312655963,20901.09388841318,20934.107414973667,20939.404778409575,20915.399004864576,20931.268743427845,20927.826574781728,20929.748824804883,20963.321144976755,21010.595084499728,21045.866137250203,21078.65614636614,21107.93693160259,21130.243972568987,21146.89602218819,21140.861051185257,21140.302257573876,21182.70351680559,21212.878371820258,21257.96184038661,21270.188244603665,21259.14648284274,21247.411817003707,21276.20086386214,21283.867512210312,21280.78297147548,21311.427213123705,21366.9936498396,21385.433839015226,21429.33266512545,21420.391967343327,21409.305502093495,21422.671845277768,21433.66890354978,21433.445386105228,21458.188767217252,21512.950541132755,21534.654084998856,21551.127320662417,21587.493608891204,21607.788992856622,21621.915295352377,21650.033789877154,21707.187200449374,21749.76727363673,21734.00929379574,21731.30473271665,21760.02672434172,21792.637919502013,21843.532841626748,21880.48027521137,21887.27520552578,21893.48899048436,21918.299426829748,21933.208040381436,21968.05440998726,22010.947407596996,22022.525611224846,22054.578012773756,22087.56918758979,22115.33005420328,22151.76339766543,22153.462130244036,22132.406786967134,22138.687627159077,22182.92172943613,22214.191819929103,22236.141232984213,22269.959422345095,22306.862152440804,22327.51516431751,22358.584089110387,22393.989252327592,22396.760868640053,22437.97748541564,22465.67129679576,22477.428314379253,22506.84321008244,22516.40975670931,22541.644876199352,22560.71091421973,22609.705938065763,22675.241252808722,22718.760099263203,22760.177881738888,22809.75405094076,22825.288513337196,22822.673359235927,22851.730627027828,22853.33995262861,22876.98809826232,22916.707148159403,22911.54389519023,22909.889866100537,22949.452453786427,22970.55250055224,22990.959643239934,23014.004291773355,23035.596076917183,23058.03722835031,23081.774780961845,23105.422926595562,23120.063319213787,23161.34699122274,23208.64328249017,23246.820062019833,23246.529489341916,23235.823003747824,23251.044541721887,23306.722737160057,23332.33783630584,23325.453499013605,23345.57006902338,23374.470874604092,23434.708825911144,23475.634870008813,23517.45498388469,23551.38493196785,23566.62882168637,23592.95917665472,23607.71132799522,23605.207932616227,23626.48679333768,23632.789985274077,23619.334235111983,23600.983452914174,23632.410005618338,23684.60132892148,23685.294232999593,23691.843294125,23720.92291366135,23752.28241113215,23729.260114343182,23754.182309410848,23808.698214137345,23826.80312714614,23834.223906305302,23850.898307668962,23872.11011315705,23912.879695043528,23923.45207017089,23965.383942769044,24001.32554785318,23984.919367422983,23975.106951607104,23982.50537902181,23971.88830040554,23974.16817833998,23983.69002147794,23959.818358399672,23979.867873176085,23981.477198776865,23940.864079101575,23949.13422455004,23964.042838101726,23980.31490806519,23976.872739419072,23977.45388477491,23982.88535867755,23946.295553004213,23937.131337777537,23947.413140226978,23907.02353799624,23861.40362756296,23850.697141968863,23819.784679387176,23792.76142034071,23789.945100539342,23798.03643203216,23816.744842141252,23787.888740049453,23773.717734064787,23730.82473645505,23698.63822443941,23689.40695397937,23664.931793800806,23671.369096203936,23708.897675144395,23711.60223622349,23709.92585538934,23673.894843327387,23659.857947809454,23654.11354948444,23658.226270464216,23701.07456458504,23726.577905008544,23737.46320455828,23749.220222141772,23758.518547835178,23768.66623981789,23780.646774845933,23799.064612277107,23824.90322886744,23809.279359493183,23823.919752111407,23826.04316783466,23801.09862102254,23791.152094739926,23792.76142034071,23863.415284563933,23931.766919108264,23976.157483596504,23987.087486635148,23986.685155234954,23990.440248303446,23985.209940100904,24010.489763079855,24026.717129554407,24036.596600603654,24057.24961248036,24122.62846501213,24158.39125614062,24166.907270778094,24190.533064667354,24226.452318007032,24271.04404819537,24279.89533899967,24302.00121426597,24326.76694712245,24369.369372054265,24411.189485930146,24430.568448372895,24468.298193013456,24497.444867783175,24507.704318488162,24491.342841546877,24480.591652463874,24537.923876991736,24575.653621632293,24573.977240798147,24570.400961685296,24595.479618964153,24634.371654316386,24667.251070410144,24705.673719128816,24723.89039085989,24745.124548092434,24791.86204574848,24835.649113136427,24842.9134300844,24851.25063076623,24875.524625244692,24924.74316653528,24958.918983807445,24998.03453660423,25040.480499324858,25037.7088830124,25045.48729008285,25054.427987864972,25077.047953253743,25107.73689839088,25138.917581906033,25179.30718413677,25221.88725732413,25254.09612108423,25277.297231828838,25320.793726538865,25326.828697541798,25311.137772934173,25353.896660077175,25384.518549980945,25434.161774416185,25451.193803691127,25451.774949046965,25458.726341572565,25462.99552476353,25471.019801022983,25513.421060254703,25608.460677678668,25662.104864371406,25681.148550647325,25694.47019034269,25746.19212701227,25769.504996479154,25765.213461543735,25766.82278714452,25793.53312176861,25824.132659927924,25862.622363879964,25875.54167217513,25885.018811824182,25932.449213558342,25946.866088732015,25959.38306562699,25988.52974039671,26020.604493690076,26074.963936205382,26126.417651941498,26133.41374795601,26121.209695483412,26095.661651570994,26140.07456780369,26189.94130968348,26202.860617978647,26219.17739143102,26240.47860389693,26278.364810748677,26346.58233482627,26393.94568132707,26419.627835706215,26440.459661538564,26450.04855990989,26455.122405901246,26464.554842061385,26466.387685106718,26505.68205185915,26514.33217696335,26546.02695060098,26585.67894526469,26613.685681067192,26642.072396525433,26670.168539305752,26687.155865091787,26703.919673433265,26716.727223006157,26756.982714770165,26781.837854604466,26784.765933128114,26788.20810177423,26807.20708456124,26829.044738894077,26855.330390373518,26882.28659418662,26897.105800760484,26941.026978615166,26984.411714602917,27025.36011044504,27034.077290782607,27043.241506009283,27068.588384221603,27082.6923349729,27134.32486466466,27187.05262983473,27221.38490931808,27246.508270085847,27232.069043167718,27259.11465395864,27285.06502927125,27280.102942002173,27269.821139552732,27286.45083742748,27301.96294807946,27320.403137255093,27302.946424835496,27283.612165881656,27302.946424835496,27309.517837705356,27362.46912031998,27400.84706554974,27372.594460558234,27366.671248277577,27362.357361597704,27338.262181074882,27333.16598333907,27328.449765259,27289.24480548439,27247.625857308612,27200.19545557445,27173.14984478353,27154.888469563542,27158.263582976295,27136.18005945445,27138.54934436671,27110.02851844174,27060.765273662244,26995.5205315972,26974.62165053149,26941.71988269328,26908.9522253218,26897.597539138504,26924.106708062496,26942.52454549367,26958.72956022377,26970.888909207453,26956.986124156254,26908.885170088433,26868.56262309106,26866.59566957899,26858.705503786266,26852.178794405318,26887.36044017797,26885.03585875462,26879.42557089634,26857.36439911895,26843.193393134286,26863.824053266533,26862.46059685476,26882.107780230974,26911.790896867624,26899.60919613948,26884.61117560997,26895.36236469297,26911.41091721188,26921.871533616966,26960.00360965772,26995.833456019576,27013.737203328277,27018.36401443053,27024.466040666826,27068.67779119942,27091.32010833265,27096.03632641272,27098.003279924786,27110.117925419563,27101.870131715554,27104.26176837227,27126.948788994407,27177.530786696767,27238.416938593025,27254.420787623025,27289.87065432914,27311.03775632832,27349.92979168055,27357.551736539812,27390.453504378023,27432.43008046509,27459.073359855814,27469.24340358298,27446.95871436104,27454.513603986932,27511.912883748162,27557.97982907055,27590.769838186487,27634.243981152056,27676.75699910605,27711.938644878705,27743.16403188277,27786.749933570616,27787.107561481902,27774.54588109802,27769.44968336221,27762.654753047795,27767.080398449947,27788.605128360407,27837.287227784065,27883.868263228927,27928.23647597271,27959.171290298855,27947.257810504176,27960.28887752162,27986.149845856413,28028.037014965656,28079.446027212864,28103.675318202415,28151.32923738113,28185.23683371983,28204.280519995755,28263.378532335584,28287.004326224844,28315.279282960808,28342.70487340747,28350.70679792247,28412.91170274159,28460.543270175847,28465.527709189384,28467.0699795568,28485.48781698797,28551.31370440885,28601.47101896656,28634.439842038137,28675.030609968977,28745.662122447746,28790.03033519153,28835.09145201343,28845.596771907425,28843.093376528428,28851.497632443625,28876.576289722478,28897.408115554827,28934.042624717073,28977.315601982547,28987.530349198623,29019.60510249199,29064.532108847157,29105.48050468928,29139.835135917085,29159.817595460132,29185.030363205715,29172.043999677182,29175.91085146795,29233.533648673732,29297.07965816017,29353.674275121008,29396.321403541733,29383.223281290924,29392.72277268443,29398.087191353705,29389.72763892742,29405.97735714643,29446.948104733005,29484.588442395743,29511.902274120126,29531.70591970753,29540.35604481173,29585.86419652274,29637.96611284806,29663.692970716118,29650.97482812105,29655.132252589734,29677.3051830894,29697.39940135472,29753.70344563764,29832.560400075963,29875.319287218965,29872.994705795612,29874.648734885304,29899.23565378614,29941.614561273407,29976.438579134774,29986.429808906298,29971.65530582134,29942.486279307162,29958.244259148152,30000.17613174631,30040.409271765864,30056.211955095765,30074.42862682684,30098.09912420501,30129.43626993135,30169.91527913991,30210.975433704312,30240.099756729574,30234.958855504854,30257.489413915806,30293.386315511027,30353.78072902927,30370.72335132639,30363.257868678316,30365.940078012954,30399.73591562938,30428.569665976724,30433.598808479168,30454.542393033793,30455.905849445564,30474.435445599014,30487.578271338734,30498.865902288664,30536.86386786269,30584.67424925259,30619.34180490277,30633.602217865257,30633.512810887434,30677.92572712013,30659.64200015569,30652.690607630087,30664.49232870249,30685.70413419058,30710.201646113594,30734.74386152552,30744.533925596945,30743.908076752195,30764.695199095633,30787.695144140143,30771.087798009852,30761.99063801654,30772.5630131439,30797.216987278105,30798.692202412156,30759.33078042636,30745.293884908428,30749.160736699196,30707.787657712423,30676.78578815291,30689.41452377016,30647.59440989428,30613.798572277854,30610.02112746491,30594.86664472421,30579.980382916976,30592.877339467686,30568.491586266948,30517.93194030904,30504.587948869223,30496.027230742842,30434.247009068375,30413.325776258207,30412.29759601326,30406.55319768825,30353.66897030699,30335.318188109184,30323.695280992426,30293.0510393442,30267.972382065345,30278.812978126167,30300.248301058808,30340.593199800638,30345.15295566952,30321.303644335705,30302.12584759305,30299.533045236236,30308.47374301836,30307.222045328865,30317.034461144744,30301.56705398167,30326.869228705076,30366.185947201964,30359.592182587647,30366.230650690875,30412.07407856871,30430.40250902206,30410.174180290007,30434.761099190844,30449.625009253625,30466.299410617285,30505.347908180705,30556.66751345009,30581.567356773303,30590.396295833147,30596.610080791725,30620.191171192073,30635.032729510396,30649.29314247288,30678.417465498147,30738.186030171637,30800.01095533502,30808.3705077613,30786.912833084207,30810.270406040003,30848.402482080757,30886.06517148795,30930.32162550946,30965.726788726664,30980.121312155883,30962.55284101401,30989.2631756381,31020.153286475335,31032.334987203478,31114.768220754653,31170.53582317064,31202.051782852624,31201.202416563323,31227.242198853757,31275.320801177124,31319.86782787655,31345.90761016698,31361.91145919698,31363.654895264495,31400.199997448923,31419.288387213754,31467.143472092568,31472.37378029511,31486.433027557498,31525.81680128775,31540.18897297251,31588.58049971825,31626.846686225737,31643.096404444746,31654.74166330596,31668.443282657063,31695.46654170353,31735.252646833975,31786.795769547913,31826.470115956083,31858.79073843846,31912.36786989783,31962.32401875544,31966.9955333466,31990.733085958134,32016.14701940382,32032.463792856193,32047.730034319167,32079.469511445706,32117.10984910844,32144.110756410453,32173.682114324823,32231.729594675257,32291.67697330439,32327.30565396615,32330.189029000885,32313.514627637225,32318.700232350857,32365.46008175136,32426.569751092167,32458.7115596189,32473.798987126233,32454.576486894668,32468.836899857153,32510.925234666498,32549.124365940617,32605.517817201355,32665.12991966366,32703.37375442669,32713.342632453758,32733.436850719077,32798.92746197313,32844.5026689175,32871.16830005268,32891.50838750701,32903.757143468516,32953.42271964821,32998.50618821457,33028.189304851214,33027.854028684385,33020.25443556958,33047.79178473852,33089.723657336675,33115.316404738,33135.142402069854,33165.27255359561,33191.40174286386,33205.30452791507,33232.752470106185,33257.62996168494,33280.071113118065,33282.88743291944,33305.172122141375,33349.33916918506,33393.9308993734,33438.835553984114,33489.86458657558,33510.65170891902,33539.932494155466,33549.90137218253,33550.169593116,33573.88479398308,33598.91874777302,33600.349259418166,33637.63196916962,33672.076007375246,33687.85633896069,33713.20321717301,33729.318824925285,33735.97964477297,33761.259467751916,33783.41004650713,33815.52950328941,33847.805422282865,33880.48367267653,33905.629385188746,33932.09385062383,33959.43003409267,33969.33185688637,33985.06748498291,34020.18207552219,34006.25693872654,33997.65151711125,34019.73504063309,34020.31618598893,34048.233514813604,34111.84657953341,34155.09720505443,34144.27896073806,34142.44611769273,34187.976621148184,34218.129124418396,34237.35162464996,34259.59161038299,34281.29515424909,34304.6974306938,34296.98607885672,34269.04639828759,34264.6878081188,34246.44878464327,34183.729789701676,34124.69883259521,34083.683381519724,34091.21591940116,34106.951547497694,34109.23142543214,34114.3499749124,34105.20811143018,34062.091596375896,34026.708784903145,34006.34634570436,33969.42126386419,33951.36105434431,33926.28239706545,33897.06866706236,33887.63623090222,33898.83445487433,33905.60703344429,33907.77515265645,33893.045353060406,33854.91327701965,33826.19128539458,33803.66072698364,33773.39646499115,33789.60147972125,33766.91445909911,33748.183697245564,33721.49571436593,33730.14583947013,33713.22556891746,33716.89125500814,33761.058302051824,33797.71516295853,33818.21171262404,33821.74328824798,33828.22529414002,33844.18443968111,33865.776224824935,33880.55072790989,33880.43896918761,33882.24946048849,33878.33790520882,33880.997762799,33906.36699275577,33934.28432158045,33952.90332471172,33988.263784440016,34045.01486361204,34057.665950973744,34050.87102065933,34061.733968464614,34120.89903603781,34167.90475462732,34211.51300805962,34211.133028403885,34200.6724119988,34228.76855477912,34289.006506086174,34291.46519797626,34330.26782635067,34370.97035300379,34360.19681217633,34359.30274239811,34390.37166719099,34404.90030108694,34435.20926656834,34450.922542920416,34490.59688932859,34551.75126215831,34611.09514368715,34679.89381312059,34718.048240905795,34736.35431961469,34743.50687784039,34733.18037190204,34769.39019791963,34825.426021269086,34860.317094363825,34867.62611480071,34870.06245494634,34873.19169917008,34905.44526641909,34970.93587767314,35004.172921678175,35023.2166079541,35074.89384113477,35107.68385025071,35113.11532415335,35126.749888271086,35145.458298380174,35152.99083626161,35193.358086747896,35249.99740719765,35283.59207911397,35308.51427418164,35341.59485597549,35370.13803364492,35386.56656581957,35409.097124230524,35438.601426911526,35488.66933449142,35514.46324759284,35527.449611121374,35563.30180922768,35605.412495781486,35631.541685049735,35677.98861002787,35702.91080509553,35730.85048566467,35789.054428226285,35838.22826602796,35850.8122981563,35854.45563250251,35869.99009489895,35896.96865045651,35924.68481358109,35974.14922406068,36034.32012013437,36080.74469336804,36140.28974059698,36174.040874724495,36180.25465968307,36225.494590460614,36246.21465757068,36289.398227858335,36325.71981259821,36327.03856552107,36349.94910358776,36420.848837,36486.115930809494,36490.362762256,36484.864233119995,36509.406448531925,36524.426820805886,36541.81647799212,36574.00299000776,36644.12041236406,36693.09308446563,36702.65963109251,36710.527445140775,36703.75486657082,36700.960898513906,36748.36894850361,36773.51466101583,36806.28231838731,36834.2443507009,36848.527115407844,36911.514331282895,36920.477380809476,36904.96527015749,36939.29754964084,36991.913556088635,37037.13113512172,37066.635437802724,37077.72190305256,37105.303955710406,37132.237807779056,37183.93739270418,37193.325125375406,37197.32608763291,37195.8285207544,37198.95776497814,37226.89744554728,37284.00615263059,37321.78060076006,37292.030428890044,37293.148016112806,37318.67370828077,37324.753382772615,37326.13919092884,37353.16244997531,37380.14100553287,37404.12442733341,37455.913419236356,37510.786951874135,37498.02410579015,37494.80545458859,37546.6615017249,37590.895604001955,37606.96650826532,37618.500008404255,37633.36391846704,37608.10644723254,37617.85180781505,37675.83223293212,37733.11975397107,37736.89719878402,37782.40535049503,37798.20803382493,37835.75896450984,37871.14177598259,37880.75302609838,37897.650944906585,37891.571270414745,37874.91922079554,37885.983334300916,37911.1961020465,37930.373898789156,37963.856811983205,37972.462233598504,37992.80232105283,38051.69916769257,38119.42495339215,38149.063366539885,38153.041977052926,38170.87866912826,38193.431579283664,38250.830859044894,38259.72685333811,38255.43531840269,38270.276876721015,38252.864867790326,38251.72492882311,38266.633542374795,38263.92898129571,38262.47611790611,38265.13597549629,38222.69001277567,38178.88059364326,38147.56579966137,38115.66986032365,38064.484365521,38040.61270244273,38001.45244615703,37945.193105363025,37921.05322135129,37914.280642781334,37918.840398650216,37939.22518959346,37918.92980562804,37905.45170372149,37893.538223926815,37842.24097040188,37816.491760789366,37819.10691489064,37796.66576345751,37767.42968170997,37716.55711132969,37716.19948341841,37743.62507386507,37773.44230096845,37792.70950468892,37801.85136817114,37786.96510636391,37796.19637682395,37808.28867057427,37813.80955145473,37819.33043233519,37808.445132785455,37790.58608896567,37790.60844071012,37789.42379825399,37814.457752043934,37850.175839683514,37862.15637471156,37874.20396497297,37898.50031119589,37909.78794214582,37905.36229674367,37893.71703788245,37873.44400566149,37852.36631064014,37872.01349401635,37919.86857889516,37977.73724528995,38056.05775786135,38084.82445297533,38118.62029059175,38147.588151405835,38185.31789604639,38190.68231471566,38224.7240215211,38261.85026906136,38272.46734767763,38315.650917965286,38359.34857837541,38391.915070046794,38426.29205301905,38458.32210282351,38464.982922671195,38463.46300404823,38465.18408837129,38484.5854025585,38491.402684617366,38509.775818559625,38520.37054543144,38589.86211894299,38627.860084517015,38625.80372402713,38660.27011397721,38699.877405152016,38755.75676629028,38801.242566256835,38829.9645578819,38846.750717967836,38814.74301990784,38827.75173518083,38865.63794203257,38887.40854113204,38931.91086434256,38974.401530552095,39021.09432471923,39081.86871789321,39125.45461958106,39143.24660816749,39187.03367555543,39233.81587670039,39246.80224022892,39247.94217919614,39282.7214935686,39334.711651171645,39340.590159963394,39346.20044782168,39378.27520111504,39400.626945570344,39441.597693156924,39505.47897881019,39579.753825635176,39608.051134115594,39614.86841617447,39684.42704491938,39754.8350399536,39791.40249388248,39828.88636933403,39846.857171876094,39870.41591053199,39925.71412631442,39985.66150494355,40020.55257803829,40067.11126173869,40118.87790189718,40128.48915201297,40152.04789066886,40168.49877458796,40192.05751324386,40226.83682761632,40273.57432527236,40316.75789556002,40362.42250948221,40373.486622987584,40381.51089924704,40439.87130401985,40492.37555174536,40510.25694730961,40578.09449173147,40616.38302998341,40626.39661149938,40626.486018477204,40640.23234131722,40663.63461776193,40694.41296987688,40755.1203078175,40779.394302295965,40804.070628174624,40844.192009471895,40873.60690517508,40900.78662643273,40940.25980714081,40978.973028537395,41015.80870339974,41011.22659578641,41012.00890684234,41058.00879693137,41084.42855887754,41099.225413706954,41109.79778883431,41118.69378312752,41104.94746028751,41125.06403029728,41169.65576048562,41210.224176672,41213.55458659585,41247.283368978904,41301.28518358293,41336.288015399936,41372.05080652843,41402.695048176654,41418.72124895111,41456.450993591665,41481.37318865934,41504.50724417058,41533.60921545139,41565.79572746703,41605.62653608639,41634.61674864492,41693.33478132901,41725.07425845555,41731.623319580955,41729.321089902056,41713.20548214978,41758.26659897168,41824.56187302612,41849.59582681606,41857.19541993087,41870.56176311514,41854.870838507515,41839.068155177614,41853.59678907356,41893.047618037184,41931.224397566846,41964.79671773872,41965.57902879465,41949.329310575646,41985.85206101562,42025.14642776804,42010.50603514982,42012.093009006145,42033.3718697276,42049.46512573542,42100.38239960461,42130.53490287482,42149.91386531757,42189.454101259005,42236.929206482084,42272.35672144374,42265.76295682943,42260.51029688243,42296.51895719993,42333.17581810663,42351.19132413761,42347.50328630248,42325.26330056945,42345.0445944124,42348.24089386951,42334.96395766306,42326.78321919242,42345.2457601125,42354.298216616895,42345.11164964577,42335.18747510761,42340.41778331015,42339.00962340947,42333.91342567366,42354.07469917234,42332.013527394956,42286.61713440623,42258.40923290363,42219.89717720714,42199.06535137479,42176.71360691948,42134.66997559905,42101.41057984955,42081.11519588414,42047.45346873444,42051.56618971422,42043.22898903239,42014.194072984945,41986.07557846017,41996.40208439852,41995.64212508704,41980.66645630199,41934.82302842415,41925.43529575292,41962.27097061527,42005.54394788074,42011.28834620576,42008.20380547093,42039.31743375271,42048.861628635124,42061.870343908115,42064.597256731664,42021.748962610836,42040.479724464385,42081.09284413968,42094.97327744643,42100.20358564897,42105.61270780715,42140.168504735055,42165.06834805827,42197.74659845193,42195.466720517485,42201.0099531424,42230.156627912125,42247.54628509835,42264.31009343983,42297.41302697814,42340.66365249916,42325.28565231391,42340.90952168817,42373.0513302149,42415.65375514672,42484.58653504688,42529.781762335515,42555.46391671466,42563.823469140945,42574.597009968405,42605.17419638326,42658.05842376452,42697.33043877249,42725.00189840817,42778.51197463417,42834.41368751689,42868.276580366684,42899.457263881835,42917.38336293499,42956.65537794297,43023.77766654226,43090.85525165263,43118.19143512147,43137.95037721996,43169.33222643522,43189.00176155588,43196.06491280376,43220.204796815495,43288.24350693745,43356.43867927059,43391.93324946562,43411.625136330746,43471.818384148886,43520.16520740571,43563.97462653812,43623.720839467154,43668.670197566775,43736.08305884398,43813.84477780399,43895.383941576954,43984.07566357561,44013.19998660088,44061.770327302256,44146.95282542144,44195.25494518935,44245.30050102479,44322.63753684015,44368.63742692917,44410.63635476069,44442.2417214205,44482.56426841787,44551.87702797378,44651.655215222265,44757.446021729236,44854.83257232101,44915.47285502826,44957.40472762641,45036.41814427592,45159.1068695911,45225.826826790195,45258.840353350686,45300.146377104094,45356.51747662038,45399.23166027447,45446.952634686546,45517.71825763205,45586.852203232316,45639.758782358025,45666.402061748755,45684.68578871319,45717.85577748487,45790.074263819966,45823.15484561382,45825.233557848165,45857.42006986381,45877.93897127378,45890.83592782449,45918.32857350452,45958.2487891017,46018.28557470865,46075.84131668107,46119.02488696872,46144.46117215886,46171.976169583344,46204.74382695482,46228.83900747765,46237.73500177086,46257.67275782499,46287.892316328565,46323.69981094597,46352.332395593214,46356.24395087289,46358.38971834061,46378.3945296281,46376.51698309386,46330.606499982656,46322.22459581192,46368.783279512325,46399.42752116055,46398.86872754917,46383.35661689718,46377.232238916426,46391.06796873426,46442.52168447038,46434.92209135558,46432.128123298666,46445.29330078284,46438.38661174615,46438.92305361308,46432.35164074322,46442.36522225919,46471.37778656218,46498.51280433092,46467.57799000478,46460.358376545715,46486.39815883615,46505.01716196742,46493.72953101749,46486.46521406952,46486.33110360278,46478.48564129897,46472.67418774059,46482.8218797233,46501.21736541002,46517.95882200704,46521.49039763098,46495.58472580728,46471.24367609545,46469.81316445031,46494.66830428461,46514.27078417192,46501.23971715447,46499.80920550933,46504.39131312267,46470.72958597298,46444.30982402681,46463.644082980645,46474.059995896816,46499.988019464974,46522.74209532048,46530.72166809102,46544.803267097865,46531.77220008042,46514.02491498291,46471.53424877337,46441.44880073653,46404.03198051834,46392.342018168216,46379.534468595324,46363.57532305424,46334.60746224016,46286.64061863907,46232.8623214796,46140.393154667996,46089.341770332074,46073.136755601976,46044.54887444364,45997.0067139872,45915.31108800305,45845.59599704695,45785.1568800398,45745.01314699807,45696.9345446747,45678.60611422135,45658.646006422765,45610.99208724405,45595.0105899585,45575.519868793475,45539.15358056469,45523.23913851251,45508.397580194185,45456.92151271361,45434.90504442514,45396.348285239736,45380.43384318756,45382.46785193299,45369.48148840445,45344.15696193659,45302.0909788717,45276.34176925919,45262.930722586,45259.75677487335,45225.826826790195,45194.80260548623,45196.5683932982,45219.747152298354,45241.38364093109,45266.171725532025,45271.692606412485,45280.5886007057,45265.52352494282,45243.372946187614,45221.11060871013,45195.629620031075,45192.52272755179,45223.21167268892,45244.44582992147,45256.582827160695,45297.57592649173,45314.42914181103,45332.66816528657,45354.952854508505,45403.90317486563,45469.01380646394,45530.30228976039,45565.796859955415,45578.69381650613,45621.07272399339,45643.80444810444,45672.32527402941,45715.59825129488,45754.758507580584,45799.68551393575,45861.39868037685,45904.96223032025,45927.582195709016,45980.354664367995,46031.54015917065,46053.73544141477,46160.06268978867,46250.87782751058,46301.61628742413,46357.7415177514,46410.290468965824,46449.22720780697,46501.48558634348,46511.946202748564,46545.31735722034,46624.53193956995,46688.7708531345,46749.567598052934,46821.47315996566,46888.79661426504,46979.522345009136,47099.6182679675,47162.20315244236,47184.063158519646,47268.77627000526,47373.36008231164,47480.71551093048,47565.0262910159,47651.50519031348,47757.4748107761,47927.415123869796,48169.75273725423,48455.20686569296,48842.450838381155,49209.891165481946,49538.685326419516,49912.406493712246,50309.93226884989,50717.695142948054,51069.28808323003,51396.294104611174,51672.18168642303,51865.16664805015,52050.529664818016,52173.30779711101,52274.851772171474,52385.06822408059,52460.460658128344,52522.97848736984,52553.443915062424,52556.39434533052,52544.3020515802,52538.08826662163,52548.772400471265,52558.24954012031,52545.44199054742,52504.515946449756,52468.350823921064,52455.923254003916,52432.923308959405,52361.487133680246,52314.771987768654,52274.516496004646,52209.53997487306,52148.49736076562,52113.98626732663,52073.21668544015,51960.78741082995,51864.38433699421,51768.29418758085,51696.41097741258,51646.70069774398,51589.59199066067,51541.088705192655,51513.37254206807,51460.10833503107,51381.474898037304,51334.69269689235,51269.15738214939,51214.50736695616,51179.34807292796,51127.49202579165,51090.186964295746,51085.984836338146,51056.5028854016,51029.345515888395,50993.202745104165,50939.2232822446,50855.80657193739,50832.001964092495,50802.564716644854,50744.58429152779,50672.83519182625,50612.37372307465,50574.01812958934,50515.881242261086,50463.93578814695,50417.04182827972,50394.511269868766,50385.5929238311,50349.91953968043,50317.80008289815,50316.05664683064,50297.817623355106,50261.65250082642,50246.90034948592,50248.57673032007,50244.553416318115,50215.116168870474,50188.629351690935,50162.92484556733,50100.33996109247,50053.267187269594,50034.84934983842,50038.20211150672,50039.83378885195,50009.97185825966,49962.45204954768,49899.01779878352,49862.11506868781,49814.394094275725,49777.73723336902,49764.72851809604,49762.18041922813,49757.30773893687,49730.642107801694,49708.17860462411,49712.1348633927,49733.65959330316,49722.59547979778,49694.65579922865,49718.616869284735,49732.60906131376,49716.15817739465,49680.30597928834,49638.575272390284,49560.768849941356,49502.27433470182,49495.41234915404,49467.27150288481,49400.50684219681,49312.06098938716,49216.663744051904,49160.96319686928,49116.5949841255,49073.25495162666,49056.66995724082,49062.54846603257,49047.282224569586,48986.64194186234,48952.756697268094,48940.44088607322,48901.1912228097,48859.57227463392,48827.18459691818,48824.077704438896,48824.16711141671,48810.80076823244,48843.993108748575,48851.36918441882,48858.320576944425,48877.85600159836,48877.408966709256,48858.186466477695,48809.81729147641,48774.85916314831,48775.127384081774,48767.17016305568,48783.6657504637,48842.89787327026,48847.52468437251,48855.34779493187,48869.988187550094,48891.11058606036,48906.39917926779,48906.60034496789,48924.63820274332,48907.472063001645,48901.41474025426,48901.101815831884,48916.09983636139,48942.20667388519,48979.467031892185,49029.75845691663,49082.35211161996,49117.600812625984,49140.958385581784,49140.64546115941,49132.33061222203,49106.13436772041,49141.47247570426,49198.22355487628,49230.857101781025,49273.504230201754,49324.399152326485,49371.09194649362,49411.0121620908,49498.45218639996,49604.98060047396,49666.336139003775,49687.50324100295,49711.66547675914,49711.3302005923,49702.344799321276,49699.72964522,49726.21646239954,49713.14069189319,49747.137695209705,49784.889791594724,49791.72942539804,49809.90139364021,49851.319176115896,49875.81668803891,49884.13153697629,49894.18982198118,49906.30446747595,49903.48814767458,49922.129502550306,49998.259544165085,50145.84811280348,50423.9038138275,50891.345845621334,51476.04512882771,52120.580031940946,52758.34235648422,53377.21745696276,53902.975190040495,54324.99847710115,54596.0357303662,54787.09844197016,54912.69289406454,54952.166074772605,54967.9240546136,54992.75684270345,54978.49642974096,54958.603377175736,54920.13602496815,54880.08169890424,54849.92919563403,54809.94192480349,54764.4784765814,54732.76135119932,54683.43105118645,54632.33496336162,54635.08422792963,54616.4428730539,54556.18257000239,54489.0602814031,54487.38390056895,54488.72500523627,54466.95440613681,54485.372243567974,54461.29941478961,54420.97686779224,54381.4366318508,54374.70875676975,54351.39588730287,54284.340653936946,54284.184191725755,54260.04430771402,54214.558507747475,54203.226173308634,54211.04928386799,54202.08623434141,54193.234943537114,54165.831704834905,54150.85603604985,54176.96287357365,54212.68096121323,54215.22906008113,54227.991906165116,54231.88110970034,54240.44182782672,54216.167833348256,54201.61684770785,54200.365150018355,54215.13965310332,54149.22435870461,54124.88330899279,54130.47124510661,54116.546108310955,54092.7191487216,54114.89207922126,54149.5819866159,54269.432040385254,54393.752443045676,54532.646183090954,54776.30254939825,55111.7575301835,55444.30678418956,55736.89111910953,56037.23150935549,56314.03551269001,56528.1428728274,56722.37953214402,56940.17493011653,57208.39586358021,57501.963675256215,57833.21652808387,58201.66268368515,58591.432403496794,58978.96694886291,59417.95520996514,59904.08330012361,60350.06765724035,60759.819836595045,61128.75773057434,61456.657821733694,61790.86110482945,62098.15288760101,62333.18148054856,62539.13045395976,62716.73741540163,62870.182141087316,62940.61248786599,63012.04866314515,63064.038820748196,63062.831826547605,63061.62483234702,63008.4723840323,62963.143046276935,62892.73505124272,62857.4863502367,62847.20454778726,62852.59131820099,62859.118027581935,62867.030545119116,62843.1365302964,62805.51854437811,62810.882963047385,62816.47089916121,62801.00349199814,62814.57100088251,62795.795535540055,62760.63624151186,62754.84713969793,62766.7159160037,62770.98509919466,62788.39710812535,62782.09391618895,62690.65292962229,62527.79811952092,62346.52547198838,62164.090533744165,61999.581694553104,61815.78329989711,61613.16473640976,61398.029196027426,61185.419402768544,60973.83778975461,60724.81700477803,60480.110106481334,60236.319629707294,59998.76528963629,59788.2118568673,59555.306679643,59321.39567391821,59130.89175592563,58905.474413093856,58657.37004963995,58390.51257258804,58114.96026694302,57898.59538061564,57669.825276115575,57447.023087385074,57244.31511691989,57035.8627481297,56843.97302198089,56648.730534163784,56432.008019925124,56211.798633551436,56027.41909353961,55861.904425848064,55689.013682486264,55560.9158350129,55443.88210104491,55321.9086315523,55212.07215929892,55095.70897766459,54974.07078433881,54840.42970424053,54704.37463574108,54525.9183080099,54400.10033847098,54294.71186336421,54195.403062749276,54108.38772158477,54009.32479015885,53920.34249548227,53852.773171993875,53789.60714216318,53734.5324438253,53710.370208069115,53645.61720438209,53602.7018550279,53569.33070055613,53485.31049314863,53334.056238419565,53199.275219354065,53087.136517421786,53012.034656051954,52927.20978584407,52827.275136384385,52730.2462137039,52635.54187244677,52544.9502521694,52497.944533579896,52420.94277393136,52317.990638970216,52247.00149858016,52193.04438746505,52127.46436923318,52080.88333378832,52049.2332636396,51992.638646678766,51952.13728572575,51915.435721330134,51884.41150002617,51846.90527283016,51791.16002215863,51757.05126011983,51783.806298232834,51778.285417352374,51767.601283502736,51742.79084715735,51732.352582496715,51699.71903559197,51692.63353259963,51713.621820643166,51751.798600172835,51754.100829851726,51771.42343180459,51784.856830222234,51821.04430449537,51822.87714754071,51787.96372270152,51779.85003946425,51802.96174323103,51806.96270548853,51806.40391187715,51815.16579570363,51825.69346734208,51840.19974949357,51816.663362582134,51803.744054286966,51839.23862448199,51827.0345720094,51802.04532170836,51775.37969057318,51745.67422219208,51741.40503900112,51766.10371662423,51765.05318463483,51756.00072813043,51780.56529528681,51810.78485379039,51844.625394895724,51875.31434003286,51901.041197900915,51955.579454371866,51987.98948383206,52010.00595212054,52061.6384818123,52090.4945839041,52089.60051412589,52110.566450424965,52130.5042064791,52130.23598554564,52140.22721531716,52169.2621313646,52174.00070118913,52152.721840467675,52148.519712510075,52155.04642189103,52181.89086698185,52186.45062285074,52182.87434373789,52186.920009484296,52227.55548090404,52275.567027994046,52307.82059524305,52303.171432396346,52289.805089212074,52296.532964293125,52319.957592482286,52339.58242411404,52363.11881102548,52418.66289599692,52494.21179225586,52542.02217364576,52567.12318266907,52599.19793596243,52648.170608064014,52661.29108205928,52692.02473068533,52734.381286428135,52773.98857760293,52833.69008704306,52867.59768338176,52890.37411098172,52902.153480309666,52929.28849807841,52971.01920497647,53024.909260858214,53095.74193903708,53150.83898911942,53195.140146629834,53248.78433332257,53314.45375853226,53365.95217775729,53392.81897459257,53434.77319893518,53444.71972521779,53499.54855436666,53556.41139226096,53571.45411627938,53598.164450903474,53607.28396264124,53601.69602652741,53667.87954185958,53729.86092923414,53774.31854895575,53781.87343858164,53736.231176403904,53676.77553615279,53646.824198582675,53619.15273894701,53591.77185198926,53543.782656643714,53445.01029789571,53387.14163150092,53336.67139252084,53275.38290922438,53232.24404242564,53171.17907657374,53055.21822633961,52937.312774337865,52852.33144191879,52766.41133623259,52663.347442549166,52548.63829000453,52443.80860850914,52335.44735138981,52269.129725590916,52250.82364688202,52227.68959137078,52193.692588054255,52205.20373644874,52226.28143147009,52240.78771362158,52280.90909491886,52329.99352574271,52391.77374741719,52421.97095417631,52468.999024510274,52565.29033962373,52684.9839311819,52791.1100138557,52837.17695917809,52908.009637356954,53028.127912059776,53172.09549809641,53325.89785169338,53433.85677741251,53521.87794707751,53662.04573655674,53791.61879916416,53897.05197775984,54003.558040089374,54132.43819861868,54332.19573881576,54661.36987940907,55122.86634717779,55711.85716531958,56419.96042966371,57234.010962725995,58033.73402759243,58760.903329956935,59420.1233291773,59991.76919362178,60537.06235135345,61016.30610421969,61435.58012671234,61811.89409636189,62102.33266381415,62312.84139309423,62472.43284850512,62556.38600067926,62549.59107036485,62535.46476786909,62526.27820089796,62502.25007560851,62461.86047337777,62397.9791877245,62314.741291372935,62231.52574676582,62185.70467063245,62142.74461778934,62029.75654956777,61925.53036517267,61895.06493748009,61836.637477473916,61794.057404286556,61722.956505174225,61631.314352907466,61600.04426241449,61541.48269194159,61455.45082753311,61377.06325972835,61291.25491276442,61237.230746415946,61189.77799293733,61160.81013212325,61099.923980226995,61032.7569881388,60957.72218200233,60879.11109675302,60863.53193086767,60817.979075667754,60739.72561832972,60664.601405215435,60634.44890194522,60571.9981279371,60528.16635706024,60509.45794695115,60492.73884209858,60489.69900485266,60498.79616484597,60492.78354558749,60480.110106481334,60463.21218767312,60469.09069646487,60438.89348970575,60424.67778023217,60426.95765816661,60415.312399305396,60393.25122752801,60374.92279707466,60354.60506136478,60333.08033145432,60330.86750875325,60309.096909653774,60282.81125817433,60294.79179320238,60323.35732261626,60327.58180231832,60322.530308071415,60305.07359565182,60305.45357530756,60337.59538383429,60359.56714863386,60360.17064573415,60370.363041205776,60339.96466874656,60329.05701745237,60320.719816770536,60294.52357226892,60280.21845581752,60279.77142092842,60287.97451114351,60287.95215939906,60305.207706118556,60340.72462805804,60360.68473585662,60428.34346632284,60452.550405567934,60411.08791960334,60401.36491076528,60444.794350241944,60474.18689420068,60497.76798460102,60482.434687904686,60483.462868149625,60523.96422910265,60546.91947065824,60536.391799019795,60549.44521778169,60583.95631122069,60632.83957634444,60673.407992530825,60673.139771597365,60674.72674545369,60687.51194328212,60719.16201343084,60771.53215068962,60789.5476567206,60777.5447699481,60817.062654145084,60855.172378441384,60873.09847749454,60919.16542281693,60933.761111946245,60960.42674308142,61029.56068868169,61090.4691923224,61159.64784141158,61209.55928678028,61212.50971704838,61235.24144115942,61270.17721774307,61296.95460760053,61331.13042487269,61360.81354150934,61402.23132398503,61425.633600429726,61445.772522183965,61501.003682733026,61570.986994622595,61622.99950397009,61663.23264398964,61688.60187394642,61712.16061260231,61747.83399675298,61754.31600264502,61787.01660478314,61822.80174765608,61798.28188398861,61759.658069569836,61749.51037758713,61719.62609525039,61747.31990663051,61814.21867778524,61836.704532707285,61822.2429540447,61783.82030532602,61779.64052911288,61792.939817063794,61789.788221095594,61747.83399675298,61705.566847988,61682.611606432394,61655.275422963554,61605.7439572506,61608.71673926315,61636.52230936555,61635.40472214279,61642.289059435025,61627.62631507234,61612.58359105392,61601.89945720428,61615.95870446667,61643.49605363561,61654.69427760772,61661.89153932233,61688.44541173523,61698.2131240622,61719.939019672755,61768.03997374058,61814.50925046316,61839.58790774202,61852.149588125896,61854.451817804795,61876.356527371,61929.44192045235,62005.21433415584,62017.686607561904,62044.08401776362,62120.79520473423,62144.84568176814,62144.84568176814,62182.038984541774,62218.85230765967,62263.75696227038,62324.64311416663,62419.10158623476,62494.31520632687,62545.165424962695,62591.14296330726,62652.789074515,62744.94531690423,62808.53602987958,62804.244494944156,62814.5262973936,62889.27053085215,62974.74360164924,63071.169027229436,63136.74904546131,63207.17939223998,63290.70786126946,63396.31985382079,63456.26723244992,63496.85800038076,63538.56635553436,63612.26005700351,63727.259782226065,63799.0088819276,63860.364420457416,63918.14367987439,63941.32243887454,64010.43403273035,64063.25120487824,64125.813737608645,64153.66401119996,64197.51813382127,64263.67929740898,64319.84923122516,64382.88115058913,64460.03937244885,64528.92744886011,64606.10802246428,64660.80274114642,64712.502326071546,64787.47007697464,64869.52333087008,64941.27243057161,65015.39081518541,65101.08740342706,65205.87238143354,65309.092737328145,65395.75045058137,65458.40239028959,65516.74044331795,65594.45745878905,65677.56124467388,65735.7651872355,65775.43953364367,65850.89902292479,65942.317657747,66052.95879280077,66191.96429156832,66269.94952797289,66303.41008942248,66342.68210443045,66447.1318062701,66528.31334213178,66586.7184503935,66659.47337859552,66766.20295836961,66839.82960460539,66918.32893113243,66989.2063128002,67024.65617950633,67053.57933683149,67096.24881699668,67163.81814048508,67250.98994386077,67341.02277052675,67410.49199229384,67489.01367056533,67560.53925282232,67560.47219758896,67605.51096266639,67657.14349235815,67674.28728035538,67710.31829241733,67767.06937158936,67832.60468633231,67910.29935005897,67953.12529243533,67973.80065605648,68016.06780482148,68049.59542150443,68116.18126823679,68160.28126004711,68210.103298438,68285.67454644138,68321.21382012533,68338.91640173392,68387.88907383551,68462.47684508287,68558.07525611822,68611.11594571066,68636.88750706763,68687.15658034761,68754.65884860264,68829.91717218366,68888.74696359002,68912.2162952681,68952.56119400993,69019.5940756314,69073.01474487958,69105.42477433977,69157.45963543173,69200.62085397492,69216.088261138,69212.46727853623,69248.85591850948,69289.02200329567,69315.39706175293,69348.16471912441,69387.54849285466,69449.46282499586,69485.24796786881,69498.52490407525,69541.55201215172,69581.15930332652,69597.25255933435,69620.07369042322,69631.67424579553,69666.87824331263,69671.90738581508,69636.16694643104,69653.35543791717,69695.51082795988,69737.64386625813,69757.40280835662,69777.29586092185,69790.88572155067,69813.68450089509,69838.27141979593,69880.11388541626,69896.94474899111,69908.83587704133,69923.16334523718,69925.48792666053,69911.60749335379,69869.36269633326,69871.68727775662,69860.19848110658,69822.1334602992,69815.09266079577,69812.0751752943,69777.00528824393,69742.67300876058,69679.48462718542,69646.96283900295,69614.70927175395,69598.83953319068,69560.03690481627,69531.20315446892,69527.47041314488,69490.05359292669,69437.68345566791,69413.49886816727,69416.82927809111,69404.51346689624,69369.33182112359,69336.43005328537,69377.60196657205,69385.08980096458,69349.97521042528,69323.24252405674,69341.95093416583,69352.50095754873,69354.06557966062,69337.99467539725,69342.06269288811,69352.03157091518,69399.14904822696,69402.56886512862,69421.79136536019,69426.75345262927,69455.56485123216,69501.58709306564,69548.32459072168,69572.6209369446,69574.4761317344,69605.0309664048,69604.29335883778,69617.83851597768,69665.38067643413,69691.66632791357,69753.3124391213,69778.74872431144,69793.14324774066,69830.62712319221,69873.20719637958,69937.51316517749,69983.2224825886,70028.90944825525,70068.09205628539,70085.72758266063,70106.31353930397,70123.7478999791,70146.43492060124,70150.83821425894,70195.04996479154,70285.32866064653,70354.14968182442,70391.0077084312,70400.8201242471,70442.50612765625,70466.9812878348,70489.98123287932,70523.59825654009,70567.11710299458,70562.17736746995,70571.92272805246,70588.12774278257,70608.28901628125,70638.59798176265,70672.77379903481,70701.7863633378,70747.87566040465,70815.82496354877,70831.47118466749,70867.9268798741,70903.44380181358,70925.01323521296,70931.58464808282,70962.22888973104,71040.34823660234,71071.10423697284,71075.73104807509,71095.17706575121,71140.90873490677,71189.99316573062,71232.0144453066,71246.02898908008,71243.86086986792,71274.14748360486,71332.55259186657,71358.01122880116,71356.87128983394,71396.85856066449,71447.97700023378,71473.74856159075,71531.39371054099,71572.45386510537,71619.81721160618,71677.03767741176,71753.81591961574,71787.20942583197,71799.23466434893,71841.99355149193,71878.80687460981,71916.8718954172,71937.10022414925,71967.74446579748,71989.55976838587,72068.48377805755,72156.4825959781,72217.63696880781,72258.07127452746,72324.7688799821,72390.8853400809,72439.56743950456,72504.63336761396,72569.09579862306,72619.87896202553,72661.98964857933,72727.4132046,72776.4752836794,72836.71323498646,72914.78787836885,72946.6167624732,72989.19683566056,73060.07421732834,73103.7048225051,73141.25575319001,73232.24970486757,73286.47503691615,73317.34279600893,73352.30092433703,73418.46208792474,73493.51924580566,73578.83585439157,73670.9920967808,73723.27282706175,73718.02016711477,73724.41276602898,73759.10267342361,73806.55542690223,73856.84685192668,73925.95844578248,74042.90277277265,74087.91918610563,74143.82089898836,74198.38150720377,74271.85169122835,74326.68052037722,74366.77954993004,74408.24203589464,74445.79296657955,74472.30213550355,74513.74226972369,74549.28154340763,74595.54965443011,74639.94021891836,74684.3754868955,74734.28693226421,74752.95063888439,74788.89224396853,74813.03212798026,74821.63754959554,74848.63845689756,74858.40616922453,74873.85122464315,74886.5246637493,74930.71406253744,74962.83351931973,74986.61577542017,75029.21820035198,75014.28723505583,75035.78961322184,75078.41438989811,75119.20632352906,75168.02253341944,75215.72115608706,75264.38090376627,75271.0193718695,75294.37694482529,75347.81996581794,75364.67318113723,75349.1387187408,75304.61404378583,75305.64222403076,75342.27673319301,75357.29710546698,75332.26315167703,75317.01926195851,75326.69756730767,75325.60233182936,75333.73836681109,75359.93461131271,75344.5789628719,75301.77537224,75237.46940344208,75217.44224041012,75213.91066478619,75228.12637425977,75243.37026397829,75235.4577464411,75195.20225467709,75184.38401036072,75207.2051414496,75226.67351087017,75230.24978998302,75251.19337453763,75289.3701540673,75313.46533459012,75333.47014587763,75342.2320297041,75361.49923342458,75399.2960332985,75441.42907159675,75469.34640042143,75506.33853749497,75548.6280380044,75561.07795966601,75567.80583474707,75567.06822718003,75609.0448032671,75676.27885058867,75730.0794994926,75735.53332513968,75730.37007217051,75760.25435450725,75777.82282564913,75804.42140155094,75908.58053071267,75986.00697350585,76029.97285484945,76100.1573324391,76145.24080100546,76177.96375488803,76198.19208362009,76228.9927874795,76293.94695686662,76390.26062372453,76480.91929923526,76548.4215674903,76622.71876605973,76665.32119099156,76705.44257228883,76725.58149404306,76759.15381421492,76821.53753298969,76891.58790011262,76952.3622932866,77039.82466934022,77093.29004207731,77147.78359505936,77224.40537505214,77265.39847438318,77302.07768703434,77346.80352768941,77358.98522841754,77364.81903372039,77404.4710283841,77458.38343601029,77510.91003548026,77529.86431477837,77580.24514678064,77598.84179816744,77603.33449880297,77634.44812708475,77684.9854212982,77727.47608750773,77762.85889898048,77809.90932105892,77864.62639148551,77891.42613308741,77914.135505454,77941.22581973384,77942.00813078978,77932.06160450717,77946.52318316975,77971.93711661543,77992.09839011412,77971.35597125959,77959.24132576481,77952.0440640502,77968.6067066916,77992.29955581421,78012.88551245755,78025.64835854154,78021.75915500631,77958.92840134245,77912.70499380887,77920.61751134605,77953.89925884,77932.21806671836,77935.01203477527,77929.62526436154,77914.69429906539,77898.95867096886,77911.67681356393,77933.69328185241,77925.31137768166,77928.46297364986,77950.52414542725,77977.61445970708,77974.68638118343,77952.66991289495,77941.11406101157,77906.46885710584,77907.54174083969,77886.79932198516,77890.0403249312,77925.42313640394,77924.03732824771,77883.08893240559,77887.82750223011,77915.25309267678,77920.28223517921,77915.11898221004,77882.3289730941,77889.21331038635,77900.12096168053,77889.4815313198,77870.99663865527,77884.34063009509,77854.23283031379,77850.76830992321,77848.8237081556,77811.27277747069,77815.87723682848,77815.60901589501,77832.75280389223,77869.34260956557,77876.02578115772,77871.24250784428,77863.79937694066,77852.26587680171,77835.32325450459,77852.60115296855,77884.16181613944,77908.03347921772,77878.90915619244,77815.92194031739,77769.56442231708,77775.28646889764,77801.81798956609,77776.53816658714,77781.94728874533,77801.86269305501,77824.3708997215,77827.03075731167,77850.05305410064,77874.81878695713,77884.49709230628,77897.79638025718,77943.05866277918,77976.89920388452,77982.9565266319,77969.29961076971,77951.01588380526,77922.2938921802,77925.8478195486,77939.30356971068,77891.60494704306,77867.39800779796,77881.32314459363,77864.84990893006,77846.67794068789,77842.58757145258,77838.9218853619,77874.21528985683,77885.4805690623,77851.64002795696,77812.52447516019,77788.94338475984,77768.11155892749,77741.69179698132,77686.55004341007,77634.20225789574,77590.90692888582,77570.07510305347,77545.08585275244,77497.90132020728,77449.24157252807,77424.20761873813,77408.20376970814,77355.20778360461,77328.27393153595,77329.05624259189,77316.15928604118,77292.19821598509,77300.2895474779,77302.3906114567,77270.06998897434,77249.79695675337,77267.09720696179,77293.6957828636,77295.46157067557,77297.62968988773,77286.81144557137,77316.27104476346,77325.21174254558,77327.6033792023,77294.96983229755,77286.54322463789,77288.10784674977,77262.69391330409,77288.04079151641,77276.37318091073,77284.68802984811,77294.12046600824,77299.88721607771,77302.63648064571,77292.08645726282,77275.72498032152,77280.73177107952,77271.7910732974,77289.22543397253,77325.0999838233,77336.63348396224,77365.62369652078,77365.48958605404,77355.69952198262,77335.15826882819,77365.82486222088,77364.57316453138,77349.66455097968,77376.15136815922,77411.31066218742,77436.34461597736,77441.7313863911,77435.45054619915,77445.2853137595,77431.78486010848,77407.08618248536,77399.53129285948,77402.48172312758,77423.04532802646,77426.84512458387,77456.57294470942,77465.3795320248,77459.88100288881,77446.76052889354,77435.13762177678,77458.20462205466,77470.31926754944,77447.8781161163,77481.24927058807,77514.1957419152,77549.39973943231,77561.89436458283,77536.65924509279,77555.94880055772,77582.32385901497,77583.24028053765,77566.2082512627,77571.4609112097,77580.17809154726,77552.81955633397,77513.12285818135,77517.01206171657,77577.47353046818,77608.29658607204,77645.33342663449,77635.02927244059,77597.00895512212,77599.98173713467,77633.1740776508,77654.11766220542,77670.90382229135,77707.58303494252,77738.87547717994,77735.70152946729,77725.46443050676,77722.33518628302,77722.71516593876,77750.11840464096,77813.77617284968,77855.46217625884,77866.21336534183,77880.67494400442,77865.05107463016,77893.10251392156,77912.68264206442,77993.8641779261,78034.79022202376,78049.1176902196,78062.19346072596,78059.13127173559,78042.76979479431,78087.96502208294,78152.85213623669,78156.78604326083,78167.49252885491,78139.86577270816,78119.6374439761,78117.7375456974,78096.14576055357,78122.40906028856,78139.95517968597,78140.78219423082,78134.3448918277,78123.72781321143,78112.57429272823,78145.25254312188,78193.04057276734,78202.98709904995,78199.32141295927,78210.96667182048,78226.50113421693,78218.4098027241,78249.67989321708,78259.00057065494,78208.73149737496,78164.2515259089,78148.00180768989,78145.25254312188,78140.37986283062,78135.50718253937,78157.97068571695,78141.45274656448,78128.0864033802,78148.47119432344,78175.58386034773,78171.29232541232,78159.08827293973,78158.48477583943,78187.72085758697,78182.8034738068,78184.92688953005,78198.78497109235,78174.46627312497,78129.22634234744,78087.51798719383,78093.5306064523,78126.1418016126,78153.72385427044,78179.83069179424,78189.33018318775,78157.03191244983,78135.95421742847,78148.694711768,78191.07361925526,78226.67994817258,78254.53022176388,78226.99287259494,78197.28740421384,78175.67326732556,78117.40226953058,78145.78898498882,78166.7549212879,78173.59455509121,78165.16794743156,78183.56343311828,78162.5527933303,78149.47702282394,78179.78598830533,78226.210561539,78200.4613519265,78144.87256346614,78070.28479221878,78074.93395506548,78055.77851006729,78056.15848972304,78022.7202800179,78006.69407924343,78014.94187294744,78026.38596610856,77980.11785508608,77917.95765375586,77902.17732217042,77922.5397613692,77942.45516567888,77935.50377315328,77869.52142352122,77838.11722256152,77804.65666111192,77769.11738742798,77750.63249476344,77725.82205841805,77725.03974736211,77694.12728478042,77653.29064766057,77623.65223451283,77657.06809247352,77670.6803048468,77629.93307470478,77658.52095586312,77672.66961010333,77640.99718821015,77617.41609780981,77575.1042455559,77580.9604026032,77619.36069957742,77655.12349070591,77615.04681289755,77581.47449272567,77563.66015239479,77554.58534414595,77568.91281234179,77592.91858588679,77597.97008013369,77618.91366468831,77630.55892354953,77632.92820846179,77586.30246952802,77580.5133677141,77565.91767858478,77557.93810581423,77593.56678647599,77618.73485073267,77632.39176659487,77611.96227216271,77595.71255394371,77599.95938539022,77602.48513251367,77608.38599304986,77597.12071384439,77608.63186223888,77631.78826949457,77659.21385994123,77644.3723016229,77596.27134755508,77594.81848416549,77608.29658607204,77595.04200161004,77641.44422309926,77657.89510701837,77657.20220294026,77645.6239993124,77640.86307774343,77666.79110131158,77664.17594721031,77670.61324961344,77672.22257521423,77682.05734277455,77669.51801413513,77666.65699084484,77681.20797648525,77687.39940969937,77708.00771808717,77749.11257614048,77737.60142774599,77680.22449972921,77712.29925302259,77710.53346521062,77715.31673852405,77759.81906173457,77785.38945739144,77778.5051200992,77764.98231470374,77816.03369903966,77844.621580198,77832.32812074758,77847.30378953264,77861.20657458385,77861.0277606282,77893.8848249775,77877.85862420304,77843.70515867534,77868.69440897637,77915.36485139905,77935.01203477527,77931.5475143847,77936.48724990932,77929.91583703946,77903.71959253783,77898.71280177985,77945.0479680357,77954.39099721801,77933.51446789676,77960.89535485451,78008.23634961086,78045.09437621766,78039.43938487046,78011.03031766777,78032.4656406004,78038.03122496977,78052.0234169988,78074.79984459876,78075.35863821013,78064.6298008716,78079.42665570101,78130.92507492604,78148.49354606791,78197.89090131414,78196.54979664681,78167.29136315481,78163.4021596196,78203.50118917241,78238.5710762228,78295.61272807274,78278.44658833106,78257.7712247099,78237.09586108875,78224.02009058239,78189.5984041212,78197.98030829195,78265.03554165788,78289.44364660307,78275.36204759622,78262.91212593463,78284.59331805627,78293.60107107175,78287.54374832437,78292.48348384899,78299.6360420747,78283.16280641113,78272.14339639466,78274.46797781801,78272.63513477267,78257.48065203198,78290.51653033693,78328.31333021085,78318.25504520597,78294.69630655007,78287.76726576893,78323.32889119732,78358.59994394779,78387.56780476187,78359.35990325928,78300.88773976419,78293.26579490493,78286.29205063487,78275.40675108513,78261.5710212673,78233.40782325361,78255.60310549774,78279.98885869847,78301.5806438423,78313.36001317026,78303.52524560991,78316.69042309409,78341.76908037295,78332.44840293509,78332.0907750238,78333.47658318003,78315.77400157142,78333.76715585795,78347.06644380886,78313.49412363698,78317.85271380577,78343.73603388501,78393.04398215342,78410.67950852866,78399.1013049008,78387.65721173969,78373.57561273285,78391.61347050828,78369.12761558624,78373.37444703275,78356.47652822454,78316.13162948271,78298.1831786851,78312.19772245857,78337.5446006709,78296.43974261759,78289.91303323663,78285.88971923468,78230.09976507424,78161.61402006316,78117.98341488642,78091.80952212925,78087.78620812729,78054.8173850557,78001.19555010743,77964.06930256716,77922.8973892805,77880.11615039303,77852.71291169083,77806.17657973488,77760.02022743467,77784.78596029115,77760.46726232377,77729.42068927536,77706.51015120867,77682.34791545247,77634.47047882921,77594.52791148757,77575.73009440066,77588.55999571801,77562.78843436103,77487.32894507992,77453.82368014142,77440.74790963506,77406.9744237631,77353.15142311472,77356.90651618321,77405.0745254844,77402.6158335943,77372.53038555746,77381.1134554283,77416.89859830125,77390.81411252191,77418.5749791354,77504.8974162218,77472.10740710585,77399.88892077075,77370.63048727876,77355.47600453807,77337.84047816283,77320.07084132086,77318.72973665353,77321.41194598818,77327.58102745784,77353.66551323718,77381.76165601751,77389.96474623261,77393.98806023457,77390.03180146597,77410.68481334267,77442.89367710277,77427.29215947297,77421.88303731478,77436.45637469964,77440.61379916834,77454.36012200834,77449.10746206135,77463.45728200165,77488.53593928051,77481.85276768837,77494.70502075017,77524.96928274266,77519.06842220646,77532.43476539073,77560.08387328194,77557.33460871394,77564.37540821737,77598.97590863418,77587.50946372861,77544.1023759964,77545.77875683055,77576.78062639006,77585.00606834961,77550.807899333,77549.28798071004,77565.62710590687,77552.46192842268,77556.1052627689,77566.14119602933,77546.38225393085,77515.49214309361,77527.45032637719,77536.5027828816,77519.26958790656,77510.10537267989,77526.51155311007,77526.1986286877,77540.79431781701,77547.2092684757,77530.11018396738,77541.7554428286,77579.64164968034,77598.19359757824,77571.79618737653,77544.7505765856,77555.12178601287,77531.07130897896,77505.1432854108,77498.88479696332,77525.19280018721,77572.01970482108,77584.22375729367,77624.00986242412,77645.28872314558,77644.95344697875,77635.16338290733,77646.85334525745,77674.6812671043,77677.92227005033,77657.09044421797,77663.88537453239,77684.3819241979,77704.09616280749,77724.41389851736,77704.45379071878,77687.91349982185,77696.09423829248,77734.96392190027,77767.37395136047,77760.60137279051,77764.64703853692,77782.93076550135,77798.68874534236,77788.9657365043,77797.19117846385,77795.67125984088,77777.43223636535,77796.5653296191,77846.18620230988,77870.81782469962,77875.73520847979,77881.0325719157,77877.54569978068,77869.61083049903,77866.4815862753,77952.33463672813,78005.24121585384,78025.38013760807,78035.03609121277,78054.95149552244,78052.7163210769,78078.68904813398,78079.35960046764,78060.6288386141,78073.32462946471,78079.09137953418,78065.76973983881,78023.0108526958,78025.98363470836,78077.75027486686,78104.32649902422,78107.27692929232,78100.41494374454,78099.52087396632,78116.23997881889,78184.85983429669,78222.34370974824,78216.10757304521,78188.36905817618,78160.31761888476,78117.46932476394,78140.60338027518,78205.19992175102,78229.94330286304,78228.93747436255,78212.19601776553,78193.73347684545,78198.69556411452,78213.87239859968,78236.6711779441,78227.50696271741,78200.32724145976,78194.29227045683,78198.98613679245,78202.74122986094,78216.93458759006,78265.3708178247,78308.82260904582,78301.02185023091,78279.78769299838,78260.0734543888,78249.07639611678,78224.5118289604,78254.19494559705,78243.82373616978,78242.79555592485,78283.92276572261,78287.85667274674,78228.35632900671,78166.97843873245,78168.43130212204,78186.78208431984,78168.72187479996,78150.77342400234,78127.14763011309,78081.19244351298,78049.36355940862,78028.6211405541,77981.28014579775,77952.91578208396,77976.76509341778,77985.92930864445,77956.71557864136,77884.05005741716,77843.7722139087,77799.58281512056,77772.67131479637,77757.53918380012,77779.01921022168,77781.56730908959,77740.90948592538,77725.57618922905,77721.3964130159,77701.23513951722,77663.61715359893,77605.99435639314,77591.35396377492,77582.4132659928,77577.94291710174,77578.88169036886,77582.07798982596,77594.03617310956,77575.17130078928,77596.94189988874,77606.6649087268,77563.12371052787,77544.97409403016,77538.35797767139,77516.20739891617,77462.22793605662,77450.02388358401,77463.61374421284,77494.05682016097,77502.08109642043,77516.00623321607,77505.09858192189,77471.57096523893,77462.51850873453,77456.57294470942,77486.74779972408,77500.60588128638,77487.37364856883,77464.91014539124,77444.14537479226,77427.98506355108,77442.60310442485,77466.3853605253,77480.22109034314,77452.43787198518,77448.0345783275,77474.67785771821,77463.90431689077,77417.81501982392,77418.3738134353,77470.76630243854,77532.88180027984,77517.88377975032,77519.62721581785,77526.53390485453,77515.26862564906,77492.13457013782,77483.28327933351,77497.74485799609,77529.66314907827,77585.09547532744,77588.60469920692,77548.23744872064,77520.23071291813,77520.0518989625,77523.87404726435,77521.41535537427,77533.95468401369,77525.19280018721,77493.96741318314,77493.16275038276,77500.292956864,77514.08398319292,77522.91292225277,77497.32017485144,77491.28520384851,77492.87217770483,77489.541767781,77496.51551205105,77555.21119299068,77604.34032730345,77602.06044936902,77599.37824003438,77607.00018489364,77597.83596966696,77586.12365557237,77593.41032426481,77618.75720247712,77675.35181943796,77662.67838033181,77619.85243795544,77632.1235456614,77667.23813620069,77676.55881363855,77667.48400538969,77675.9776682827,77677.36347643894,77640.79602251005,77664.64533384387,77664.46651988823,77634.6716445293,77673.51897639263,77684.7842555981,77707.27011052014,77720.7929159156,77714.4450204903,77695.93777608131,77695.31192723656,77752.06300640859,77817.19598975134,77838.67601617289,77816.45838218431,77815.67607112839,77821.39811770894,77838.89953361744,77827.43308871187,77797.05706799711,77818.9170740744,77868.31442932063,77878.84210095908,77913.10732520907,77948.78070935974,77999.45211403992,77996.658145983,77923.45618289187,77926.16074397096,77957.76611063076,77955.73210188534,77958.61547692007,77968.67376192496,78029.89518998805,78095.76578089784,78062.21581247041,78032.13036443357,78044.96026575092,78027.99529170935,77998.0663058837,77962.72819789985,77970.1042735701,77993.663012226,78012.90786420202,77987.27041331178,77965.52216595676,77990.62317498006,77976.92155562897,77980.90016614202,78034.07496620118,78062.05935025924,78079.98544931239,78093.4859029634,78094.7823041418,78065.83679507217,78094.29056576379,78121.06795562124,78080.52189117932,78065.09918750515,78033.94085573446,78027.5706085647,78049.92235302,78033.60557956762,77990.33260230215,78015.00892818082,78059.0195130133,78076.74444636637,78069.21190848493,78049.02828324179,78042.99331223886,78035.43842261296,78044.11089946162,78058.28190544629,78064.6745043605,78101.21960654492,78105.13116182461,78091.94363259598,78068.6307631291,78072.49761491986,78097.35275475416,78137.20591511797,78112.66369970604,78104.2370920464,78092.05539131825,78073.01170504233,78128.91341792505,78166.24083116541,78168.61011607767,78166.86668001016,78165.3467613872,78171.35938064568,78153.61209554817,78091.65305991806,78051.75519606534,78070.3294957077,78040.73578604887,78001.86610244108,77984.31998304368,77940.24234297781,77897.4387523459,77895.49415057828,77895.91883372293,77865.94514440837,77843.92867611989,77803.49437040024,77738.65195973539,77700.43047671682,77706.15252329738,77711.56164545556,77671.01558101363,77619.0701268995,77597.36658303339,77579.59694619144,77572.04205656554,77524.38813738682,77486.01019215706,77499.28712836352,77477.49417751959,77417.39033667927,77371.30103961242,77331.91726588218,77332.23019030454,77341.1038328533,77342.46728926507,77305.497503936,77319.89202736522,77295.12629450874,77265.35377089426,77270.06998897434,77289.02426827243,77254.40141611117,77255.80957601184,77263.81150052685,77216.47050577051,77187.30147925633,77176.52793842887,77208.91561614462,77207.19453182156,77178.40548496312,77172.4152174491,77177.84669135173,77165.97791504597,77151.60574336121,77159.38415043165,77173.04106629385,77212.8271714243,77250.89219223168,77249.88636373119,77251.22746839852,77267.16426219515,77313.52178019546,77364.59551627583,77348.83753643483,77333.9512746276,77352.70438822561,77374.20676639161,77378.18537690466,77365.28842035394,77374.47498732507,77388.40012412073,77440.99377882406,77446.51465970452,77453.93543886369,77451.92378186272,77437.84218285588,77434.2212002541,77473.24734607308,77513.63694830381,77487.26188984656,77479.25996533156,77471.57096523893,77455.32124701992,77432.34365371987,77490.56994802594,77534.82640204745,77554.31712321247,77556.14996625781,77571.08093155395,77583.55320496002,77563.52604192807,77549.5562016435,77542.89538179581,77500.38236384183,77479.77405545402,77472.01800012804,77458.98693311059,77471.95094489468,77469.31343904894,77497.94602369619,77546.71753009767,77582.8603008819,77586.6153939504,77549.37738768785,77510.66416629126,77520.58834082942,77594.75142893213,77627.00499618113,77585.29664102753,77575.08189381145,77597.05365861102,77591.68923994176,77602.14985634683,77649.1332231919,77673.40721767035,77662.4325111428,77634.00109219564,77641.06424344353,77683.30904046405,77707.02424133114,77722.8492764055,77724.52565723965,77716.47902923574,77740.350692314,77738.11551786847,77730.53827649812,77750.96777093026,77753.62762852045,77744.53046852714,77754.92402969886,77712.05338383358,77698.97761332722,77718.93772112581,77726.91729389636,77751.19128837482,77758.76852974517,77739.38956730242,77748.01734066216,77757.2039076333,77772.33603862954,77823.18625726536,77823.94621657685,77808.34469894704,77819.18529500786,77831.45640271383,77864.04524612967,77879.15502538145,77903.16079892646,77922.0927264801,77871.33191482209,77835.43501322687,77868.87322293202,77854.3222372916,77819.07353628559,77802.15326573292,77845.78387090968,77840.06182432912,77819.14059151895,77838.0725190726,77875.22111835732,77910.5368745967,77886.5311010517,77885.79349348469,77944.51152616878,77939.59414238861,77897.72932502381,77874.39410381248,77875.28817359068,77861.4300920284,77889.97326969782,77919.92460726794,77940.73408135583,77975.31223002818,77999.7650384623,78019.30046311623,78057.83487055718,78081.99710631337,78068.675466618,78028.24116089835,78008.37046007758,78020.12747766108,78002.04491639673,78004.77182922028,78047.21779194092,78032.15271617803,78009.66686125599,78022.9661492069,78058.7736438243,78069.83775732967,78054.95149552244,78050.65996058703,78082.44414120248,78051.26345768732,78055.93497227848,78099.7890948998,78096.95042335396,78076.94561206647,78113.37895552862,78107.54515022578,78059.60065836915,78055.53264087829,78077.81733010022,78070.57536489671,78061.34409443666,78039.84171627066,78053.99037051086,78069.14485325156,78035.05844295722,78007.94577693293,77975.13341607254,77956.17913677444,77942.34340695661,77899.69627853588,77885.52527255121,77863.26293507373,77835.70323416033,77817.84419034055,77784.94242250234,77728.03488111912,77702.8891686069,77708.7900291431,77676.44705491628,77656.75516805115,77625.95446419173,77603.13333310287,77554.33947495693,77510.28418663552,77489.56411952546,77468.91110764875,77462.67497094572,77458.22697379912,77433.23772349808,77408.85197029734,77361.60038251882,77332.02902460445,77354.76074871549,77330.86673389278,77321.85898087728,77298.72492536604,77322.86480937777,77341.9084956537,77354.24665859302,77363.2097081196,77356.258315594,77339.13687934124,77349.66455097968,77367.32242909938,77321.59075994382,77314.7511261405,77316.11458255227,77334.1524403277,77351.47504228057,77355.47600453807,77334.82299266136,77321.21078028808,77338.89101015223,77378.58770830485,77376.0172576925,77365.26606860949,77384.28740314096,77406.75090631854,77427.0239385395,77455.14243306428,77474.90137516276,77483.66325898925,77513.86046574837,77530.64662583431,77526.08686996542,77555.14413775732,77581.9662311037,77570.81271062049,77571.34915248743,77612.14108611835,77615.0244611531,77597.1654173333,77588.20236780672,77608.47540002769,77621.10413564493,77626.31209210302,77616.2761588426,77619.04777515505,77624.61335952442,77603.98269939217,77573.71843739969,77556.17231800227,77562.49786168312,77597.41128652231,77614.48801928616,77587.48711198416,77605.1673418483,77613.52689427459,77603.93799590325,77603.58036799198,77628.05552817053,77626.17798163628,77632.52587706159,77636.01274919663,77641.53363007709,77649.04381621406,77636.01274919663,77635.23043814069,77698.50822669367,77718.93772112581,77707.24775877569,77686.4382846878,77645.24401965666,77620.65710075582,77630.00012993814,77623.60753102392,77681.61030788545,77722.8492764055,77698.12824703792,77683.01846778614,77687.17589225482,77704.69965990778,77693.27791849112,77709.12530530994,77753.4041110759,77773.96771597478,77786.37293414747,77773.38657061894,77777.83456776555,77787.57992834806,77812.45741992682,77803.53907388914,77798.84520755353,77794.19604470683,77768.44683509432,77730.87355266495,77717.93189262532,77736.10386086749,77801.48271339927,77845.98503660978,77836.46319347182,77850.18716456738,77864.71579846332,77820.32523397509,77802.30972794411,77782.4613788678,77784.4059806354,77817.0171757957,77858.9266966494,77885.0782376621,77886.64285977399,77850.70125468985,77820.1687717639,77851.3271035346,77906.17828442792,77888.96744119734,77869.52142352122,77883.29009810569,77894.46597033335,77891.42613308741,77897.48345583481,77914.9848717433,77895.136522667,77881.74782773828,77863.15117635146,77844.19689705335,77845.18037380939,77859.0831588606,77881.99369692728,77870.16962411042,77905.77595302773,77942.72338661234,77935.45906966437,77944.35506395758,77979.49200624133,78011.79027697924,78001.01673615178,77982.7553609318,77943.95273255739,77931.83808706261,77919.142296212,77941.0470057782,77933.6485783635,77946.38907270302,77994.46767502639,77978.39677076302,77953.07224429515,77976.16159631748,77968.56200320268,77974.59697420562,77997.84278843913,78000.32383207367,77973.83701489413,77977.5027009848,77984.72231444388,77957.11791004156,77961.7000176549,77984.29763129923,78003.92246293098,78004.14598037553,78039.34997789263,78043.14977445004,78044.04384422826,78048.49184137487,78085.7298476374,78105.95817636946,78092.99416458538,78091.54130119579,78076.00683879934,78061.43350141449,78053.0739489882,78065.50151890535,78075.73861786588,78071.98352479738,78088.21089127194,78095.81048438675,78091.04956281776,78079.15843476754,78053.09630073265,78046.41312914052,77995.29468957122,77934.14031674151,77877.97038292533,77853.33876053557,77856.51270824822,77848.55548722214,77808.85878906952,77787.17759694786,77749.38079707394,77699.22348251623,77650.0272929701,77630.31305436052,77618.6230920104,77578.07702756846,77537.26274219308,77564.48716693964,77571.28209725405,77537.17333521525,77531.0489572345,77558.42984419226,77573.27140251058,77533.5970561024,77494.41444807226,77460.93153487821,77444.90533410375,77417.83737156837,77413.21056046612,77400.2689004265,77401.74411556055,77410.5730546204,77436.18815376618,77448.70513066115,77473.24734607308,77468.55347973746,77447.49813646056,77428.90148507374,77449.37568299481,77448.14633704977,77462.71967443463,77466.29595354748,77442.73721489159,77430.33199671889,77423.29119721547,77419.98313903608,77402.43701963866,77375.43611233665,77364.79668197593,77387.90838574272,77382.02987695097,77372.73155125756,77388.40012412073,77380.44290309465,77388.80245552093,77413.2776156995,77434.020034554,77434.84704909885,77425.90635131673,77412.36119417682,77354.22430684857,77342.60139973181,77332.0513763489,77319.4002889872,77342.53434449845,77336.16409732868,77295.97566079804,77267.5889453398,77285.09036124831,77311.5548266834,77312.35948948377,77306.1457045252,77311.3536609833,77294.94748055309,77268.21479418455,77269.82411978533,77269.5335471074,77295.37216369774,77271.61225934175,77247.42767184111,77254.73669227799,77254.28965738889,77271.50050061947,77300.62482364474,77314.86288486277,77337.21462931808,77355.61011500479,77350.31275156888,77349.08340562385,77360.34868482933,77353.28553358144,77371.2116326346,77358.64995225072,77345.77534744446,77379.3700193608,77389.80828402142,77356.32537082737,77331.82785890435,77299.01549804395,77306.5480359254,77324.02710008944,77342.60139973181,77387.37194387578,77444.10067130336,77461.66914244523,77419.49140065807,77445.64294167077,77479.57288975392,77474.92372690723,77508.00430870109,77509.16659941275,77492.69336374919,77499.66710801925,77492.73806723811,77487.21718635765,77485.7419712236,77519.18018092873,77503.62336678784,77496.35904983987,77522.57764608593,77532.34535841292,77561.58144016046,77604.20621683673,77639.20904865373,77661.49373787567,77655.90580176185,77672.04376125858,77696.1389417814,77682.59378464149,77652.10600520445,77616.41026930932,77626.84853396995,77677.05055201656,77719.96590137076,77743.01054990418,77786.21647193629,77807.47298091328,77830.87525735798,77865.74397870827,77878.01508641423,77859.46313851632,77855.90921114794,77845.89562963195,77863.21823158482,77912.05679321967,77991.94192790294,78022.25089338433,77999.34035531765,77991.8078174362,77973.68055268294,77955.37447397405,77971.33361951514,77972.18298580444,78024.93310271896,78031.45981209991,78013.3101956022,78002.06726814118,78037.58419008067,78010.62798626757,77971.53478521523,78000.45794254041,78026.7212422754,78020.08277417216,78024.30725387421,78010.62798626757,78002.7601722193,78017.66878577099,78012.41612582399,78022.3179486177,78067.96021079543,78081.99710631337,78074.06223703173,78055.15266122254,78042.21100118292,78033.38206212307,78021.64739628404,78045.16143145102,78050.07881523119,78027.32473937569,78010.69504150093,78008.05753565521,78020.75332650583,78006.38115482107,78015.72418400338,78053.00689375483,78096.34692625367,78102.11367632315,78099.20794954395,78092.94946109646,78070.48595791888,78049.47531813089,78040.53462034877,78080.54424292377,78076.63268764409,78057.25372520134,78052.2692861878,78059.24303045786,78047.68717857447,78060.24885895835,78121.67145272154,78193.42055242308,78222.99191033744,78269.7741114824,78277.7760359974,78240.89565764615,78211.99485206543,78228.78101215136,78209.33499447526,78235.77710816587,78220.68968065854,78204.84229383973,78220.75673589192,78254.32905606378,78245.88009665968,78179.00367724939,78134.61311276116,78113.71423169544,78118.9892433869,78100.12437106662,78056.6278763566,78046.88251577408,78056.31495193421,78086.5792139267,78098.24682453237,78113.93774914,78086.40039997105,78077.50440567784,78059.35478918014,78028.2188091539,77993.7077157149,