58255.5527395669,58286.82283005987,58375.1792758917,58512.39663510283,58556.67544086879,58630.257383615666,58690.294169222616,58715.7081026683,58770.06754518361,58852.277261290226,58882.809744216174,58912.85048876411,59024.877431974106,59087.529371682336,59123.515680255376,59168.21916916599,59211.33568422028,59252.19467308458,59276.468667563044,59319.36166517278,59308.61047608978,59329.755226344496,59450.409942914244,59528.238717107626,59573.63511009635,59592.72349986118,59641.696171962765,59665.880759463405,59688.67953880782,59719.45789092278,59768.34115604653,59793.44216506984,59841.54311913766,59870.3321659961,59872.18736078589,59914.879192695524,59946.59631807761,59956.11816121557,59966.22114970937,59998.161792536,60057.48332232038,60036.02564764329,59992.48444944435,60006.901324618026,60064.83704624618,60076.4823051074,60082.89725576607,60102.07505250872,60125.65614290907,60125.09734929769,60117.72127362744,60116.62603814913,60094.31899718273,60151.539462988316,60144.677477440535,60093.5366861268,60096.732985583905,60076.9293399965,60063.250072389856,60039.043133144754,60022.59224922565,60031.82351968569,60044.80988321423,60032.40466504153,60021.80993816972,60054.443485074466,60025.1179963491,60001.89453386004,59969.909187544494,59944.22703316534,59920.355370087076,59926.502099812285,59941.85774825308,59949.81496927917,59871.74032589678,59755.17597856236,59686.37730912892,59599.92076157579,59444.19615795567,59194.7730415789,58865.196569585394,58564.520903172604,58299.25039997702,58010.644675570096,57674.20621802881,57381.33131043093,57069.032736901376,56710.868383749534,56322.17154767174,55947.37749664515,55655.8883972035,55384.73938521617,55101.58748645634,54773.486229596885,54421.15568174788,54116.970791455606,53838.06572414228,53550.06349683565,53308.41878752933,53142.144160526295,53035.1687115632,52906.556773967364,52721.014943243856,52578.16494442999,52438.71241077333,52309.83225224403,52227.62253613741,52146.88803516484,52076.12241221934,52098.98824679712,52139.1096280944,52104.71029337768,52047.802751994466,51999.29946652645,52009.80478642044,52099.97172355315,52137.58970947143,52198.095881711946,52320.561089582574,52400.89325915495,52452.05640221315,52508.87453661854,52544.860845191586,52611.960782046415,52704.49700409138,52816.725113001485,52885.54613417937,52996.96958028908,53125.737980096106,53209.42291133677,53323.148587125375,53460.07537365858,53524.80602560115,53602.47833758335,53725.43528383199,53856.483561573456,53995.57846731883,54116.94843971115,54196.63240869432,54293.50486916362,54386.77869877562,54487.74152848024,54586.71505292834,54622.00845742327,54665.21437945538,54705.91690610849,54754.531950298784,54824.11293078816,54875.56664652427,54937.32451645428,55028.40787510966,55116.00436163001,55188.91575204322,55286.70463403519,55376.91627465681,55408.78986225008,55460.02006054164,55545.44842784983,55631.837920169586,55733.203081274405,55826.40985565304,55986.068366297295,56154.958147401594,56231.60227913884,56311.59917254438,56415.713598217204,56533.462588007766,56606.44103365434,56665.49434250526,56717.26098266375,56800.11889935958,56898.75714764085,57009.15241350561,57144.08989478229,57300.66386469172,57367.22735967963,57408.91336308877,57493.80528853003,57589.6942722433,57707.8232416896,57791.15054501898,57863.83841798764,57907.580781886674,57999.737024275906,58131.3217438843,58244.063942916866,58240.085332403825,58294.82475457487,58353.83335993688,58363.48931354157,58378.3308718599,58468.76602992607,58592.147659319366,58671.78692481363,58719.68671318135,58743.02193439269,58780.23758891077,58860.12272359404,58960.19148352045,58994.5237630038,59045.284574661804,59101.990950344916,59170.923730245086,59211.469794687015,59289.611493302764,59339.612345649286,59377.27503505648,59445.20198645616,59488.519667210545,59534.89953695531,59552.04332495252,59577.50196188712,59604.68168314477,59664.3831925849,59726.54339391511,59762.32853678805,59790.64819701293,59843.55477613864,59885.397241758976,59878.959939355846,59851.064962275625,59858.552796668155,57215.23549738354,56863.73196407938,56534.40136127488,56236.69847687465,55887.31835929375,55539.90519522491,55244.4374852702,54934.23997571945,54687.96845531088,54483.561752267095,54269.32028166298,54064.48889547455,53908.16079475413,53754.134923712605,53701.96595215392,53627.48993962884,53478.29204538966,53397.26697173918,53380.34670118651,53342.88517747941,53273.72888013469,53228.17602493478,53245.409219909816,53274.73470863518,53336.87255822094,53407.23584976624,53486.24926641575,53565.374441787535,53631.26738444178,53647.78532359425,53732.16315891304,53828.96856414897,53859.99278545294,53961.9390919136,54134.98629748658,54244.97923195115,54366.192742132276,54502.73954900975,54658.08417297414,54835.33350650472,55016.51674705944,55191.620313122316,55331.229308990165,55445.33496443451,55600.70194014334,55731.593755673624,55833.38359992309,55946.93046175605,56059.71736427753,56152.81237993389,56262.22416904261,56389.40559499331,56557.15543713039,56716.00928497426,56842.810731269215,56912.39171175858,56930.809549189755,56979.91633175807,57079.515705050915,57148.78376111791,57295.187687300175,57477.17559065528,57615.89051674492,57797.99017882231,57953.69243069797,58062.97010933997,58133.48986309646,58219.320561804845,58365.32215658691,58506.62988503336,58631.486729560704,58771.85568474003,58965.37708823408,59142.93934618704,59330.82811007835,59552.31154588599,59786.401365566424,59976.614710881084,60129.88062261113,60272.68591793608,60438.088826905354,60672.89390240835,60904.34621624306,61024.59860141261,61124.28738168328,61242.08107496275,61374.93984400509,61551.60803217984,61695.128583327365,61840.43727403132,61964.64591796946,62048.80023584369,62091.22384681986,62136.64259155305,62201.17207779552,62319.54691643082,62406.87518201771,62459.8935198657,62536.560003347404,62615.86399267483,62685.534380142024,62745.12413085987,62753.282517586056,62759.40689556681,62798.20952394122,62875.92653941233,62943.24999371171,62964.484150944256,62993.25084605823,62983.88546513146,62995.75424143723,63014.5744102686,63041.77648327071,63041.41885535942,63052.10298920906,63038.3790181135,63020.34116033807,62987.28293028867,62922.37346439045,62910.080004940035,62904.76028975967,62832.47474819121,62784.463201101215,62748.14161636134,62788.10653544743,62855.72056242473,62836.4310069598,62824.517527165124,62810.92766653629,62819.28721896258,62790.051137215036,62727.779177162556,62702.47700243915,62645.30124012247,62628.5821352699,62629.99029517059,62611.95243739515,62651.67148729223,62652.476150092625,62627.84452770287,62593.02050984151,62525.294724141924,62464.25211003448,62395.408737112135,62313.42253845007,62193.21485676943,62122.09160591264,62064.82643661815,61922.892859326945,61833.217660572256,61795.599674653975,61685.8079058895,61552.83737812488,61477.53435105495,61433.41200750018,61404.10887051927,61387.881504044715,61311.84086940776,61206.184173367525,61145.298021471266,61160.117228045136,61144.49335867088,61167.00156533737,61129.76355907483,61075.98526191536,61023.41395895648,60981.705603802875,60972.42962985393,60951.73191448831,60905.776727888195,60871.310337938114,60824.46108155979,60792.65454919989,60749.15805448986,60670.278748307086,60597.61322708288,60552.6415172388,60519.00214183357,60486.86033330683,60430.556289023916,60339.29411641289,60271.12129582421,60179.41208832408,60111.86511658015,60054.30937460773,59953.279489669745,59841.52076739321,59774.800810194116,59690.557085342065,59563.33095590246,59440.28460267599,59404.09712840285,59364.24396803904,59262.5882342563,59175.43878262506,59097.2523805204,59051.02897298682,58971.23324528137,58900.288808380225,58826.01396155524,58739.42330353538,58677.88895104992,58639.265136631155,58539.419894149294,58416.21707871164,58289.41563241668,58116.41313033261,57902.10460449512,57693.451070004834,57389.73556634612,57066.48463803347,56694.529258552706,56296.35528282586,55883.563266225254,55419.45164435526,54943.53830141286,54533.070866235605,54149.76080057154,53713.74532148187,53285.7764703961,52883.914456834136,52471.72593733382,52049.456781084154,51659.21767463895,51303.601420355015,50985.69255896718,50652.27158692737,50373.14300216949,50085.20783009623,49796.17742254465,49598.81151900429,49444.651537496036,49301.57802123762,49184.34312156953,49092.231582669214,49012.72642764168,48972.18036319976,48947.235816387634,48906.66740020125,48902.040589099,48859.32640544491,48812.16422464421,48841.86969302532,48826.87167249581,48834.963003988625,48851.79386756347,48896.698522174185,48968.38056664236,48998.30955246801,48996.387302444855,49013.2181660197,49041.44841926675,49070.25981786964,49075.57953305001,49053.89834092836,49040.80021867755,48981.143412726335,48949.4039355998,48974.32613066747,49002.57873565897,49094.824385026026,49177.034101132645,49230.92415701439,49269.659730155436,49330.702344262885,49429.74292394435,49613.25074592242,49842.62434752278,50075.015434624605,50234.38337259095,50446.63553793854,50694.73990139245,50913.56347960991,51115.24326983014,51315.33608619405,51572.31409219672,51811.075426468306,52086.62773211333,52314.012028457175,52448.234253911294,52634.17841603499,52886.0825760463,53078.665206273225,53207.97004794718,53329.34002033949,53455.80619046762,53549.61646194655,53612.46956735487,53689.80660317023,53746.647089320075,53818.865575655174,53861.311538375805,53881.76338455241,53955.8370656773,54028.234365968034,54080.49274450455,54120.81529150192,54169.63150139231,54178.37103347434,54250.23189189815,54278.17157246728,54255.14927567831,54251.64005179883,54261.63128157035,54304.14429952435,54361.07419265201,54407.61052460796,54424.1955189938,54411.03034150963,54447.01665008267,54443.88740585893,54471.71532770578,54570.62179692052,54620.801463222684,54579.1825150469,54581.97648310381,54567.47020095232,54550.751096099746,54543.21855821831,54522.5208428527,54477.32561556406,54457.52196997666,54507.54517406764,54518.78810152866,54601.98129439131,54694.29399899173,54745.68065949448,54844.654183942584,54931.44600766254,55059.342689435805,55077.604064655796,55097.8547451323,55100.71576842258,55141.4629985646,55225.61731643884,55364.712222184215,55492.139517323914,55582.70878585682,55663.53269380721,55752.64909895052,55897.06371987626,56045.61341352623,56154.91344391268,56299.4398235607,56453.21982541321,56632.21259501131,56827.25391712832,56903.22749653191,56991.56159061928,57061.50019901994,57114.09385372327,57227.68541904514,57400.97849380714,57547.91886185633,57657.93414806535,57792.648111897484,57908.005465031325,58013.572754093744,58133.60162181874,58186.97758757801,58242.23109987153,58283.3583096693,58391.160773177246,58489.62020750287,58595.902752387854,58642.01440119916,58673.21743645876,58713.87525962297,58774.895521985956,58788.59714133706,58807.35025493506,58837.12277854953,58882.78739247172,58891.66103502048,58878.71937498086,58930.46366339489,58968.171056290994,58965.667660912004,58971.881445870575,59017.27783885931,59068.575092384235,59097.654711920586,59071.369060441146,59063.43419115951,59066.898711550086,59043.22821417192,59013.58980102418,59014.9309056915,58969.579216191676,58935.69397159744,58950.490826426845,58932.67648609597,58933.48114889636,58918.93016325595,58881.066308148664,58852.43372350142,58849.326831022125,58855.45120900288,58843.40361874147,58853.26073804626,58879.83696220362,58909.78829977373,58916.04678822122,58911.46468060788,58899.819421746666,58826.01396155524,58745.36886756049,58737.6128122345,58736.89755641193,58740.29502156914,58693.75868961319,58650.373953625436,58668.478866634236,58678.49244815022,58679.47592490625,58700.218343760775,58673.55271262559,58633.47603481723,58592.326473275,58499.0079401741,58427.080026516924,58366.35033683185,58220.05816937187,58002.57569582173,57708.15851785643,57349.569481559935,57012.95221006301,56676.893732177465,56315.62248654634,55978.98286330496,55638.118760361525,55205.00900805104,54762.77974400279,54302.95965706822,53859.29988137483,53470.021899941195,53104.526174608014,52702.15007092358,52290.69915899029,51876.49898248899,51468.37848047954,51109.1635953383,50804.82224283484,50517.75878879533,50232.34936384551,49914.26168850204,49651.80750510783,49465.30454937274,49297.197079324374,49116.639687614406,48957.98700547064,48800.38485531627,48672.979911921015,48553.867465718686,48486.07462478574,48457.933778516504,48451.518827857835,48449.08248771221,48514.41663675507,48570.005425215415,48618.888690339176,48671.459993298056,48669.493039785986,48739.27518597546,48861.49452465708,48988.11715699639,49083.69321628728,49184.25371459171,49316.37487606703,49471.428927353496,49617.83285353576,49789.40484397469,49963.12260188134,50114.62272579941,50237.624375536965,50397.34994141459,50609.78092071783,50859.22638883906,51040.9460712607,51195.41897719133,51418.64584906648,51560.378260657584,51712.68304737605,51866.105421317276,52034.81638846593,52230.21533849423,52357.910854567395,52489.02618754223,52595.44284289394,52650.56224472073,52735.92355679555,52856.60062510975,52948.46629482106,53008.88306008376,53067.422278812206,53104.34736065238,53120.79824457148,53181.08089936744,53160.94197761321,53157.455105478184,53240.42478089628,53291.0291303431,53301.065063603535,53289.665673931326,53305.93774389479,53341.320555367536,53271.73957487817,53228.064266212496,53216.15078641782,53183.22666683515,53177.83989642142,53163.75829741458,53155.86813162186,53188.568733759974,53203.09736765592,53234.34510640444,53267.82801959849,53264.74347886366,53290.87266813191,53358.28552940912,53453.12398113299,53522.12381626652,53534.17140652793,53597.09156716962,53649.685221872955,53741.17091192853,53856.99765169593,53987.48713582601,54107.89598320675,54221.062865383974,54313.04029381756,54390.444384866285,54460.07006884457,54584.54693371617,54710.65547593302,54784.75150880236,54837.50162571688,54887.368367596675,54985.872505411215,55111.489309250035,55248.46079927216,55383.55474276003,55474.682804904325,55559.28415766766,55646.34420232108,55763.3108810557,55830.500224888354,55870.73336490791,55944.114141954684,56035.689238988074,56133.366362257766,56217.40892140972,56236.94434606366,56250.91418634823,56289.470945533634,56296.869372948335,56284.84413443138,56322.328009882935,56394.70295842922,56450.29174688957,56485.1828199843,56531.04859960659,56572.22051289326,56597.545039361125,56669.987043140776,56685.923836937414,56764.356108231084,56842.587213824656,56868.22466471489,56874.93018805149,56882.26156023283,56908.59191520118,56950.85906396616,56935.145787614085,56935.8386916922,56967.578168818734,57009.80061409481,57074.59832127074,57127.84017656329,57106.65072281966,57105.644894319164,57088.12112666621,57119.19005145908,57157.9926798335,57144.49222618249,57081.05797541833,57128.15310098566,57198.13641287523,57191.09561337181,57193.93428491763,57210.47457581456,57226.14314867773,57257.74851533753,57210.92161070366,57180.45618301108,57183.965406890566,57143.28523198191,57084.43308883108,57057.543940251344,57039.43902724255,56981.83858178122,56933.78233120231,56925.04279912029,56939.45967429396,56935.36930505864,56975.13305844463,56956.469351824446,56916.79500541628,56908.74837741237,56890.93403708149,56892.565714426724,56881.41219394353,56834.20530965392,56789.27830329875,56779.55529446069,56821.755387992314,56823.8117484822,56806.57855350716,56838.899175989536,56837.20044341093,56837.893347489044,56847.32578364918,56783.176277062455,56759.394020962005,56854.053658730234,56898.578333685204,56892.431603959994,56852.310222662716,56826.04692292773,56689.2318951168,56520.81150064606,56313.63318128982,56066.311128891844,55772.94448291594,55400.25149586815,55003.46332829754,54582.490573226285,54141.80357954545,53645.773666593275,53122.96636378364,52617.72753211588,52086.225400713134,51533.0644289332,51013.65459128077,50477.65975924251,49943.02838361602,49387.27460947927,48764.97969209906,48210.09763599606,47710.08911253084,47265.60232229261,46828.424552491255,46446.723812427976,46039.67619415238,45617.83172104737,45243.037670020785,44964.80315504112,44697.00690472209,44473.80238459139,44248.85442839318,44056.71883305536,43903.989363192246,43789.36961762543,43689.79259607704,43573.67528363172,43519.15937890523,43509.972811934094,43500.383913562764,43526.021364453,43584.89585934828,43658.27663639506,43682.55063087352,43701.77313110508,43747.460096771734,43854.5026009682,43952.850276571546,44110.02774358127,44280.88447819764,44434.77623877242,44580.219039943106,44747.38773672435,44940.97619545176,45181.34685532413,45400.75157889743,45574.31287459289,45822.30547932452,46110.19594790888,46371.644302802604,46605.64471550521,46830.0562298365,47117.61142225402,47421.97512650194,47675.84624002531,47836.37646870333,48010.85418592145,48253.191799305896,48499.28450575883,48700.07022620085,48826.80461726244,48976.941284768734,49091.82925126902,49216.93196498537,49311.34573356459,49399.568068929686,49499.99445676738,49664.48094421398,49833.124856129274,49966.721232738644,50125.01628697113,50264.334710161056,50390.42090063345,50488.321541347694,50533.270899447314,50583.316455282744,50667.60488362371,50735.75535246794,50848.16227533368,50945.90645383674,51017.81201574946,51081.89446710282,51135.11397065091,51178.4316514053,51247.58794875001,51372.042461877165,51492.920695891466,51561.16057171352,51619.29745904177,51673.925122490546,51752.849132162235,51776.050242906844,51848.51459843095,51922.655334789204,51945.4094106447,51981.4180709622,52091.70157810469,52190.18336417477,52283.85952518696,52398.9710091318,52463.545198863176,52577.67320605197,52726.51347237986,52794.39572029063,52874.14674450717,53004.05508328141,53111.27640143352,53210.04876018152,53306.13890959488,53373.41766040536,53463.76341149371,53622.68431457094,53701.76478645382,53741.52853983981,53840.680878243555,53937.46393173504,54048.44034295563,54105.70551225013,54189.41279523526,54302.69143613475,54446.234339026734,54565.59265441808,54700.17250778348,54841.94962286349,54944.25355723543,54969.443973236564,54993.628560737205,55043.24943342798,55111.355198783305,55186.61352236432,55267.9962239261,55334.24679449163,55364.511056484116,55362.47704773868,55385.476992783195,55440.417580654335,55540.37458185847,55605.73108264579,55601.01486456572,55670.2382171438,55756.24772980782,55801.420605352,55907.52433628134,56005.53673571786,56047.42390482711,56082.896123277686,56103.77265259894,56152.41004853369,56185.222409394075,56184.99889194952,56236.98904955257,56276.43987851619,56349.44067590722,56413.85840342742,56479.10314549245,56490.524886909116,56496.73867186769,56490.48018342021,56486.74744209617,56480.75717458215,56471.592959355476,56465.55798835254,56466.51911336412,56515.00004708768,56474.453982645755,56439.02646768409,56480.08662224849,56525.23714604821,56613.68299885786,56668.578883240094,56717.8868315085,56742.85373006508,56758.92463432845,56743.68074460993,56699.24547663277,56676.78197345519,56667.79657218416,56622.17666175088,56579.44012635233,56543.27500382364,56473.98459601219,56361.622376635365,56298.81397471595,56251.18240728169,56129.34304825581,56031.10713137474,55942.437761120535,55834.32237319021,55812.79764327975,55831.26018419983,55821.850099784155,55753.07378209517,55696.36740641206,55662.795086240185,55620.77380666421,55603.22768726679,55562.03342223566,55488.98792135572,55401.279676113096,55296.94173299572,55205.14311851777,55094.4572799751,54912.111748708696,54787.92545651501,54666.86840854507,54511.99317121425,54333.80506441654,54133.08639920788,53851.85675047121,53549.437647990904,53196.03421640804,52793.47929876796,52421.032180909184,52072.613188339856,51621.5326334873,51126.0168106576,50668.92363654657,50214.71383747028,49794.76926264397,49348.42727761594,48919.430246285236,48499.57507843675,48064.5430761031,47596.67636116462,47139.04674518666,46770.60058958538,46391.40324490109,46065.00072062024,45766.6049321419,45472.52303034342,45185.504279792825,44965.29489341914,44737.46356218619,44479.79265210541,44218.65722163406,43981.2816955187,43802.15481545387,43638.56239778548,43485.63176222226,43397.18590941261,43332.20938828104,43288.53407961537,43294.99373376295,43312.78572234938,43343.742888419976,43419.29178467891,43470.544334714934,43411.73689505302,43351.72246119052,43334.95865284904,43388.55813605287,43424.92442428165,43498.03698039496,43614.75778994057,43680.695436083726,43819.83504531802,44063.55846685868,44338.90960680361,44588.73505458058,44790.68306573428,44971.24045744425,45202.80453000123,45382.40079669962,45550.24004581452,45710.07737041442,45893.406378436855,46223.42988531946,46514.80722603884,46782.40231065778,47061.17326750437,47324.61092765462,47518.55701429332,47658.23306539453,47789.21428790263,47941.22850194317,48141.16485609589,48280.12565137454,48423.08740891069,48555.90147446412,48682.278237614424,48794.349884313335,48996.72257861168,49180.78919420114,49302.7850154382,49424.62437446408,49535.533730451316,49615.016533734386,49687.34677879176,49717.164005895145,49720.427360585614,49761.71103259457,49837.326984086874,49898.97309529461,49922.44242697268,50018.68903859724,50084.246705084646,50060.77737340658,50073.85314391293,50044.8629313544,49931.11490382134,49799.083149323844,49633.97081303249,49470.75837501984,49318.40888481247,49203.5656218011,49192.613267017994,49251.1748374909,49279.29333201567,49358.507914365284,49512.82435808473,49630.70745834201,49746.154218453674,49849.10635341482,49900.33655170639,49995.107948196885,50115.092112432976,50228.66132601039,50345.94092916739,50435.057334310695,50592.72653969843,50780.615303589744,50999.39417831829,51147.25096789014,51276.37699560845,51345.622699930995,51451.547616904696,51572.82818231919,51694.93576227853,51787.13670815667,51877.37070052275,52015.25861206754,52135.64510770382,52243.469922956225,52407.554079002635,52536.74716195431,52641.35332600514,52755.838961105226,52848.50929361693,52988.02888250696,53130.342439453896,53244.73866757616,53390.29322746912,53556.36668877205,53647.114771260596,53774.56441814476,53926.01983857392,54111.11463440832,54349.38423030189,54560.45175319335,54860.63568122813,55335.207919503206,55841.2290622269,56374.98871981964,56993.90852378709,57768.44117265239,58545.67838259678,59318.6017058613,60106.3889391886,60884.49786716675,61639.428036144745,62324.68781765555,62912.806917763584,63504.34583477329,64058.82555947609,64502.39592819166,64905.55434293203,65203.23487558781,65421.38790147161,65640.94908725609,65818.9360283537,65965.00467836914,66090.77794441914,66214.76307091273,66277.52676934324,66371.20293035543,66506.2968738433,66526.72636827546,66508.37558607764,66543.87015627268,66614.03228211789,66631.28782883738,66672.77266654643,66616.78154668589,66499.23372259543,66398.49441033536,66322.11849953157,66161.14123596445,65935.38861696585,65689.51942795746,65399.59495062768,65094.5159905572,64809.91122840777,64570.3899348247,64306.25937059634,64005.24842801672,63658.93049942619,63279.86726520864,62963.500674188224,62709.853078109394,62377.08030665878,62016.77018603923,61677.76127788559,61358.55601531935,61025.13504327954,60670.32345179599,60254.513949693915,59896.81898317564,59542.007391692096,59160.6642795401,58833.36768548104,58492.458879048696,58138.47430211,57773.11268724355,57395.45761292668,56981.05627072528,56566.14083840142,56088.77463206943,55619.70092293035,55074.161896009675,54579.67425342491,54046.96512782158,53499.660313088934,52951.997870445004,52356.14506675542,51714.02415204336,51161.04199421907,50667.984863279446,50129.687801562286,49536.226634529434,48956.26592114758,48351.673585375975,47769.43299405969,47232.83466492113,46760.94463598068,46344.21871235594,45902.50353843016,45433.407477546636,45001.839995603565,44612.20438625865,44203.8827185491,43803.875899776926,43476.08756733985,43160.59269435319,42896.238612680274,42699.14093007337,42507.340610902385,42321.82113192334,42175.97599935246,42091.37464658912,42064.37373928711,42026.30871847972,41955.00665366729,41871.299370682165,41819.286861334665,41782.83116612806,41805.27231756119,41855.51903909672,41855.630797818994,41861.509306610744,41922.06018234017,41977.626619056064,42031.963709826916,42062.585599730686,42047.87815187909,42067.79355618877,42122.33181265972,42199.57944149726,42293.81439612083,42463.97822665909,42648.134249226365,42819.86270187649,43018.860282762085,43236.476866778954,43407.15478743968,43591.713141407155,43812.682487092316,44030.47788506483,44249.256759793374,44425.74613401248,44570.11605144931,44747.6112541689,44950.94507347883,45116.52679640374,45220.55181509874,45332.28818563082,45408.641744690154,45518.187644265614,45629.43227641968,45715.262975128055,45801.54070872554,45871.166392703824,45868.03714848008,45878.788337563084,45910.28194550061,45930.62203295494,45875.39087240587,45894.434558681794,45919.401457238375,45849.39579360435,45829.74861022814,45814.92940365427,45819.82443568998,45819.086828122956,45816.24815657713,45769.242437987625,45765.599103641405,45863.16446818882,45903.822291353026,45905.27515474262,45924.922338118835,46002.952278012315,45996.98436224274,46052.371985002996,46113.07932294361,46160.576779911135,46232.54939705723,46308.12064506062,46401.19330897252,46501.48558634348,46576.67685469113,46595.36291305577,46631.148055928716,46775.00388324307,46910.500158131144,46997.962534184764,47113.54340476316,47192.042731290196,47272.06197644019,47330.17651202399,47438.873045310145,47533.97971796748,47615.36241952925,47670.37006263377,47747.26006356002,47839.729230371624,47951.28678694806,48083.85498331249,48215.216185476325,48332.585195611144,48394.83480391918,48451.54117960229,48540.25525334541,48642.00039410596,48741.286842976435,48873.11743177383,48958.12111593737,49014.71573289821,49106.02260899814,49192.79208097364,49272.878381357004,49341.85586474608,49420.89163314005,49549.19064631351,49659.94354008955,49733.81605551435,49734.95599448156,49761.42045991665,49855.67776628468,49971.41509907426,50071.57326597849,50148.73148783821,50192.83147964853,50239.70308777131,50291.38032095198,50338.721315708324,50378.32860688312,50456.93969213244,50554.169780513024,50657.81481955228,50782.76107105745,50891.36819736579,50962.35733775584,51068.77399310756,51138.64554627485,51172.597846102464,51185.58420963099,51188.7805090881,51203.33149472851,51244.16813184835,51381.36313931503,51505.929411164456,51595.85047910816,51653.38386933612,51663.66567178556,51673.902770746085,51792.7246442705,51865.70308991708,51877.95184587859,51875.22493305504,51898.35898856628,51910.8536137168,51910.42893057215,51922.27535513346,51940.15675069771,51947.957509512606,52047.82510373892,52119.48479646263,52157.125134125374,52139.64606996132,52089.82403157044,52065.25946441406,52056.96696722114,52011.078835854394,51907.16557588167,51745.09307683624,51574.05752826423,51367.81798217511,51037.43684738122,50619.325115600244,50206.46604376627,49819.57969898936,49426.27840355378,48998.555421657016,48504.157186050084,48044.851189237976,47591.60251517326,47105.049741870134,46662.03816676595,46304.07497931421,45946.75999245167,45549.88241790324,45108.21194746637,44701.7007710577,44319.35183040522,43952.38088993799,43602.97842061263,43251.8101634753,42948.49699121678,42687.428615978795,42425.01913607349,42149.69034787302,41921.233167795326,41695.68171449682,41445.141010897285,41242.6342061322,41061.808593488764,40842.06859374864,40658.22549560374,40566.35982589243,40475.276467237054,40380.773291680016,40275.80949971789,40203.121626749235,40212.30819372037,40273.239049105534,40356.298131501455,40410.29994610548,40512.08979035495,40711.020316007176,40936.08003092767,41078.103015196684,41270.88681112371,41526.27784327005,41814.30242232113,42100.69532402699,42541.248207241086,43183.95026730899,43884.65510423841,44710.596765350914,45603.973639485084,46511.16389169263,47542.78630528287,48692.917667975154,49876.15196420574,50991.99575090358,52051.51314157405,53099.56408733894,54071.06030834441,54885.33435885124,55660.9398914504,56397.25105729712,57047.30684129082,57676.4637442188,58202.0873668298,58679.02889001714,59157.199759149524,59517.1969553467,59830.61311609902,60114.30145672578,60383.841143112324,60558.765895219556,60721.7324640432,60847.19280567084,60901.06050980813,60882.66502412141,60857.273442420184,60812.7040639763,60784.65262468489,60825.109282148995,60879.53577989767,60941.60657425006,61005.26434245877,61058.059162862206,61082.48961955186,61093.352567357135,61130.18824221948,61164.29700425828,61139.37480919061,61119.74997755885,61104.95312272944,61080.12033463959,61067.89393042254,60966.90874897347,60913.1751553029,60892.11981202601,60793.28039804464,60690.08239389449,60675.26318732062,60636.013524057096,60539.319877543436,60485.78744957298,60435.74189373755,60439.51933855049,60455.232614902576,60497.90209506776,60597.210895682685,60730.96373450324,60863.084895978565,60947.306269086155,60956.470484312835,60972.72020253184,60971.66967054244,60939.19258584888,60921.08767284008,60923.546364730166,60830.94308745183,60774.81785712455,60692.45167880675,60641.82497761548,60607.44799464322,60604.22934344165,60595.95919799319,60573.96508144916,60515.24704876507,60447.185986898665,60360.95295679009,60244.388609455666,60148.119646086656,60081.24322667638,59940.18136741893,59765.636594967444,59690.51238185315,59592.52233416108,59468.89483557879,59357.69490691363,59276.35690884077,59224.746730893465,59078.05223203328,58926.68621858195,58783.79151627917,58566.35374621794,58385.416374852226,58247.90844296318,58027.47553914494,57842.24663284381,57622.61839182596,57351.312917627445,57084.0754609198,56789.27830329875,56521.32559076853,56259.18433179669,55938.950888985506,55590.33073071608,55228.29952577347,54876.63953025813,54535.84248254806,54175.84528635089,53791.01530206386,53364.07463122304,52954.70243152409,52606.439901165955,52259.741992919684,51924.17525341216,51570.45889740693,51190.8815730669,50804.82224283484,50468.58495099365,50156.6887088643,49841.57381553338,49602.566612072784,49326.45551281638,49001.32703796948,48704.13824369171,48441.54994983077,48155.9170074364,47907.03033292655,47685.83746979684,47469.76315614738,47215.176786801436,46977.98007464172,46781.508240879564,46604.79534921591,46442.20876004801,46293.569659420216,46065.91714214291,45861.8233635215,45650.55467492994,45411.21219530251,45119.07489527165,44796.650981503844,44495.59533543531,44162.017901184314,43831.145028012405,43457.11093629729,42992.68639000492,42442.34173802635,41912.44893222439,41356.89632378773,40797.58862228258,40250.596731972306,39626.89365469142,38952.11684133016,38342.629473522844,37813.206054354436,37292.164539356774,36769.044312124766,36220.15252353579,35557.40094869148,34946.661883194676,34447.34626380757,33987.88380478428,33558.663256009015,33139.1210125829,32726.261940748926,32336.045186048173,32047.975903508177,31753.357559842774,31394.96968924638,31051.62454266841,30801.352060002337,30584.16015913012,30384.872005566598,30204.560483045636,30099.730801550246,29962.60284931694,29817.495324313084,29723.26036968951,29697.153532165714,29658.037979368924,29652.248877555,29624.152734774678,29570.597955059762,29575.023600461915,29560.360856099232,29593.463789637543,29637.00498783648,29694.650136786717,29744.382768199775,29823.709109271662,29942.374520584886,30041.14687933289,30148.25643876272,30273.31444899016,30405.323851743207,30560.154385585116,30696.902358162686,30852.470499571624,31056.4301677263,31232.360748334024,31411.88995979905,31596.604775977707,31783.979449746545,31957.406634975272,32136.086480150996,32284.032676700674,32478.09052206165,32666.26985863088,32797.25108113898,32902.84072194585,33059.63820929983,33271.555098480596,33436.91330396096,33557.07628215269,33661.25776305888,33789.288555298874,33940.34164432784,34148.59284741794,34294.57209045554,34396.0713620271,34574.93002115846,34751.173526188555,34934.79310688891,35106.36509732784,35225.76811620809,35367.925210943846,35520.47586685132,35635.743813007335,35796.8998905301,35927.92581652711,36060.091681491336,36223.818209626465,36365.99765610667,36499.23640480476,36650.73652872283,36775.2804488278,36894.459950263496,37092.6081648598,37292.14218761232,37466.12816645243,37614.90137754696,37817.09525788966,38029.369774981715,38235.40815537074,38502.42209463383,38758.19310643591,38980.123577132654,39204.333925763836,39496.73944672816,39750.252932340256,40072.16275598559,40344.69757612915,40577.781567309095,40865.895553338,41184.83259497078,41431.3276328239,41686.472795781236,41987.2602209163,42283.063207037834,42563.28702727402,42801.89189933442,43006.924451222956,43290.813957549806,43598.35160951038,43842.879693851435,44106.20559527941,44376.34877876625,44662.853439194376,44914.89170967242,45149.920302619976,45405.22192778849,45650.12999178529,45876.486107884186,46116.25327065626,46396.65590484809,46653.164524217194,46855.60427374891,47049.7068225988,47182.319722452135,47333.64103241456,47527.229491141974,47686.418615152674,47882.64457972581,48115.125073805466,48349.63957663054,48517.07649434525,48640.21225454954,48765.046747332424,48877.14074577579,48972.627398088865,49092.11982394694,49200.68224676636,49350.66245206147,49526.66008790256,49686.85504041374,49813.81294891989,49948.616319729845,50122.31172589204,50207.4495205223,50345.80681870065,50560.048289304774,50694.337569992254,50776.413175632144,50870.98340642255,51003.86452720935,51129.10135139243,51221.950497859776,51319.18058624036,51443.925672045436,51558.34425191215,51630.24981382487,51706.491614161925,51791.428243092094,51894.2462675865,51991.454004222636,52111.818148114464,52239.02192580962,52338.08485723554,52408.872831925495,52467.34499542058,52529.37108628405,52625.48358744188,52709.95082973848,52763.930292598045,52812.29946759933,52901.304114020364,52983.82675454936,53071.825572469905,53197.28591409754,53289.15158380885,53410.34274224553,53502.878964290496,53598.27620962575,53681.491754232855,53737.46052234895,53816.09395934272,53933.731190410996,53991.10811842777,54052.12838079076,54059.0574215719,54110.57819254139,54175.062975294946,54197.28060928352,54133.30991665243,54065.31591001939,53956.39585928868,53760.16989471554,53538.664107163444,53330.904642451365,53074.55248529345,52735.700039350995,52383.280084524165,51990.58228618888,51572.269388707806,51158.94093024027,50748.04881191836,50309.59699268306,49892.96047603613,49478.894410001565,49053.87598918391,48586.7692335569,48124.132826820955,47696.29808620192,47299.42051165349,46907.23680344067,46524.06084824334,46118.95783173536,45721.47676008663,45387.63110490216,45150.680261931455,44914.19880559431,44700.71729430167,44476.23872473702,44276.99527466241,44160.766203494815,44037.74220201281,43923.59184307955,43790.77777752612,43693.70415135672,43676.87328778187,43617.574109741945,43565.829821327905,43553.670472344216,43576.51395517754,43607.493472992595,43639.32235709696,43681.70126458422,43754.031509641594,43835.05658329208,43946.86000905753,44003.812253929646,44050.81797251916,44160.09565116116,44257.862181408665,44330.88533054416,44478.47389918255,44680.466613825156,44859.88406656791,45010.356010241034,45182.218573357895,45322.2969558593,45475.272294911425,45641.435163192175,45847.674709281295,45998.325466910064,46110.50887233125,46232.527045312774,46384.18363144203,46530.16287447964,46679.76310011901,46817.36043898588,46884.25921014061,47001.71762725325,47193.09326327959,47317.570128151194,47459.28018799784,47605.684114180105,47660.088260184326,47737.58175821087,47842.880826339824,47928.242138414644,48043.06304968155,48103.435111455336,48081.9997885227,48085.84428856901,48155.179399869376,48200.10640622454,48314.703800046904,48362.98356807036,48359.87667559108,48419.24290886437,48471.858915312165,48489.15916552057,48533.54973000881,48639.25112953796,48706.44047337061,48729.77569458195,48820.94846021515,48935.277633104044,49049.249178081656,49127.30146971959,49275.15825929144,49403.52432769827,49473.105308187645,49583.00883567439,49640.49752241344,49771.746965855,49939.519159736534,50050.87555061287,50160.4885054217,50322.38219051149,50477.32448307568,50563.91514109554,50637.228862908945,50798.20612647607,50976.438936762686,51046.824580052446,51129.950717681735,51242.357640547474,51359.63724370447,51470.79246888071,51607.40633099155,51696.03099775684,51835.57293839133,51983.36267272982,52101.08931077592,52157.59452075893,52252.209455038246,52383.704767668816,52540.25638583379,52626.444712453456,52664.08505011619,52705.10050119168,52770.74757465692,52800.430691293564,52878.05829978685,52974.57313234486,53070.73033699159,53129.18014874222,53217.581298062956,53255.98159503718,53330.92699419582,53352.854055506476,53379.60909361948,53399.03275955114,53415.88597487044,53446.329050818575,53515.395941185474,53555.69613643839,53533.05381930516,53480.81779251311,53451.60406251002,53484.997568726256,53554.66795619344,53604.26647713977,53609.67559929796,53632.42967515346,53587.949703687395,53548.945909612885,53531.60095591557,53473.01703369821,53441.210501338304,53514.770092340725,53518.83810983159,53497.60395259905,53453.72747823328,53414.790739392134,53337.543110554594,53308.821118929525,53293.06313908853,53240.581243107474,53203.030312422554,53189.28398958254,53127.70493360817,53069.76921198001,53032.91118537321,53011.34175197384,53021.04240906744,52990.241705208035,52937.13396038222,52912.345875781284,52903.673398932624,52896.073805817825,52826.9175084731,52803.157604117114,52774.54737121432,52767.12659205516,52750.787466858324,52739.544539397306,52686.056814915755,52686.99558818288,52669.60593099665,52582.14355494304,52531.91918515196,52483.751175850775,52383.637712435455,52245.6827456573,52073.95429300718,51902.62817175724,51757.65475722012,51568.80486831723,51316.610135628005,51049.3503271759,50763.71738478153,50455.21860780938,50052.10489655792,49631.57917637577,49235.50626462773,48798.484957037566,48323.53273910675,47841.830294350424,47396.89646922308,46952.38732724039,46554.05688930237,46072.93558990188,45563.6063889988,45112.41407542397,44633.37148825783,44156.04998541474,43710.13268353137,43320.318260230815,42924.20064499386,42542.74577411959,42197.25486007391,41839.4257830889,41520.82401762295,41224.7304588235,40929.15099014652,40654.64921649089,40395.52544302052,40227.328565994336,40066.731282082954,39933.31371942922,39859.374148771065,39752.15283061896,39674.748739570234,39691.62430663399,39701.883757338976,39719.13930405847,39694.01594329071,39730.404583263946,39830.67450889046,39956.067795284725,40128.28798631287,40270.668598493176,40405.04728615848,40555.966264720715,40684.041760449625,40828.679898819915,41012.21007254244,41189.70527526204,41403.9243941217,41648.54188544058,41917.63453693802,42207.7601799679,42411.29516497793,42622.85442624741,42907.61565060802,43121.566548534225,43348.548513477865,43565.24867597207,43769.543620293574,43898.803758478614,43994.737445680796,44121.82946465367,44257.593960475206,44375.78998515487,44489.22508826555,44552.033490184964,44636.65719469276,44758.00481534062,44818.5780428145,44829.57510108651,44917.3504015625,45008.88079510698,45072.58326680461,45113.37520043555,45180.05045414573,45255.889923082585,45355.80222079781,45471.7854227764,45484.771786304926,45492.6396003532,45534.83969388482,45608.39928488723,45699.01325690905,45775.9032578353,45861.55514258804,46005.27685943567,46068.26407531072,46146.27166345974,46217.506673038806,46293.7261216314,46365.22935214393,46458.413774778106,46565.18805804111,46640.312271155395,46743.554978794455,46830.12328506986,46890.13771893236,46943.93836783629,47026.57276708756,47101.22759356828,47332.29992774724,47445.42210643555,47521.440389328054,47622.2914603104,47771.77992722749,47932.73483905016,48129.27372804567,48254.06351733965,48380.37322525659,48497.74223539141,48649.86820815423,48864.51201015854,49055.731183973694,49221.4693691098,49415.03547609276,49612.58019358876,49817.411579777196,50008.2060704477,50208.07536936705,50388.83392677712,50573.30287376677,50788.99720776048,50984.84319267788,51193.96611380173,51428.05593348217,51596.36456923063,51774.016234161405,51934.63586981725,52006.116748585315,52169.82092497599,52344.23158696075,52483.6394171285,52652.21627381042,52750.228673246944,52832.57249982029,52905.48389023351,52978.39528064672,53077.43586032819,53162.19367530271,53270.26435974412,53337.967793699245,53427.64299245393,53551.0916770806,53545.459037477856,53582.0488431512,53631.40149490852,53602.433634094436,53550.64464219149,53427.77710292067,53319.52760452362,53229.24890866863,53090.779851768006,52916.548003738884,52747.993498801414,52552.952176684405,52335.469703134266,52097.580086896436,51903.41048281318,51643.16912212004,51412.99085771929,51250.94071041831,51092.310380019,50934.01532578652,50773.70861455305,50597.88979266761,50410.91745029896,50287.133489505475,50213.39508454742,50112.4769583317,50019.35959093089,49863.187952421664,49732.184378169106,49693.44880502806,49698.634409741695,49694.40993003964,49692.53238350539,49698.902630675155,49746.310680664865,49755.743116825004,49846.692365013645,49908.40553145475,49948.57161624094,50017.45969265219,50075.68598695827,50080.49161201616,50088.515888275615,50141.75774356815,50203.00152337569,50252.376526877466,50308.76997813821,50384.11770869705,50425.11080802808,50509.26512590231,50519.166948696016,50394.53362161322,50227.4543318098,50069.7180711887,49866.09367920085,49673.15342106264,49432.425133278986,49159.44327824632,48864.51201015854,48508.94045936352,48071.15919246188,47670.12419344475,47240.88129292504,46808.88912783732,46371.21961965795,45962.07093740356,45571.384796069244,45177.36824481109,44821.126141682405,44483.63715215173,44131.57482523618,43739.39111702336,43403.10912169327,43113.83284495269,42813.827730873556,42549.540704434,42307.247794538474,42165.51538294737,42038.28925350777,41840.252797633744,41729.4999038577,41656.52145821112,41606.45355063123,41643.7809638716,41635.10848702294,41567.896791445826,41605.782998297575,41645.6808621503,41636.20372250125,41654.26393202114,41733.12088645946,41838.017623188214,41979.794738268225,42181.34041802173,42398.286449704945,42602.64844925982,42809.08916104903,43038.95450102741,43269.08806193925,43442.62700589025,43695.581697890964,43992.703436935364,44303.43738835304,44587.05867374643,44880.71589240026,45152.06607008768,45450.104230654746,45708.71391400265,45968.32942585104,46280.136261002575,46625.98480295954,46936.67405088831,47216.76376065776,47495.7582349489,47788.20845940214,48059.42452662284,48338.977794525366,48552.50400930691,48819.026210191994,49041.85075066695,49222.184624932364,49391.58849615914,49588.596771788216,49797.49617546752,49941.12848533732,50064.733632175165,50137.935595266295,50194.709026182776,50315.96723985282,50465.23218932536,50530.56633836822,50513.71312304892,50508.035779957274,50484.11941339009,50454.88333164255,50423.45677893839,50437.76189538978,50562.372870728126,50622.85669122419,50618.96748768896,50646.21426417998,50631.81974075076,50582.46708899344,50594.20175483248,50634.65841229659,50724.73594245147,50762.353928369754,50789.66776009414,50876.63839776974,51025.41160886426,51200.64928539387,51411.1356629295,51629.35574404666,51848.894578086685,52031.79890296447,52161.23785510515,52324.60675532899,52502.750158637784,52671.103497875156,52828.99622070745,52997.0589872669,53179.78449818904,53358.106715453476,53519.083979020594,53669.71238490491,53730.06209493424,53794.79274687681,53952.819580175834,54099.983465669575,54282.865438802895,54425.693085872306,54554.64029963497,54685.621522143076,54835.847596627194,55009.07361615582,55153.95762371512,55328.56945139998,55516.45821529129,55672.07106018914,55875.5389899658,56034.66105874313,56137.0991035818,56307.48645156461,56528.56755597205,56752.37557320304,56929.51314801135,57016.37202696467,57104.7284727965,57260.162503738706,57440.54108149304,57528.31638196902,57569.44359176679,57615.845813256004,57687.03611934616,57761.93681501589,57829.32732454864,57900.60703761662,57983.42025082353,57982.325015345225,58033.711675847975,58077.49874323592,58134.76391253041,58201.79679415188,58215.36430303625,58187.37991897821,58226.316657819356,58234.542099778904,58214.358474535766,58214.24671581349,58250.45654183109,58291.91902779568,58328.10650206882,58302.46905117858,58309.263981493,58318.584658930864,58284.14062072523,58280.54198986793,58278.99971950051,58215.36430303625,58145.31393591332,58184.071860798824,58200.05335808437,58214.89491640269,58222.06982637285,58260.000736713504,58197.79583189438,58148.420828392605,58143.99518299046,58113.70856925352,58052.19656851251,58000.564038820754,57967.68462272699,57898.79654631574,57873.203798914416,57855.32240335017,57793.96686482035,57753.10787595605,57652.36856369598,57606.07810092904,57564.81678066454,57475.7674307546,57409.87448810035,57270.53371316597,57141.47474068103,57061.05316413083,56968.204017663484,56858.27813843229,56759.01404130627,56657.604176712535,56523.89604138089,56490.79310784258,56460.93117725029,56427.671781500794,56364.416344692276,56261.66537543123,56177.332243601355,56058.353907865756,55864.29606250478,55694.467508133355,55580.80888757812,55481.90241836339,55410.846222739965,55293.87954400534,55151.34246961385,54948.187464259565,54704.95578109691,54422.4967864152,54081.34211079385,53724.38475184259,53390.62850363595,52996.611952377796,52518.284621034225,52014.90098415625,51447.546654647194,50899.4148253697,50411.31978169916,49837.885777698255,49239.686040840876,48691.39774935219,48153.771239968686,47623.587861488806,47058.64752038092,46460.425431779084,45950.80565819808,45468.61147506374,44916.23281433974,44412.446846061575,43967.46831744532,43541.511123360535,43126.50628405884,42672.69881638275,42304.34206775929,41999.0619419887,41704.845929723495,41453.2323423901,41242.187171243095,41022.40246801406,40793.565308280624,40630.33051852352,40539.89536045735,40438.12786795233,40249.07681334935,40119.794323419854,40118.90025364164,40132.60187299274,40086.42316894808,40064.78668031534,40112.865282638704,40181.95452475006,40218.074943789834,40266.5558775134,40333.231131223576,40409.785855983006,40453.617626859865,40517.364802046395,40570.003160238644,40662.60643751698,40847.25419846227,41041.78143045681,41175.44486229955,41288.947020643594,41477.52868861302,41630.66048987633,41773.68930264584,41944.34487156211,42133.61944360965,42304.543233459386,42501.70797129965,42701.71138068574,42860.49817329623,43034.57355911417,43218.3496020257,43432.389906929726,43660.40005211831,43838.65521414938,43973.77150938172,44096.41553120798,44281.04094040882,44472.46127992407,44652.21400883365,44764.95620786622,44835.72183081172,44928.68273600134,45032.93127214089,45180.810413457206,45322.31930760376,45413.22385230349,45565.75215646651,45627.30886069642,45725.3436118774,45871.993407248665,45956.930036178834,46054.048365837145,46169.33866373762,46327.320793547726,46484.00652217943,46625.91774772618,46753.568560310436,46822.72485765516,46909.02494299709,47005.00333368818,47136.99038469677,47295.79952905173,47446.919673314056,47548.351889652244,47638.876454696234,47781.39117734328,47954.84071431646,48077.73060533174,48226.43676119289,48382.18371655747,48581.24835267643,48778.03311086096,48904.07459784444,49027.5232824711,49175.357720298496,49313.89383243249,49456.16268589052,49603.19246091753,49777.67017813566,49907.95849656564,50086.548934763545,50214.356209558995,50359.888417707494,50482.800660467234,50679.3619012072,50932.942442052656,51066.87409482886,51123.84869144543,51228.5442624741,51413.32613388612,51592.38595871758,51771.98222541597,51945.029430988965,52030.01076340804,52058.73275503311,52110.007656813585,52177.822849490985,52289.64862700089,52427.80475947914,52511.73555990882,52639.38637249308,52692.203544640965,52726.82639680224,52798.910772670606,52861.51800888992,52954.501265823994,53045.338755290366,53066.9752439231,53068.83043871289,53100.972247239624,53202.3597600889,53249.23136821167,53237.54140586155,53203.09736765592,53229.07009471299,53253.54525489155,53238.1672547063,53250.080734500974,53240.29067042955,53244.76101932061,53244.559853620514,53227.34901038993,53225.47146385568,53205.73487350165,53190.75920471659,53200.37045483237,53282.46841221672,53308.0835113625,53271.94074057827,53217.84951899642,53181.796155190015,53136.31035522346,53051.73135420458,53036.57687146388,53000.4117489352,52965.207751418086,52996.05315876641,53059.21918859711,53037.38153426428,53017.086150298856,53004.278600725964,52956.28940538042,52915.40806477166,52873.78911659588,52823.67650552708,52779.196534061026,52686.481498060406,52642.67207892801,52610.03853202326,52524.16312982597,52481.31483570515,52445.3285271321,52386.87871538147,52333.21217694428,52307.68648477632,52278.04807162858,52216.11138774292,52135.48864549263,52051.982528207605,51986.51426869801,51942.39192514324,51907.92553519315,51842.949014061574,51762.86271367821,51690.57717210975,51626.82999692321,51587.55798191523,51533.466760333395,51492.987751124834,51406.35238961606,51329.08240903407,51281.316731133076,51248.303204572585,51248.70553597278,51201.99039006119,51115.22091808569,51067.67875762925,51055.38529817883,51025.18809141971,51005.20563187667,50965.84420989087,50909.49546211904,50902.58877308235,50914.32343892139,50941.72667762359,50892.28461888846,50825.0952750558,50712.12955857868,50586.98214137342,50509.354532880134,50389.92916225543,50229.80126497761,50017.347933929916,49732.050267702376,49456.2744446128,49134.454027945285,48805.90573619673,48431.804589248255,48034.97171818873,47606.06409383585,47134.03995442867,46644.73791655754,46131.45245688587,45650.040584807466,45164.89597140503,44714.53067237505,44241.008966089365,43746.78954443807,43240.12020112517,42811.458445961296,42389.21164145609,41988.400159883524,41588.6168585559,41283.96258163006,40984.04687452875,40716.94352828783,40449.75077506909,40185.95548700756,39966.349597734166,39803.76300856627,39660.75654754121,39524.20974066374,39450.47133570568,39411.959280009185,39368.52984053252,39311.085857282385,39248.85860071881,39276.84298477686,39288.75646457153,39248.098641407334,39286.275420936996,39341.37247101933,39422.576358625454,39521.19225516227,39592.42726474134,39716.79237089067,39844.57729394166,40016.90924369207,40152.025538924405,40297.53539532845,40441.63709183181,40583.16833772282,40774.54397374916,40986.036179785275,41223.389354156185,41403.43265574368,41614.50017863514,41857.08366120859,42095.39796059108,42277.967009302025,42493.214308406634,42736.62480552492,42936.40469746646,43114.81632170872,43345.46397274303,43599.670362433244,43784.11695767844,43972.83273611459,44157.14522089306,44342.82116208329,44523.177388093165,44648.74948844308,44753.57916993847,44826.088228951485,44901.77123567715,45048.66690023743,45233.448771649455,45401.712703909005,45493.6901323426,45513.69494363009,45529.67644091564,45553.52575224945,45645.1232010273,45784.82160387297,45896.60267789396,45991.08350170655,46084.98318016329,46173.317274250665,46286.01476979432,46477.81508896531,46671.29178897045,46781.39648215729,46909.71784707521,47065.08482278405,47234.30988005518,47422.71273406896,47618.22344281953,47832.62137563484,48006.69676145277,48173.910161722924,48323.04100072873,48488.60037190919,48663.703937972066,48850.989204763086,49068.82930622451,49289.105747831556,49537.1430560521,49769.78001234293,49986.793099259514,50248.107343686504,50493.99888443934,50683.161697764604,50896.240877657045,51144.30053762204,51378.03272939119,51645.02431690983,51914.76516899648,52127.486720977635,52287.1899351108,52434.5773380491,52612.40781693552,52789.25481906591,52950.030916932934,53045.517569246,53139.081971535925,53286.69289191877,53378.67032035236,53453.54866427764,53533.277336749714,53587.59207577611,53667.27604475928,53721.25550761885,53769.8929035536,53887.48543113297,54034.58226139334,54116.79197749996,54212.90447865778,54290.912066806806,54343.08103836549,54413.667847355355,54482.667682488885,54540.759866328226,54582.46822148183,54576.16502954543,54556.2272734913,54534.61313660302,54499.76676699719,54480.11958362098,54459.041888599626,54417.11001600147,54390.042053466095,54421.82623408154,54454.63859494193,54402.00023674968,54338.8789104079,54310.78276762757,54290.44268017324,54241.58176679394,54156.041640763484,54123.36339036982,54109.684122763174,54051.18960752364,53999.4453191096,54040.55017716291,54044.193511509126,53954.94299589909,53829.16972984907,53659.832913855666,53518.65929587594,53357.50321835318,53226.07496095598,53128.934279553214,53020.77418813398,52914.20107057108,52772.37925200215,52653.71384068893,52601.50016564133,52531.069818862656,52428.11768390152,52308.848775488,52238.351373475954,52133.052305347,52044.94172870419,51980.456945950624,51951.75730607001,51954.03718400445,51943.10718096581,51944.5600443554,51934.390000628235,51925.91868947967,51949.32096592438,51971.85152433533,52057.30224338797,52145.099895608415,52249.95192884826,52346.869092806475,52427.402428078945,52543.67620273545,52513.3448855096,52330.66407807638,52059.179789922215,51849.69924088708,51649.20409312297,51488.159774322485,51321.68398161936,51180.10803223944,51094.925534120266,51045.66228934077,51003.66336150925,50921.766569825006,50853.23612132503,50835.48883622752,50876.16901113618,50936.36225895432,51026.32803038693,51077.178249022756,51185.91948579782,51260.28373960063,51286.39057712443,51298.43816738584,51308.00471401271,51238.22256782324,51104.156804580314,50955.20477953015,50745.56776828382,50528.91230927853,50236.573843547565,49967.16826762775,49673.198124551556,49379.16092624199,49098.735940305705,48853.224379208616,48588.825594046786,48311.70866628989,47998.87365089341,47731.21151104111,47438.314251698765,47085.67077942738,46770.60058958538,46470.03668189486,46127.876177773025,45732.96555673666,45347.755592793896,45010.66893466341,44712.38490490734,44496.62351568026,44274.33541707223,44017.75974246976,43778.26080063114,43571.06012953045,43379.12569989273,43213.74514266791,43153.216618682934,43243.56236977129,43372.0849003893,43581.96778082464,43824.595966887,44033.607129288575,44168.16463090952,44293.40145509261,44386.2282498155,44474.76350960297,44603.88953732128,44795.265173347616,44921.731343475745,45008.344353240056,45084.85437451058,45201.016390444805,45328.57779605124,45390.42507295908,45462.91178022764,45498.60751612276,45579.721996751075,45676.59445722037,45731.60210032488,45802.367723270385,45896.44621568277,45939.56273073706,45961.37803332544,46008.94254552633,46069.44871776685,46169.740995137814,46220.61356551809,46286.126528516594,46370.43730860201,46441.85113213672,46531.816903569335,46577.45916574707,46671.58236164837,46818.25450876409,47006.5456040556,47139.04674518666,47219.60243220359,47321.436979941966,47440.1470947441,47642.72095474255,47844.065468795954,48016.71034296875,48254.17527606193,48452.12232495813,48600.0238180189,48752.88739834874,48892.518745961046,49136.33157447953,49411.570955702184,49679.23309555449,49949.30922380796,50208.58945948952,50407.430578163934,50576.32035926823,50717.65043945914,50895.4138631122,51087.68356891675,51261.4013268234,51360.374851271496,51459.929521075435,51554.87973152158,51684.20692493999,51875.00141561049,52016.62206847931,52157.43805854775,52367.142125027436,52579.95308398642,52804.87868844017,52934.47410279204,52989.258228451996,53041.29308954395,53083.33672086438,53016.30383924292,52891.75991913795,52695.86923073164,52488.422690441934,52265.17346682233,52021.02536213701,51771.28932133786,51478.50382071779,51232.634631709414,50968.951102370156,50686.73797687745,50410.82804332114,50221.03938115113,50098.59652502496,49982.255695135085,49841.70792600011,49726.998773455474,49655.272025498394,49542.95450961048,49396.95291482841,49340.201835656386,49239.395468162955,49118.874862059936,49120.86416731646,49058.01106190814,48966.36890964138,48925.53227252153,48901.34768502089,48897.190260552205,48878.07951904291,48831.051448708946,48812.387742088766,48824.25651839453,48848.37405066181,48821.5743090599,48830.71617254212,48837.980489490095,48836.371163889315,48867.261274726545,48948.24164488813,48977.231857446655,49007.02673280558,48945.82765648695,48867.73066136011,48810.152567643236,48824.211814905626,48835.96883248912,48779.35186378382,48737.19647374111,48698.25973489997,48701.41133086817,48746.181875012146,48785.52094525349,48823.76478001652,48880.64996965528,48903.31463853296,48895.17860355123,48913.261164815565,48953.27078739057,48933.28832784752,48911.383618281325,48903.0911210884,48905.12512983384,48831.63259406479,48736.324755707356,48592.603038859736,48516.09301758921,48482.140717761606,48427.87068222412,48397.80758593173,48349.39370744154,48247.17918004742,48120.57889945256,48030.79194197559,47970.10695577943,47911.590088795434,47804.27936366551,47713.46422594359,47668.78308877744,47579.55492491185,47437.129609242635,47293.944334261934,47198.63649590451,47120.4724455443,46991.97226667074,46852.18445684725,46731.70855423314,46613.33371559784,46487.11341465872,46363.664730032055,46237.9138157265,46111.715866531835,46054.5177524707,46018.754961342216,45994.39155988593,46048.01339483421,46086.68191274189,46101.07643617111,46172.28909400572,46247.94974898693,46340.12834312062,46369.36442486816,46448.690765940046,46514.6284120832,46567.42323248664,46671.80587909292,46792.75116834059,46897.916126002805,47077.89237235694,47265.78113624825,47524.90490971862,47787.448500090664,48055.825895765534,48295.50365155979,48534.19793059801,48756.955415839606,49015.542747443054,49236.6238518505,49491.52314561882,49702.59066851028,49831.00144040602,49901.14121450677,49857.8682372413,49693.91819166162,49515.43951218599,49294.067835100635,48901.14651932079,48356.009823800305,47798.93729674069,47216.227318790836,46606.31526783887,46033.708278382815,45480.27908566941,44928.727439490256,44412.93858443959,43927.83867452606,43455.05457580741,42955.62719769802,42510.67102082622,42060.93157064099,41669.753690928665,41289.77403518844,40878.457233721885,40472.03546429103,40079.1588520001,39671.23951569075,39203.12693156325,38744.35737661808,38273.629638389306,37844.945531480975,37527.10372532651,37240.12967826482,37015.114666833244,36764.39514927806,36546.867972239015,36350.06086231004,36205.31096521747,36087.76314112701,35952.222162750026,35876.42739730208,35814.17778899405,35745.96026491645,35743.76979395984,35799.13506497563,35929.222217705516,36033.22488465606,36187.69779058669,36358.35335950296,36527.51136154072,36682.02897096026,36827.270606430844,37054.543144052404,37273.724350181146,37442.88235221891,37682.336590568615,37892.82296810424,38108.53965384241,38352.128964916345,38643.90863703592,38899.34437267118,39170.0463497694,39444.43636470275,39748.86712418403,40028.75566825338,40248.96505462707,40530.2170551082,40845.8907420505,41135.301129257816,41407.67948719019,41714.03249669463,41943.42845003944,42153.020757796854,42385.36714140978,42656.382042930374,42893.69051381237,43074.449071222436,43291.48450988347,43475.439366750645,43659.95301722921,43787.62618155792,43923.59184307955,44033.98710894431,44172.992607711865,44327.66667934259,44439.291291152396,44514.12493158876,44560.05776644442,44604.91771756622,44649.46474426565,44747.70066114672,44902.10651184399,45076.49482208429,45227.25733843534,45355.62340684216,45482.06722522584,45629.74520084205,45787.45910971869,45888.220773723224,45984.33327488104,46073.91906665791,46236.57271105918,46350.45484905897,46426.76370462939,46472.316559829305,46570.37366275474,46706.56284172092,46798.24969747659,46925.185254238284,47061.441488437835,47186.231277731815,47390.48151856441,47533.93501447857,47662.21167590758,47789.59426755837,47910.31603936148,48101.42345445436,48332.316974677684,48508.627534941144,48696.605705810274,48897.65964718576,49146.03223157314,49372.209533716385,49553.57158822675,49737.68290730511,49897.095548760364,50046.13698078835,50225.48737829774,50385.03413021972,50456.73852643234,50502.2690298878,50600.12496711314,50672.8575435707,50671.80701158131,50677.12672676167,50642.52622634485,50574.57692320072,50578.376719758126,50629.741028516415,50689.82251761229,50731.35205881025,50771.585198829795,50852.99025213603,50991.83928869239,51132.49881654964,51281.74141427773,51408.16288091694,51560.311205424216,51748.222321059984,51912.172366639665,52049.2332636396,52228.76247510463,52366.13629652695,52426.910689700926,52491.19430675439,52556.26023486379,52601.1648894745,52632.18911077847,52638.581709692684,52580.66833980899,52518.1952140564,52429.838768224574,52329.47943562025,52212.37864641889,52158.82386670398,52122.949316853206,52108.465386446165,52069.12631620483,51992.92921935669,51918.29674462041,51857.92468284663,51871.78276440892,51922.38711385574,51984.86023960832,51978.512344183015,51956.495875894536,51970.35395745683,51953.90307353772,51976.88066683777,52002.495765983556,52002.629876450286,52104.33031372193,52147.066849120485,52194.22902992118,52231.46703618372,52270.15790583586,52295.57183928155,52385.64936943643,52424.4743495553,52410.213936592816,52367.81267736109,52297.13646139341,52224.2250709802,52210.411692906826,52177.4652215797,52053.50244683057,51954.70773633811,51943.688326321644,51886.66902621616,51783.24750462145,51689.05725348679,51566.27912119379,51472.222980525854,51421.14924444548,51382.033691648685,51301.76857730968,51160.5279040966,51061.95671104869,50975.83543966239,50881.75694725,50830.50439721399,50795.76978633044,50852.58792073583,50876.14665939172,50846.68706019963,50809.11377777026,50774.178001186614,50725.875881418695,50732.6261082442,50730.39093379867,50740.53862578137,50760.543437068874,50784.83978329179,50745.85834096174,50724.13244535118,50699.3667124947,50701.71364566251,50698.204421783026,50707.18982305406,50646.88481651364,50669.19185748004,50705.35698000872,50656.943101518526,50591.3407315422,50536.1766262265,50518.33993415117,50416.63949687952,50245.62630005197,50088.98527490917,49929.63968868729,49708.44682555757,49457.570845791204,49250.571340390605,48991.760491342604,48664.84387693929,48366.358681483114,48010.27304056562,47614.33423928431,47263.63536878054,46917.2727367011,46548.78187761091,46178.88285862003,45803.284144793055,45461.57067556032,45132.26242450028,44795.37693206989,44483.79361436291,44102.00346732181,43694.88879381285,43304.6720391121,42894.51752835722,42510.760427804045,42153.33368221923,41817.99046015626,41477.46163337966,41147.08049858576,40823.69545980638,40514.280261311564,40222.12060953624,39993.328153291724,39816.92818605044,39584.73826464871,39398.43647461373,39274.943086498155,39211.754704923,39134.46237259655,39047.670548876595,39005.649269300615,39011.5054263479,38971.115824117165,39001.00010645391,39039.93684529506,39079.20886030303,39136.22816040852,39236.47573429057,39280.19574644515,39337.080936083905,39424.52096039307,39541.5323426166,39654.87803874946,39801.68429633192,39864.917381395986,39962.996836065875,40078.197726988525,40189.86704228724,40317.3166891714,40442.32999590993,40583.41420691183,40759.14362181945,40953.62615032508,41167.018254639894,41371.04497802794,41649.19008602978,41889.09135926859,42046.82761988969,42177.38415925314,42328.07962037082,42508.234680680594,42665.99329304616,42851.512772025206,43023.554149097705,43149.2827116588,43269.28922763935,43378.7904237259,43515.493692814554,43634.02499366105,43746.92365490481,43904.10112191452,44019.21260585936,44061.85973428008,44172.70203503395,44301.24691739642,44368.480964717986,44411.64218326118,44463.0958989973,44479.36796896076,44508.53699547494,44502.7031901721,44483.391282962715,44499.64100118173,44542.64575751374,44520.62928922526,44459.00552976198,44445.907407511164,44488.42042546516,44527.7594957065,44553.039318685456,44556.05680418692,44594.747673839054,44579.1238044648,44535.49319928804,44549.70890876161,44539.449458056624,44512.8061786659,44453.28348318142,44454.28931168191,44494.9024313572,44593.093644749366,44692.73772153112,44730.71333536069,44744.75023087862,44794.81813845851,44936.88582621644,45101.5958311076,45169.14280285154,45202.64806779004,45324.84505472721,45398.13642479616,45522.97091757905,45665.46328848163,45803.59706921543,45921.68133517281,45989.809452272595,46075.5283922587,46194.81965241667,46351.88536070411,46515.522481861415,46631.66214605119,46710.630859211786,46848.496419012125,46963.29497853458,47042.73307832874,47121.65708800043,47151.47431510381,47187.840603332595,47248.05620289519,47273.85011599662,47311.13282574807,47350.62835820059,47388.29104760779,47435.877911553136,47538.87475000319,47677.544972603915,47757.60892124283,47839.61747164935,47969.25758949013,48139.39906828393,48275.834116439124,48473.200019979486,48618.531062427886,48756.821305372876,48905.929792634226,49093.550335592074,49356.80918178668,49613.18369068905,49799.776053401954,49958.339328567905,50101.21167912623,50204.96847688776,50255.41636412339,50386.15171744248,50484.834669212665,50577.48264997991,50672.6116743817,50726.70289596354,50766.89133249418,50778.447184377575,50840.78619966343,50906.232107428565,50954.10954405183,51016.51561457105,51141.03718293157,51266.698690259305,51417.79648277718,51572.38114743008,51690.51011687638,51777.592513274256,51860.137505547704,51953.25487294851,52044.561749048444,52116.288497005524,52188.05994845152,52265.39698426688,52293.62723751393,52309.474624332746,52298.23169687173,52245.839207868485,52138.77435192756,52006.42967300769,51906.003285169994,51801.26301065243,51656.33429960422,51561.987586258365,51513.59605951262,51546.34136513965,51580.584237645184,51555.88556002207,51580.04779577826,51595.895182597065,51567.68728109447,51556.08672572216,51578.68433936648,51632.93202315951,51667.6442822986,51647.46065705546,51567.26259794982,51510.44446354443,51448.172503491944,51368.08620310858,51289.78804228164,51239.34015504601,51198.525869670615,51144.345241110954,51049.3503271759,50976.148364084765,50988.53123051301,50956.143552797264,50875.43140356916,50804.77753934593,50750.485152063986,50731.84379718826,50689.48724144545,50642.906206000596,50561.76937362783,50427.77066561826,50293.79430935315,50179.17456378634,50065.940626375756,49870.16169669172,49676.08149958629,49466.13156391759,49142.61241467147,48751.68040414815,48318.190672181925,47943.08369673297,47537.868921502704,47083.65912242641,46593.37360779925,46108.631325797,45634.03673577747,45210.381771371576,44792.20298435724,44353.371185466196,43940.93679677687,43510.2186811231,43075.47725146738,42690.51315671363,42308.030105594415,41907.26332751076,41491.18560447521,41129.80260012181,40774.78984293817,40403.46031230215,40004.235804585915,39655.392128871936,39394.68138154523,39157.08233798532,38940.426878980026,38735.34962360259,38498.95757424326,38254.31773117992,38043.45137398856,37891.25834599237,37764.00986480831,37697.53577679823,37594.874214514995,37502.82973084805,37431.59472126898,37407.656002957345,37350.97197901869,37325.558045573,37385.03603756858,37423.21281709824,37393.08266557249,37405.66669770083,37404.77262792261,37449.36435811095,37520.018222334176,37577.14928116194,37621.24927297226,37673.61941023105,37750.86703906859,37847.27011290433,37915.28647128183,37937.23588433694,37973.82569001027,38066.1830980996,38149.28688398444,38182.814500667395,38238.78326878348,38318.40018253329,38339.67904325474,38395.5137009041,38440.12778283689,38476.359960598944,38542.364661975465,38575.06526411358,38643.68511959137,38693.35069577106,38751.42052786595,38786.848042827616,38814.74301990784,38858.150107640045,38904.03823900679,38930.10037304168,38971.8981351731,39037.83578131626,39077.46542423552,39067.98828458646,39049.07870877728,39037.92518829408,39087.47900575149,39170.202811980584,39191.72754189104,39186.31841973286,39276.19478418765,39386.299477374494,39445.598655414426,39532.52458960111,39648.28427413515,39734.76317343273,39807.18282546793,39843.41500322998,39919.07565821119,39985.840318899194,40046.23473241743,40125.04698336685,40231.15071429619,40331.97943353408,40411.037553672504,40461.083109507934,40495.99653434713,40522.84097943795,40581.15668072184,40571.210154439235,40573.3782736514,40620.40634398536,40664.66279800687,40665.04277766261,40742.84920011154,40843.633215860515,40871.30467549618,40889.901326883,40904.27349856776,40931.14029540304,41008.0302963293,41078.77356753035,41200.88114748969,41316.39496283471,41437.67552824921,41622.68091710579,41823.01960265871,42017.14450325305,42271.48500340999,42581.39194028282,42901.24540343826,43227.22324457446,43612.254394561576,44028.17565538593,44458.156163472675,44827.51874059662,45201.46342533391,45568.43436580114,45915.37814323642,46228.23551037735,46495.83059499629,46762.084574947905,47053.685433111845,47247.63151975054,47358.496172248866,47526.49188357495,47708.47978693006,47826.18407323171,47929.87381575988,48042.88423572591,48113.00165808221,48133.54291123664,48130.25720480171,48211.61755461902,48301.96330570737,48460.12424947313,48680.02071142444,48944.97829019765,49254.81817183711,49610.456777865504,50056.6646524268,50511.27678290329,50852.29734805791,51195.64249463588,51569.0730892507,51919.48138707655,52150.79959044452,52322.1480634389,52482.09714676108,52588.75967130181,52649.86934064262,52710.50962334986,52779.598865461216,52784.270380052374,52798.15081335912,52831.544319575354,52828.3703718627,52821.44133108155,52783.73393818545,52742.74083885441,52748.23936799042,52708.296800648786,52628.3222589877,52560.64117677703,52528.7452374393,52501.02907431473,52471.68123384491,52404.31307605661,52354.84866557702,52258.91497837484,52157.90744518131,52030.189577363686,51889.53004950644,51730.18446328455,51580.91951381201,51487.44451849991,51372.98123514429,51245.91156791587,51116.9643541532,50953.17077078471,50787.54434437089,50602.78482470332,50379.22267666134,50252.84591351103,50105.95024895075,49918.06148505944,49679.25544729894,49330.72469600734,49086.844812255484,48867.618902637834,48599.19680347405,48289.75925323478,47989.88824962238,47648.42064957865,47300.00165700933,47066.537686173644,46807.9950580591,46526.36307792224,46254.275292667786,45956.930036178834,45697.40393130826,45415.12375058219,45110.98356377883,44824.59066207298,44518.19294907963,44182.849727016655,43753.048032885556,43329.10249580175,42834.57014972808,42326.00090813648,41827.534655038675,41365.74761459203,40974.88265930208,40511.553348488014,40072.185107730045,39693.077170023585,39264.43776660416,38861.83814547517,38469.20740237324,38076.46490054904,37666.668017705444,37272.51735598056,36922.421982577085,36599.036943797706,36303.435123376265,36004.27937558644,35751.65995975256,35526.71200355435,35280.5745936125,35027.530494633975,34817.93818687656,34640.934722534985,34500.67752607793,34368.623419835974,34241.620807840925,34169.69289418375,34142.133193270354,34125.86112330689,34247.25344744366,34425.91094087493,34594.2642801123,34768.83140430825,35015.77347705048,35280.328724423496,35527.40490763246,35768.55787856077,36041.27151265997,36288.19123365775,36545.10218442705,36835.943083279504,37071.66458030517,37308.123684897866,37547.555571503115,37757.88548682755,37929.45747726649,38206.4179428122,38467.86629770593,38665.16514601292,38838.21235158591,38893.21999469042,38955.15667857607,39092.39638953166,39206.59145195383,39280.68748482317,39384.95837270717,39474.83473716197,39583.6430291704,39750.476449784815,39889.996038674835,40001.15126385108,40112.0159163494,40188.68239983111,40296.14958717222,40450.1978099582,40642.75808844067,40768.419595768406,40879.68657966692,41054.767793985346,41223.97049951202,41420.08470536288,41567.58386702345,41717.18409266283,41846.26541689222,41954.24669435581,42072.10744286865,42137.240426211414,42179.35111276521,42292.65210540916,42432.77519139948,42542.81282935296,42617.06532443349,42609.264565618585,42649.98944401615,42696.74929341666,42732.109753144956,42807.18926277033,42826.881149635454,42817.22519603076,42867.80719373312,42901.22305169381,42882.51464158471,42930.012098552244,42995.100378406096,43040.09443999463,43025.27523342076,43038.97685277186,43090.00588536333,43152.92604600502,43164.37013916614,43178.049406772785,43158.178705952014,43109.675420484,43083.389769004556,43024.00118398681,43028.42682938896,43089.84942315214,43197.4954244489,43284.33195165777,43334.48926621548,43417.95068001159,43510.17397763419,43564.354606193854,43614.19899632919,43714.603032422434,43823.85835931997,43898.28966835614,43945.40714566793,43986.57905895461,44039.329175869134,44142.54953176374,44164.16366865202,44228.9390240835,44330.013612510396,44353.10296453273,44355.89693258965,44441.14648594218,44557.44261234315,44671.63767476531,44768.2195625567,44796.29335359256,44840.773325058624,45018.73791441177,45181.12333787958,45300.45930152647,45436.38025955919,45571.69772049162,45744.2978911755,45902.347076218975,46054.338938515066,46159.66035838847,46316.45784574245,46523.01031625394,46672.9681698046,46836.35942177289,46974.78377518461,47117.164387364915,47231.42650502044,47295.844232540636,47365.80519268575,47485.25291505491,47559.37129966871,47583.801756358356,47580.717215623525,47614.200128817574,47597.168099542636,47559.46070664653,47493.16543259209,47434.447399908,47364.68760546298,47306.12603499008,47294.369017406585,47341.777067396295,47359.41259377153,47394.415425588544,47415.76134154336,47400.785672758306,47422.13158871312,47418.398847389086,47417.66123982206,47455.81566760727,47551.79405829836,47568.26729396192,47601.973724600524,47628.393486546694,47618.60342247527,47650.81228623537,47723.63426967076,47785.19097390067,47769.7235667376,47782.128784910296,47759.95585441063,47751.75276419554,47733.78196165347,47667.46433585457,47600.431454233105,47556.957311267535,47528.66000278712,47487.93512438955,47486.705778444506,47437.420181920555,47380.40088181506,47359.16672458252,47369.89556192107,47411.98389673042,47544.77561053939,47684.608123851795,47778.843078475365,47963.893170820855,48229.208377505354,48499.64213367011,48744.52784592246,49024.79636964755,49311.256326586765,49590.273152622365,49811.600126218815,49962.87673269233,50016.99030601863,50009.39071290383,49959.12163962384,49766.784878585924,49542.038088087815,49246.48097115529,48845.110695971336,48431.938699714985,47976.03016806009,47474.85935388319,46955.51657146413,46440.24180653594,45887.6843318563,45352.06947947377,44873.49627894119,44358.06505180181,43884.87862168296,43462.587113688845,43037.322823682174,42656.024415019085,42286.05834079484,41929.39155452151,41559.157259363805,41208.10076094875,40853.2444659763,40499.72927567116,40183.11681546173,39906.58103306068,39609.5487009941,39390.568660565456,39202.23286178504,38934.414259721554,38698.826873162616,38545.4492027103,38388.09292174494,38280.133996025805,38197.20902409661,38151.32089272987,38112.80883703337,38085.24913611998,38065.60195274377,38082.432816318615,38050.64863570317,37985.56035584931,37902.613032175665,37889.51490992486,37905.36229674367,37943.04733789532,38012.36009745122,38093.58633680181,38202.03700089896,38275.32837096791,38374.368950649376,38462.256009847646,38541.62705440844,38639.97473001179,38726.230111864825,38788.4573684284,38898.1820819595,39006.47628384546,39106.679154238605,39259.9674177131,39443.989329813645,39642.89750372142,39791.78247353822,39928.64220483806,40045.51947659486,40204.82035932784,40403.66147800225,40567.87974451539,40721.39152543444,40840.70513733687,40975.57556338019,41114.08932376973,41205.35149638075,41232.64297636068,41269.29983726738,41389.976905581585,41474.93588625621,41549.94834064822,41638.61771090242,41703.1919006338,41798.63384945796,41887.169109245435,41926.57523472014,41945.52951401824,42029.54972142574,42100.56121356025,42110.15011193158,42117.63794632411,42093.542765801285,42056.66238745003,42101.20941414945,42154.58537990873,42221.23828187445,42301.90572761366,42303.1350735587,42385.411844898685,42513.86732028334,42612.57262379797,42710.40620927885,42837.587635229545,42955.42603199793,43047.00112903132,43086.0719783392,43170.22629621343,43335.964481349525,43511.76095149052,43650.2523601356,43729.31048027402,43717.46405571271,43743.99557638116,43842.455010706784,43995.74327418128,44099.812996365195,44154.50771504733,44243.0429748348,44305.538452331835,44421.92398571062,44562.35999612332,44682.79119524851,44766.252609044626,44853.3350054425,44952.73321303525,45052.801972961664,45144.64529092852,45262.930722586,45305.15316786208,45385.015950800895,45530.95049034959,45698.834442953405,45794.56696445549,45879.213020707735,46025.0134497897,46178.16760279746,46307.76301714934,46403.36142818468,46546.30083397637,46680.83598385286,46824.69181116722,46945.52534169261,47148.43447785789,47347.11913432111,47587.48979419348,47856.940073602214,48036.26811936714,48163.53895229566,48326.84079728613,48566.9655879695,48802.105939639325,48962.971444484174,49036.08400059748,49082.24035289769,49137.87384484695,49115.90208004738,49059.46392529773,49004.21041300421,48921.77717945304,48844.261329682035,48771.41699450219,48702.81949076885,48632.031516078896,48582.27653292138,48541.23873010144,48504.090130816716,48477.111575259165,48456.81619129374,48423.82501647771,48387.10110033764,48336.89908229102,48290.13923289052,48239.2890142547,48168.366929098,48084.52553564615,48060.40800337887,48050.170904418344,48034.12235189943,48059.826858023036,47999.275982293606,47975.65018840435,47950.10214449193,47838.61164314886,47748.35529903833,47747.237711815564,47688.027940753454,47574.19050624258,47521.239223627956,47485.92346738857,47446.4502866805,47392.02378893182,47347.99085235487,47296.335970918655,47240.72483071385,47231.11358059807,47197.74242612629,47116.672648986896,47039.08974398253,46993.96157192726,47012.62527854744,47003.3940080874,46935.176484009804,46858.59940750592,46836.76175317309,46814.16413952877,46754.12735392182,46677.66203614021,46595.74289271151,46600.43675904712,46660.40648942071,46733.273176345014,46771.98639774161,46833.520750227064,46912.37770466539,46945.882969603896,46964.01023435715,46976.88483916341,47058.222837236266,47147.38394586849,47206.213737274855,47256.32634834365,47301.63333435456,47314.016200782804,47274.29715088572,47242.6023772481,47181.24683871828,47157.55398959565,47039.53677887163,46782.60347635788,46465.47692602598,46181.38625399903,45889.31600920153,45558.957226152095,45215.679134807484,44794.281696591584,44350.64427264265,43894.08754039855,43424.00800275899,42959.292883788694,42536.71080311666,42112.94407998849,41683.947048657785,41236.800400829365,40818.062820203646,40418.927719465224,40034.231845644936,39704.49891144025,39446.26920774808,39272.75261554153,39082.606325460234,38912.598957133174,38773.973438021356,38693.73067542681,38648.2225237158,38636.398450898945,38737.51774281475,38751.97932147734,38757.92488550245,38725.179579875425,38614.89607273294,38480.45032983427,38397.63711662735,38375.24066868313,38363.394244121824,38392.49621540263,38421.50877970562,38498.24231842069,38627.01071822771,38742.12220217255,38907.681573353,39073.08448232228,39238.68855699165,39345.03815711,39400.44813161471,39519.58292956149,39635.16380013988,39747.168391605424,39826.96411931088,39890.80070147523,40025.11233390717,40142.5260475309,40218.25375774548,40298.29535463993,40394.31844881993,40575.97107600821,40668.172021886356,40779.88604067398,40926.267615111785,41082.7968815323,41230.49720889297,41339.39490787923,41476.85813627936,41607.95111750974,41664.54573447058,41781.98179983876,41905.60929842106,41970.89874397501,42010.573090383186,42046.51469546732,42045.598273944655,42097.54372805879,42154.56302816427,42223.07112491979,42259.90679978213,42266.81348881883,42262.03021550539,42295.513128699444,42366.99400746751,42445.62744446128,42480.51851755602,42522.293927942985,42533.71566935965,42569.7466814216,42611.656202275306,42628.129437938864,42614.69603952122,42663.98163604518,42701.66667719682,42743.0397561836,42738.79292473709,42740.31284336005,42733.22734036772,42753.41096561086,42784.390483425916,42842.32620505407,42846.64009173395,42834.74896368372,42811.27963200565,42817.33695475304,42853.07739413707,42829.898635136924,42807.56924242607,42785.32925669304,42783.22819271424,42790.98424804023,42761.23407617022,42682.39947347635,42655.57738012998,42623.167350669784,42587.605725241396,42564.941056363714,42579.15676583729,42530.27350071353,42522.96448027664,42522.428038409715,42532.86630307035,42592.16548111028,42665.34509245695,42675.58219141748,42714.80950293654,42773.70634957628,42890.06953121061,42957.348282021085,42987.03139865773,43041.56965512868,43060.68039663797,43007.818521001165,42967.67478795943,42908.42031340842,42819.77329489867,42818.990983842734,42869.70709201182,42872.72457751329,42905.313420929124,42901.33481041608,42911.39309542097,42957.12476457653,42973.55329675118,42969.06059611566,42939.55629343466,42956.02952909822,42940.09273530159,42876.3679118595,42787.07269276055,42674.151679772345,42549.18307652272,42428.2154355306,42356.22046664006,42286.30420998386,42203.3121828213,42124.09760047169,42014.28347996277,41942.757897705786,41917.76864740475,41920.20498755038,41909.051467067184,41888.91254531295,41825.925329437894,41744.207351709294,41711.573804804546,41679.14142359989,41599.41275112781,41514.6996396422,41480.32265666994,41416.01668787202,41356.24812319853,41316.149093645705,41270.95386635708,41281.83916590681,41274.82071814784,41231.570092626825,41233.33588043879,41280.16278507266,41318.4513233246,41291.830395678335,41328.241387396025,41382.10909153332,41370.128556505275,41366.79814658143,41424.7785716985,41490.67151435274,41607.23586168717,41738.1500289619,41794.14114882245,41868.930085769905,41982.029912713755,42082.47865229591,42100.181233904514,42107.736123530405,42113.23465266641,42091.19583263348,42094.883870468606,42074.6331899921,42041.93258785398,42060.976274129906,42107.13262643011,42165.60478992519,42236.95155822654,42270.210953976035,42250.58612234427,42269.94273304257,42273.98839878898,42205.14502586664,42092.76045474535,41990.59063084014,41846.7795070147,41679.454348022264,41471.717235054646,41242.6342061322,40912.02955389376,40508.44645600873,40063.84790704821,39676.04514074864,39267.164679427704,38782.89178405902,38255.457670147145,37701.648497778,37171.68863674267,36651.451784545396,36104.92928086869,35536.30090192567,34994.3605058623,34481.65619154646,33947.58360953136,33380.94453584487,32861.177070281155,32353.144270556484,31844.619732453793,31348.075729379147,30877.25858417256,30467.528756562326,30106.883359775948,29763.582916686886,29436.062805183272,29171.552261299166,28970.5877269015,28799.84275100741,28650.24252536804,28492.282747302386,28384.01089716088,28396.751391500402,28398.360717101186,28399.366545601675,28465.01361906691,28543.244724660486,28596.352469486294,28677.422246625694,28744.388073013793,28848.90483008681,28959.97064828523,29091.980051038274,29258.567602463678,29410.715926970952,29564.51828056792,29693.331383863853,29815.729536501116,29948.677712521283,30125.658825118404,30325.37166182657,30560.444958263037,30813.28789154147,31070.86939464443,31372.617944791073,31698.99811732747,32036.218885924685,32406.587291549124,32791.30551711387,33195.42505686582,33605.020774009325,34058.96235215216,34462.97013318183,34888.52499586642,35412.00285100971,35982.97816312053,36525.49970453975,37094.753932327505,37695.769988986256,38213.41403882671,38721.469190295844,39281.60390634584,39847.55007595421,40297.1107121838,40723.06790626859,41107.830835322246,41442.749374240564,41730.997470736205,42043.54191345476,42366.70343478959,42704.617107464925,43042.08374525115,43369.58150501031,43682.12594772887,44002.64996321797,44345.59277839575,44691.798948264,44971.53103012217,45259.24268475088,45511.14684476219,45771.20939149969,46075.304874814145,46437.60430069021,46801.669514378256,47163.58896059859,47491.39964478012,47838.09755302639,48162.935455195366,48526.665392716575,48952.913159479285,49491.50079387436,50141.37776391242,50875.65492101371,51643.37028782014,52487.64037938599,53367.87442778044,54312.23563101717,55332.52571016857,56398.83803115345,57409.002770066596,58429.0916835179,59470.14653326828,60442.02273392949,61307.07994783878,62110.13342262906,62782.85387550043,63325.44247215301,63684.70206078316,63976.70525034729,64171.16542710846,64290.54609424426,64395.77810713984,64468.10835219722,64554.36373405025,64632.505432666,64708.81428823642,64725.75691053354,64706.333244601876,64742.36425666384,64739.614992095834,64746.94636427717,64803.67509170474,64906.80604062153,65060.63074596295,65260.58945186013,65426.77467188534,65616.16100265515,65820.21007778765,66114.44844179731,66495.63509173812,66896.20070412167,67301.19196190739,67654.86361442371,67959.51789134955,68295.73283144628,68680.87574015566,69066.17511107626,69473.49095028531,69820.4347277206,70119.0540336435,70432.2243252068,70697.51718014684,70912.56331355135,71057.93905948866,71111.11385954784,71129.95638012367,71141.15460409578,71179.73371502564,71178.7502382696,71178.5490725695,71075.32871667489,70872.75485667645,70610.50183898232,70285.70864030227,69952.33237175136,69695.39906923761,69431.76024338725,69110.11864067538,68789.41581123065,68498.6196158671,68250.33643845754,67978.6956880922,67607.47791617845,67264.53510100069,66940.99360001012,66625.9234101681,66323.63841815453,66010.5798853135,65595.01625240043,65243.22214641835,64881.63797636485,64513.37063471921,64223.28969517824,63859.06801927901,63484.07280255232,63033.66280003343,62596.79795465445,62263.37698261464,61880.111620439486,61508.893848525746,61097.062956936716,60652.06207657601,60258.78313288488,59863.11255253704,59477.50025719408,59098.280560765335,58673.12802948094,58281.9054462797,57891.21930494539,57546.68951591129,57270.779582354975,56966.86291299617,56662.40980177043,56397.65338869732,56151.49362701102,55851.86849258763,55584.631035879975,55269.53849429351,54990.45461302455,54697.02091181528,54373.322948613524,54046.02635455446,53692.17588808249,53270.24200799967,52795.73682495795,52310.41339759987,51768.69651898104,51224.47624498323,50671.04705226982,50087.44300454176,49532.00215482738,48971.48745912164,48369.644387918044,47801.10541595286,47270.2067816504,46836.42647700626,46506.40297012365,46263.03717649427,46083.57502026261,45976.33135036604,45915.02051532514,45846.57947380299,45863.00800597764,45947.34113780751,46012.36236242799,46077.69651147086,46143.120067491545,46228.63784177755,46390.01743674486,46569.837220887806,46758.82122025743,46979.76821419814,47173.75900432575,47347.34265176566,47510.040999655845,47609.61802120424,47650.81228623537,47638.18355061812,47540.55113083734,47371.37077705512,47146.75809702374,46946.17354228182,46739.19638862567,46505.7771212789,46231.09653366763,45988.04366446062,45718.258108885064,45486.67168458363,45266.26113250985,45042.20724608985,44852.664453108846,44732.30030921702,44734.40137319582,44784.4692807757,44836.21356918974,44968.80411729862,45182.062111146704,45395.65538116162,45625.54307288445,45856.52600008559,46142.65068085798,46418.47120743647,46654.0585939954,46877.508983315114,47091.79515740814,47275.59355206413,47375.684663734995,47427.22778644894,47448.81957159276,47441.93523430052,47403.780806515315,47270.11737467258,47121.835901956074,46999.95183944128,46892.70816954472,46822.05430532149,46733.273176345014,46689.24023976806,46729.40632455425,46795.65689511978,46851.11157311339,46952.47673421821,47140.99134695427,47352.50590473484,47576.31392196583,47870.149954575296,48194.250249177254,48506.83939538472,48779.06129110591,49076.74182376169,49352.4505916179,49581.62302751816,49774.29506472291,50060.24093153965,50362.52592355322,50727.46285527502,51080.62041766887,51420.54574734518,51792.277609381395,52233.14341701787,52656.03842211228,53192.279123339555,53778.16304900206,54299.9645233112,54728.76038894182,55207.266534241026,55642.11972261903,55982.24621799544,56279.90439890676,56488.289712463586,56650.58572895357,56789.9041521435,56948.95916568747,57162.03834557991,57354.35275487337,57525.16478600082,57744.79302701868,58024.63686759912,58421.22386946963,58765.373678847995,59058.852083546175,59324.34610418631,59648.55815751054,59982.493219672826,60278.296205794366,60506.663978894234,60628.592744897935,60644.61894567239,60660.756905169124,60709.886039481884,60686.34965257045,60561.73867723211,60462.273414405994,60403.93536137765,60392.40186123871,60317.05413067986,60235.58202214027,60085.49005812289,59903.88213442351,59683.38217537191,59449.024134758016,59248.90896664965,59049.86668227514,58841.95075535188,58617.025150898124,58386.958645219645,58182.75310787596,57946.808093405736,57722.30717209663,57513.6759893508,57274.73584112357,56976.384756134124,56736.125854984035,56472.82230530051,56143.51405424048,55818.072654971205,55472.6934996478,55193.54256314547,54947.695725881546,54704.754615396814,54432.51036793117,54116.99314320006,53800.60420043519,53465.66330977241,53185.05950988049,52851.99616575196,52399.46274750981,51918.22968938705,51401.345598858075,50973.39909951676,50613.603069019686,50238.42903833736,49810.77311167397,49442.03638339477,49115.7456178362,48778.12251783878,48369.71144315141,47989.50826996664,47620.793893431895,47202.391588973,46731.44033329968,46244.48522859636,45690.51959401603,45090.57642109114,44404.84725294677,43695.22406997968,42957.348282021085,42214.912738193605,41432.08759213539,40663.098175895,39943.260245711834,39212.55936772339,38494.46487360774,37826.48299056089,37229.89257930429,36692.60134608762,36182.40042715078,35780.91839324455,35450.47020321729,35116.244568377086,34805.577672192776,34510.0429070047,34250.33798817849,34006.34634570436,33754.03985429285,33514.94324385443,33311.341203611046,33150.60980923293,33005.904615629275,32840.613465382274,32702.747905581942,32654.825765469763,32728.38535647218,32764.058740622848,32790.97024094704,32908.13808538176,33086.706171835205,33258.5016797187,33490.31162146469,33779.69965692755,34130.7561553426,34421.082964072586,34651.37298719561,34803.07427681378,34864.11689092122,34866.37441711121,34808.97513734998,34663.82290885722,34444.95462715085,34127.42574541876,33768.814357377814,33382.39739923446,32977.42849319321,32486.38301925457,32008.74859198911,31576.041171078825,31166.244288235222,30729.93823646763,30230.46615486934,29763.40410273124,29311.764754267308,28831.202248478206,28393.28687110983,27979.779598686648,27561.17612852766,27177.41902797449,26804.860151393434,26437.196306848087,26188.197873615965,26020.44803147889,25817.069508680048,25570.30624989346,25248.37407450367,24938.087157975096,24625.945046656736,24340.28975251791,24064.692743383974,23752.684742532343,23477.735933987613,23219.01449191743,22980.45432334594,22795.158361811446,22656.309325255075,22519.78487012206,22379.37121145382,22304.090536128348,22299.687242470653,22319.870867713795,22417.14565958329,22650.319057741053,23007.723451581416,23488.375364348336,23947.5025472048,24378.69004949213,24944.435053400404,25624.17395403075,26346.44822435954,26978.24263313325,27524.563971109867,28061.005838037236,28615.84319065132,29178.81657824714,29768.232079533587,30339.00622594431,30949.924105396763,31571.01202857638,32152.783233259113,32750.357121271747,33356.17880298839,33901.47196072006,34423.04991758465,35020.623805597286,35614.59906275261,36134.09830738286,36660.01250267178,37139.79269740495,37582.24547889775,38064.39495854318,38555.88746737093,38999.0555046863,39371.43556731172,39764.62510402502,40109.17724480358,40373.59838170986,40498.36581925939,40538.196627878744,40549.32779661749,40495.974182602666,40222.992327570006,39417.480160889645,38414.73620113566,37554.6634262399,35139.98212098862,26943.10569084951,31512.919844737036,81682.28199270749,98389.74158641597,98583.35239688783,98622.28913572898,98661.91877864824,98701.48136633413,98741.26747146458,98780.87476263939,98820.39264683636,98859.88817928889,98899.22724953023,98938.56631977158,98977.860686524,99016.95388757634,99034.14237906247,97672.18353416724,90960.69228180556,79818.70529874627,66636.49578529547,52862.97087227951,39579.6420669129,27382.026896718373,16284.788106058611,6414.6153825062975,-773.3256546647137,-2563.454516345801,-2595.5069178947115,-2601.7207028532866,-2607.4651011783008,-2613.008333803217,-2618.037476305661,-2623.5583571861216,-2629.2804037666806,-2635.136560813971,-2641.1044765835377,-2646.133619085982,-2651.162761588426,-2655.968386646317,-2661.8915989269735,-2667.1666106184257,-2672.1063461430485,-2677.783689234697,-2683.192811392881,-2687.573753306121,-2692.088805686093,-2696.223878410325,-2701.1189104460373,-2705.5669075926435,-2710.05960822816,-2714.0382187412047,-2718.8885472880065,-2723.4930066457996,-2728.1198177480483,-2732.6348701280203,-2736.904053318984,-2741.217939998858,-2745.3753644675453,-2749.1751610249476,-2753.9137308494724,-2757.221789028858,-2761.781544897741,-2766.1177833220704,-2770.856353146595,-2773.091527592126,-2658.3153198141245,-1865.744813173391,-216.90132819429974,2124.175682565651,5091.034482840834,8599.878382668303,12092.2043433433,15114.495469867645,17877.886340366167,21638.43323450485,26864.382846877917,33119.09384955095,38840.2687120758,41334.36576537678,40922.62428076557,39140.720861044036,37798.54330999176,38184.64734371273,40397.73826572159,43489.43155877967,46589.059721119374,49672.616979195715,52647.2765382858,55484.115241064464,58209.50814598896,60762.189121507305,63068.26330045025,65298.02862382277,67494.73571714589,69644.5935540907,71864.94879304753,73965.6551439351,75922.52801925279,77971.40067474851,80399.91770981762,83092.87823353747,85603.26970854637,87734.68735631554,89616.03368711873,91331.306556619,92976.84198341871,94571.30367413803,96030.33614520266,97327.56433815532,98358.49384766744,99186.24600008084,99684.93577062318,99775.66150136727,99814.41942625277,99853.19970288273,99891.37648241241,99913.8846890789,99904.27343896311,99800.22606852365,99489.76033803944,99026.18515803637,98417.90478442964,97710.33796195245,96923.9812402703,96115.49629157738,95251.02022302392,94305.76495000899,93357.04515660348,92385.07954896445,91341.25308290162,90229.4996654391,89086.96789586161,87991.28538266246,86816.5894528138,85601.16864456757,84448.35507254065,83315.70277401243,82150.75220474627,80996.93280421887,79816.58188302301,78662.02487492858,77473.1355873508,76240.21336319606,75001.18911280503,73642.96300923383,71825.38620536163,69705.68087168704,67868.5686431609,66498.51846677286,65534.286562715366,65053.54524297062,64878.30756644101,65083.38482181846,65603.64402576018,66132.48629957275,66576.2131304995,66989.65334768932,67355.50670093378,67632.24364903494,67686.08900142777,67530.85613618567,67376.71850642186,67160.13010264994,66865.60116596236,66383.54109329476,65689.13944830174,64901.93336033027,64003.683805904846,63210.12982250808,62403.14244069367,61678.05185056351,61056.3604302836,60464.08390570687,59855.267090233225,59233.03922808638,58555.49079841266,57842.291336332724,57016.21556475348,56110.61228640226,55082.18617226913,53968.53285652791,52752.128571525645,51505.86235593109,50347.594958257076,49269.81619236663,48258.44445925289,47373.158916611545,46218.691315494936,44497.11525405828,41802.76892218219,37457.83566925951,32588.463436181955,28687.368772908303,26304.29283431683,25464.493091642034,26232.633141593116,28593.17852177364,31248.923390975404,33353.11661399801,34516.30139545219,34853.54451579387,34859.64654203016,34516.7484303413,34159.388739989845,34794.26768949839,37253.719538893645,40543.00225293663,42861.079318652075,43312.49514967146,42293.36736123173,40578.049788242555,38772.81114730968,37429.1360293789,38117.994441747,47591.64721866217,77466.5865262254,98077.24184718632,99514.07903600682,99553.12753357024,99592.84658346733,99632.74444732004,99672.55290419495,99712.29430583648,99751.9463005002,99791.553591675,99831.13853110535,99870.54465658005,99904.74282559668,99909.4813954212,99904.11697675193,99900.27247670562,99896.49503189267,99892.85169754646,99889.40952890033,99900.51834589463,99917.8409478475,99912.52123266712,99908.34145645399,99904.45225291875,99900.4289389168,99898.77490982712,99918.82442460352,99922.87009034993,99252.34010843518,94067.0036157374,82043.44147961635,64179.301462090196,41741.748659819204,16861.351354283255,345.66972800132373,-1859.3075107702628,-1865.811868406757,-1871.6009702206816,-1877.2559615678742,-1883.0897668707094,-1888.8565169401786,-1894.556211776282,-1900.8817554571337,-1906.7602642488796,-1912.0576276847873,-1917.2208806539634,-1923.680534801547,-1930.4307616270498,-1936.0857529742425,-1941.3384129212395,-1946.4122589125943,-1951.1061252482089,-1956.6717096175803,-1963.1984189985299,-1967.713471378502,-1973.1672970255968,-1978.6434744171472,-1983.6279134306806,-1988.1876692995631,-1992.747425168446,-1998.0671403488088,-2002.8504136622446,-2006.449044519549,-2010.3605997992279,-2015.4344457905825,-2019.904794681644,-2024.0845708947863,-2029.583100030792,-2033.4946553104705,-2036.713306512035,-2040.580158302803,-2044.6705275381241,-2049.4985043404704,-2054.4382398650932,-2058.9085887561546,-2062.7754405469227,-2066.3964231486825,-2070.777365061923,-2074.331292430317,-2077.6617023541576,-2082.9814175345205,-2087.004731536476,-2090.156327504674,-2094.0455310398975,-2096.571278163347,-2100.773406120945,-2104.7520166339896,-2109.4682347140592,-2113.670362671657,-2117.7830836514336,-2122.253432542495,-2126.679077944646,-2129.7859704239336,-2133.295194303417,-2137.4302670276484,-2141.4982845185145,-2144.7839909534446,-2149.0978776333186,-2119.7276854190454,-327.49775975915907,8552.202111745133,23285.443876438603,42766.79966053959,66107.83232543855,89483.26432505422,99212.15167190453,99647.00486028253,99687.64033170228,99728.47696882213,99769.40301291979,99810.28435352855,99851.07628715948,99883.59807534196,99885.49797362066,99881.85463927445,99879.39594738436,99876.80314502754,99874.21034267073,99871.52813333609,99871.21520891371,99893.05286324656,99902.37354068442,99897.59026737098,99894.43867140278,99891.13061322339,99887.84490678846,99885.11799396492,99899.40075867185,99915.80693910205,99910.57663089951,99906.91094480884,99903.1782034848,99899.40075867185,99895.60096211446,99892.42701440181,99906.575668642,99923.65240140587,99918.0868170365,99913.8846890789,99909.90607856585,99905.83806107499,99901.6806366063,99898.61844761593,99914.82346234602,99928.79330263058,99922.64657290537,99918.19857575877,99913.9293925678,99909.57080239902,99905.16750874133,99900.85362206145,99905.25691571915,99927.22868051872,99924.59117467298,99919.31616298153,99914.84581409047,99910.30840996605,99905.79335758608,99901.32300869502,99909.57080239902,99932.28017476562,99928.34626774148,99923.00420081666,99918.17622401431,99913.39295070089,99908.69908436526,99906.7768343421,99926.7369421407,99932.28017476562,99925.84287236248,99920.85843334896,99915.9857530577,99911.1801279998,99906.46390991974,99911.06836927753,99931.1849392873,99927.34043924099,99921.90896533836,99917.12569202491,99912.20830824475,99907.29092446459,99904.49695640767,99924.09943629497,99925.32878224002,98756.24314024963,93232.83651266534,84161.40337722343,70126.16188838029,55544.24143364924,38265.024216774014,22231.22384920405,6180.883190737151,-1378.454432303242,-1864.4484119949834,-1871.332749287218,-1878.261790068363,-1883.335636059718,-1889.4376622960167,-1896.813737966268,-1902.9157642025668,-1909.420121839061,-1915.2986306308069,-1920.975973722455,-1927.323869147762,-1934.2305581844519,-1941.293709432329,-1946.5016658904156,-1950.8602560592005,-1956.135267750653,-1961.6337968866585,-1966.6405876446472,-1970.5744946687812,-1976.6094656717141,-1982.2421052744514,-1987.1371373101638,-1991.6745414345912,-1996.3907595146609,-2001.06227410582,-2005.1526433411414,-2007.2090038310296,-1995.4072827586274,-1782.3728063550957,-1919.0984271882091,-2027.5714430298142,-2032.287661109884,-2036.3109751118393,-2041.7200972700236,-2047.2409781504846,-2050.5937398187807,-2054.147667187174,-2059.333271900806,-2063.4012893916715,-2065.8823330262107,-2070.129164472719,-2075.2700656974393,-2078.9134000436547,-2082.6014378787804,-2086.803565836378,-2091.6538943831797,-2096.057188040875,-2100.08050204283,-2104.327333489339,-2108.3953509802045,-2112.485720215526,-2115.8384818838217,-2119.861795885777,-2124.220386054562,-2126.9025953891987,-2130.99296462452,-2134.3010228039057,-2137.9667088945757,-2141.8782641742546,-2145.5215985204695,-2149.991947411531,-2152.383584068249,-2156.965691681587,-2161.637206272746,-2165.0123196854975,-2168.387433098249,-2172.1872296556508,-2175.6517500462237,-2179.5856570703577,-2184.033654216964,-2187.408767629715,-2190.0909769643517,-2193.868421777299,-2198.025846245986,-2201.8479945478434,-2205.4913288940584,-2208.821738817899,-2212.5768318863907,-2216.5554423994354,-2221.0034395460416,-2224.803236103444,-2228.111294282829,-2231.7993321179547,-2236.113218797829,-2239.4883322105807,-2244.249253779561,-2248.0490503369633,-2250.3065765269494,-2252.9440823726754,-2257.7720591750217,-2261.6165592213347,-2265.058727867452,-2268.9032279137646,-2271.607788992857,-2276.636931495301,-2281.4872600421027,-2283.789489720999,-2286.8740304558314,-2291.590248535901,-2296.6193910383454,-2299.7709870065437,-2303.213155652661,-2306.565917320957,-2310.3210103894485,-2314.657248813778,-2317.5182721040574,-2321.4521791281913,-2325.0061064965853,-2329.0294204985407,-2332.60569961139,-2336.7407723356214,-2341.4569904156915,-2345.301490462004,-2349.0118800415853,-2352.8787318323534,-2355.2256650001605,-2359.0254615575627,-2362.3111679924928,-2367.2285517726605,-2371.341272752437,-2375.141069309839,-2379.477307734169,-2383.1876973137496,-2386.5404589820455,-2390.4520142617243,-2394.2965143080373,-2397.626924231878,-2401.04674113354,-2404.4218545462913,-2396.822261431487,-2045.9445769720767,-1371.0113013996247,-639.9080920109859,401.6831996063232,1102.4997952580209,2185.4641658621035,3051.7954292053496,4405.439425163201,5403.8247947484015,6755.09950579399,7569.887646423298,8535.147730725734,9055.496341645283,9868.272825273612,10500.044882302867,11600.264799626446,12647.622841313225,14011.928619376258,15276.657375890896,16698.49654418189,18144.989686607085,19661.28732696621,21144.03499889791,22421.213677074156,23753.735274521743,24793.359612626984,25907.4152597684,26710.401679325307,27855.593306492963,28835.627893880355,30167.143662827453,31173.799177861118,32474.55894643771,33454.95116173639,34948.22650530654,36462.624247386964,38673.234125761286,40839.855771047565,43310.036457781374,45569.17197336817,48235.578624675116,50853.48199051404,53619.26449766928,56284.71002396465,58871.79033419971,61315.14892758715,63501.41775624964,65527.0669492563,67173.89877723441,68891.07154501337,70309.73676559172,71873.2636419849,73054.46392947006,74436.58404786397,75367.22128000513,76549.82972739097,77199.19260730656,78030.81161151071,78472.99617207005,79184.27338412683,79533.05000460744,80229.2844926458,80769.95083927523,81503.55744404286,82017.5134560482,82777.96450590665,83445.85698197568,84215.94163369437,84999.68320127526,85715.00607907845,86495.05960882422,87258.17051627285,88310.08831382851,89586.48468094882,91563.89880942092,93738.74589666676,96348.40146880168,98439.31775561784,99734.2884223805,99897.88084004889,99913.99644780117,99907.6262006314,99901.70298835075,99890.90709577884,99721.03383791851,98650.9887756096,97048.83808479764,94673.40644280988,92094.57392627883,89399.06530369107,87169.25527682964,85900.79377899096,86172.97097122324,88478.66517051043,93351.14429606729,98759.28297749556,99908.52027040963,99922.66892464983,99915.67282863532,99910.91190706634,99906.30744770855,99901.63593311739,99897.14323248187,99907.73795935369,99926.40166597387,99920.54550892657,99915.49401467967,99910.80014834406,99906.06157851954,99902.08296800649,99915.22579374621,99927.18397702981,99920.45610194876,99915.44931119077,99910.62133438842,99905.79335758608,99901.65828486184,99914.80111060156,99931.92254685433,99925.55229968457,99920.3890467154,99915.40460770186,99910.4872239217,99905.56984014153,99905.6815988638,99929.4862067087,99932.77191314363,99926.17814852932,99921.14900602687,99916.16456701334,99911.1354245109,99906.17333724181,99619.10988320231,97160.75326928536,92131.20843544108,85822.38385944175,79053.22510638536,72067.25443211252,65644.9947530025,60136.0944075697,55828.33210567619,52736.21412947347,50961.66443367773,50608.88685093962,51616.30232528476,54109.058273918425,57487.68091054928,61477.55670279941,65635.36115114226,69800.11699201072,73592.89510165395,77282.36344842476,80636.3321109214,84294.55271894368,87844.61323554674,91413.00218260314,94602.95374428676,97642.85804544188,99570.98657739004,99902.28413370659,99919.65143914837,99913.66117163435,99909.34728495446,99905.23456397469,99901.21124997274,99897.61261911543,99909.4813954212,99926.80399737407,99921.01489556015,99916.49984318017,99912.29771522256,99908.0285320316,99903.75934884064,99907.35797969795,99926.84870086297,99923.63004966141,99918.66796239233,99914.17526175681,99909.7272646102,99905.21221223024,99908.11793900943,99933.2860032661,99934.18007304432,99928.41332297484,99923.74180838368,99919.07029379252,99914.35407571246,99909.70491286575,99905.45808141924,99916.92452632482,99935.72234341173,99929.86618636444,99924.79234037308,99920.00906705965,99915.15873851285,99910.30840996605,99906.39685468638,99921.55133742707,99937.9351661128,99931.27434626513,99926.13344504041,99921.10430253796,99916.25397399116,99911.3812936999,99906.50861340865,99909.12376750991,99932.45898872126,99931.72138115423,99925.6864101513,99920.76902637113,99915.7398838687,99892.58347661298,99487.52516359392,98667.8866944178,97406.6895135271,95860.90992223144,94531.85284517442,93321.17060675271,92356.2457986171,91324.1539983933,90496.17832853536,89490.19336583535,88688.01160907885,87661.26187577986,87042.11855436786,86592.91554604955,86773.27177205942,87254.19190575981,88436.93446361239,89773.68054076201,91600.51096683872,93663.68873878584,96373.3013121249,98945.11538089698,99869.42706935729,99930.20146253127,99926.66988690733,99921.19370951578,99916.52219492462,99911.80597684455,99907.1344622534,99904.6757703633,99923.04890430557,99929.66502066434,99923.22771826122,99918.46679669223,99913.72822686771,99908.98965704319,99905.79335758608,99923.20536651676,99932.66015442135,99925.99933457367,99920.99254381568,99916.09751177997,99911.31423846654,99915.15873851285,99929.12857879742,99923.56299442805,99918.46679669223,99913.61646814544,99908.6767326208,99905.6815988638,99923.7865118726,99932.10136080997,99925.35113398447,99920.25493624866,99915.31520072404,99910.46487217724,99905.70395060825,99914.86816583492,99934.04596257758,99928.70389565277,99923.76416012814,99918.89147983688,99913.95174431226,99908.92260180981,99905.56984014153,99922.7359798832,99931.85549162097,99924.88174735091,99919.83025310401,99914.86816583492,99909.59315414348,99905.45808141924,99920.6349159044,99933.80009338858,99926.91575609634,99921.97602057172,99917.01393330265,99912.09654952247,99907.04505527558,99903.66994186283,99921.6854478938,99932.79426488809,99926.11109329596,99921.21606126023,99916.27632573561,99911.42599718881,99906.50861340865,99901.97120928422,99910.0848925215,99925.73111364021,99919.62908740391,99914.5328896681,99909.57080239902,99904.6757703633,99906.37450294191,99929.88853810889,99929.95559334227,99923.94297408378,99919.02559030362,99914.085854779,99909.2355262322,99904.36284594094,99903.60288662945,99926.55812818506,99931.83313987651,99925.23937526219,99920.07612229302,99915.11403502394,99910.19665124376,99905.23456397469,99907.1344622534,99930.58144218702,99930.60379393147,99924.61352641744,99919.65143914837,99914.21996524572,99908.92260180981,99904.11697675193,99906.88859306439,99927.67571540782,99924.90409909537,99919.40556995936,99914.82346234602,99910.3307617105,99905.74865409716,99902.48529940669,99911.64951463336,99148.78447637374,96678.96141755121,93265.64887352573,89288.96061050423,90783.82292793071,96265.43179338358,99769.22419896415,99927.85452936347,99920.52315718212,99914.62229664592,99909.05671227655,99904.04992151856,99902.21707847323,99922.42305546082,99926.02168631813,99887.91196202183,99736.76946601504,98459.6354913277,98952.6032152895,99603.32955161686,99377.42047040707,94497.6546761578,79494.00150704403,51766.90837942462,15125.872507795395,-1069.083937297337,-1869.522257986338,-1876.004263878377,-1880.429909280528,-1885.0343686383212,-1892.2763338418406,-1900.591182779215,-1906.5143950598713,-1911.7223515179578,-1917.3773428651505,-1922.3394301342287,-1929.3802296376502,-1934.5658343512816,-1939.9526047650106,-1944.8029333118122,-1949.8320758142563,-1955.934102050555,-1961.812610842301,-1966.841753344745,-1972.2508755029294,-1977.5929424277476,-1982.6891401635578,-1988.0088553439207,-1992.8144804018118,-1996.167242070108,-2000.1235008386973,-2005.0408846188648,-2010.8299864327894,-2015.1662248571188,-2019.0777801367976,-2023.7492947279568,-2028.577271530303,-2033.3381930992834,-2038.322632112817,-2042.7482775149679,-2046.3469083722723,-2050.4596293520485,-2054.3488328872722,-2058.774478289423,-2062.998957991476,-2066.262312681951,-2071.023234250931,-2075.895914542188,-2078.801641321378,-2082.9143623011546,-2087.965856548054,-2092.1009292722856,-2096.7277403745343,-2100.8404613543107,-2104.3943887227047,-2107.836557368822,-2111.502243459492,-2115.0785225723416,-2119.0794848298415,-2122.521653475959,-2125.0026971104976,-2129.473046001559,-2134.3010228039057,-2137.8773019167547,-2141.2747670739614,-2144.336956064338,-2147.6226624992687,-2152.025956156964,-2156.8092294703997,-2161.212523128095,-2164.520581307481,-2168.499191820525,-2171.0696424328858,-2174.310645378905,-2178.7139390366006,-2181.3067413934164,-2184.927723995176,-2188.705168808123,-2192.259096176517,-2196.1035962228293,-2199.791634057955,-2203.9714102710977,-2194.606029344324,-1154.1770284386907,3087.3570546337432,8422.941973560093,15645.058828003268,22250.11107326878,29479.201671982013,35364.505394042186,41323.10048617131,45901.14008201839,50372.5395050692,53419.57401270557,56017.22669806799,57858.18342664045,59464.536245409996,60681.25345483464,60797.37076727996,58628.71511324825,52449.88828300098,41565.88513444485,25746.214478756727,9878.95695912325,-985.1978403565694,-2294.339513103904,-2297.535812561013,-2301.670885285245,-2305.7165510316554,-2310.07514120044,-2314.634897069323,-2318.2558796710828,-2323.17326345125,-2327.017763497563,-2331.0857809884287,-2335.0643915014734,-2339.3559264368923,-2342.8204468274653,-2346.7320021071437,-2350.46474343118,-2354.331595221948,-2358.7125371351885,-2361.886484847842,-2366.043909316529,-2368.99433958463,-2372.883543119853,-2376.817450143987,-2379.6337699453557,-2382.628903702367,-2387.0545491045177,-2390.921400895286,-2395.1905840862496,-2397.023427131585,-1907.810796238279,1301.2738586990665,6716.229822186211,14070.914872993813,20527.86445949846,25840.136508957927,28855.498594701126,30885.796950554486,31766.321571626853,32446.440451912935,32683.346591394737,32976.51207167054,33477.995810269815,34237.418679883325,35442.04359555765,36718.88699756706,38496.52123409763,40042.81491551577,42023.2688812338,43480.93789588665,45401.46683472,46921.02782976959,49227.21376743481,51112.69517096224,53802.727616158445,56071.47438186102,59099.48755496593,61633.326009908444,64738.74327406207,67181.76659128268,69848.82144317884,71907.70768019054,74195.22991123557,76116.92114078059,78193.37584893416,80152.84152660865,82211.86187408709,84385.21139445441,86574.81063304075,89061.50925892702,91186.04256940396,93549.06899321903,95509.11581624935,97967.27126446621,99231.08359945817,99737.1941491597,99790.50305968561,99607.39756910772,98707.0469507035,97807.81391952204,95990.88531623904,95110.09247423321,94337.70559283563,94899.87431763105,95753.1968657013,97599.9873995766,99198.29359034225,99836.77117070809,99913.9293925678,99908.74378785418,99904.27343896311,99899.80309007205,99895.51155513663,99904.4299011743,99923.67475315032,99918.46679669223,99913.59411640097,99909.12376750991,99904.51930815213,99899.84779356097,99906.1286337529,99925.6864101513,99921.0372473046,99915.82929084651,99911.04601753307,99906.37450294191,99901.7253400952,99902.30648545104,99926.26755550713,99928.81565437504,99922.62422116092,99917.75154086966,99912.85650883395,99907.89442156488,99905.5251366526,99924.74763688417,99931.09553230948,99924.36765722843,99919.49497693717,99914.4881861792,99909.50374716565,99904.98869478569,99917.25980249165,99936.14702655638,99929.82148287553,99924.47941595071,99919.47262519272,99914.42113094582,99909.30258146556,99907.80501458705,99926.46872120723,99927.51925319663,99921.14900602687,99916.05280829106,99911.00131404416,99906.7321308532,99920.21023275975,99935.11884631144,99928.36861948593,99923.04890430557,99917.93035482531,99912.76710185614,99907.96147679824,99918.22092750322,99936.50465446767,99930.20146253127,99924.68058165081,99919.47262519272,99914.2870204791,99909.14611925436,99904.07227326302,99907.84971807596,99932.50369221017,99931.43080847632,99925.39583747338,99920.25493624866,99915.1363867684,99909.99548554367,99905.01104653014,99906.62037213093,99925.77581712912,99922.78068337211,99917.0362850471,99911.85068033346,99906.79918608656,99905.65924711934,99927.78747413009,99932.07900906552,99925.52994794011,99920.29963973757,99915.09168327949,99910.0848925215,99906.95564829775,99925.73111364021,99935.94586085629,99928.97211658623,99923.94297408378,99918.80207285906,99913.61646814544,99908.54262215408,99904.4299011743,99918.86912809242,99932.92837535482,99926.17814852932,99921.10430253796,99916.14221526889,99911.04601753307,99906.17333724181,99915.1363867684,99930.96142184275,99924.74763688417,99919.62908740391,99914.77875885711,99909.86137507694,99904.89928780786,99907.93912505379,99930.38027648692,99928.32391599703,99922.57951767201,99917.57272691402,99912.6329913894,99907.5814971425,99907.67090412033,99929.82148287553,99931.43080847632,99925.17232002883,99920.16552927083,99915.11403502394,99910.17429949931,99906.44155817528,99921.93131708281,99932.10136080997,99925.17232002883,99920.14317752638,99915.15873851285,99910.17429949931,99905.23456397469,99905.8827645639,99929.79913113108,99932.10136080997,99925.61935491793,99920.52315718212,99915.65047689086,99910.84485183298,99905.8827645639,99908.90025006536,99929.4862067087,99926.37931422942,99920.70197113777,99915.7398838687,99910.75544485515,99905.99452328618,99912.14125301139,99933.30835501057,99929.12857879742,99923.60769791696,99918.57855541451,99913.50470942316,99908.58732564299,99904.72047385223,99919.85260484846,99931.98960208769,99924.837043862,99919.60673565946,99914.82346234602,99909.74961635466,99907.08975876449,99923.63004966141,99927.29573575208,99920.88078509341,99915.96340131325,99911.04601753307,99906.46390991974,99916.2316222467,99931.3861049874,99925.01585781763,99919.87495659292,99914.86816583492,99909.86137507694,99905.14515699688,99913.0353227896,99934.40359048887,99929.64266891989,99924.23354676171,99919.338514726,99914.46583443474,99909.45904367675,99905.0333982746,99916.6339536469,99931.31904975403,99924.68058165081,99919.584383915,99914.64464839037,99909.74961635466,99904.96634304123,99911.69421812228,99930.60379393147,99925.41818921783,99920.16552927083,99915.1810902573,99910.35311345496,99906.95564829775,99922.42305546082,99929.4862067087,99922.87009034993,99917.97505831422,99913.10237802296,99908.27440122061,99903.46877616273,99910.46487217724,99931.40845673186,99926.80399737407,99921.37252347142,99916.36573271344,99911.5824594,99906.7321308532,99903.75934884064,99921.4395787048,99928.86035786396,99922.13248278291,99917.17039551382,99912.32006696702,99907.44738667576,99902.7758720846,99910.68838962179,99932.12371255443,99927.45219796327,99921.97602057172,99916.94687806927,99912.09654952247,99907.24622097568,99903.826404074,99920.47845369321,99930.82731137602,99923.94297408378,99918.98088681471,99914.04115129009,99909.19082274329,99904.31814245203,99909.4813954212,99928.27921250812,99923.60769791696,99918.2879827366,99912.81180534505,99905.2792674636,99881.13938345187,99682.09709907736,99573.37821404675,99403.8625840977,99513.85551856227,99361.39426963261,99430.79643616635,99329.81125471726,99372.54779011582,99437.1219798472,99461.08304990329,99505.51831788044,99503.4396056461,99549.21597829057,99540.31998399735,99588.21977236508,99582.63183625124,99610.97384822057,99617.38879887926,99613.3654848773,99600.9602667046,99605.67648478466,99593.09245265633,99599.12742365926,99605.98940920705,99627.04475248394,99612.58317382136,99616.78530177896,99609.20806040861,99608.89513598623,99601.22848763806,99609.65509529771,99628.25174668453,99626.32949666138,99620.09335995834,99617.50055760152,99613.25372615502,99610.012723209,99608.04576969692,99627.67060132869,99636.09720898834,99630.08458972986,99626.50831061702,99621.99325823704,99618.26051691301,99614.48307210006,99630.73279031906,99643.04860151395,99637.48301714456,99632.3644676643,99628.40820889572,99623.20025243763,99618.50638610202,99618.52873784647,99637.68418284466,99635.9630985216,99630.68808683015,99624.7648745495,99619.89219425824,99614.97481047807,99623.22260418208,99644.7249823481,99640.07581950139,99634.6666973432,99630.08458972986,99625.59188909434,99621.50151985903,99618.12640644627,99619.80278728042,99640.63461311276,99639.0699910009,99634.04084849845,99628.9670025071,99624.80957803842,99620.11571170279,99619.24399366904,99639.74054333456,99643.38387768077,99636.67835434419,99632.00683975303,99627.20121469513,99622.77556929298,99618.81931052438,99633.90673803171,99645.01555502601,99638.57825262289,99633.66086884271,99628.78818855145,99623.80374953792,99618.88636575776,99617.09822620133,99638.24297645605,99645.28377595947,99638.17592122269,99633.48205488706,99628.1623397067,99623.60258383783,99618.43933086864,99624.98839199405,99646.08843875986,99642.80273232493,99637.59477586685,99633.2138339536,99628.29645017344,99623.60258383783,99618.48403435756,99623.26730767099,99644.34500269235,99640.99224102405,99635.42665665469,99630.57632810788,99625.74835130553,99620.83096752537,99622.73086580407,99644.54616839245,99643.45093291414,99637.4159619112,99632.65504034223,99627.49178737304,99622.75321754852,99617.61231632381,99623.96021174912,99646.04373527096,99642.57921488037,99636.65600259972,99631.98448800856,99626.59771759484,99621.74738904803,99615.7124180451,99624.20608093812,99644.50146490353,99639.80759856792,99633.97379326509,99628.9670025071,99623.46847337109,99618.52873784647,99618.99812448003,99638.39943866724,99636.90187178874,99630.8669007858,99626.17303445018,99620.60745008082,99615.80182502292,99612.47141509908,99631.55980486391,99635.69487758815,99629.34698216284,99622.55205184843,99618.03699946846,99610.90679298721,99607.08464468535,99615.28773490046,99636.79011306645,99628.51996761799,99624.22843268258,99616.58413607886,99613.23137441056,99606.14587141822,99604.02245569497,99619.66867681369,99626.44125538364,99617.32174364588,99611.01855170948,99580.84369669482,99546.75728640048,99557.48612373903,99466.4251168281,99515.39778892968,99180.76982268928,99425.78964540835,98975.44669812283,99205.24498286784,98440.61415679625,98427.2254618675,97822.9907540072,97520.19167187116,97024.60879380809,96509.46813934662,96005.68217106846,95083.67271228704,94342.82414231589,92903.37179939411,92065.91898988713,90322.39351539535,89320.85654984195,87351.26553192921,86374.42724399891,84172.0651593286,82958.00780749414,80727.12489689887,79844.23099091424,77800.34277443204,76693.88672040543,74576.52831989864,73568.88932810895,71879.27626124337,70956.88682280622,69500.04482269823,68546.13942457907,67235.90251635344,66133.9615147068,65013.312102951066,63912.04165363809,63051.4324368754,61782.456848914255,61016.30610421969,59659.62227101592,59075.45942967647,57755.85714052405,57467.81020972851,56130.43828373412,55830.455521399446,54376.92157947083,54074.8601049018,52744.1489987551,52599.376749918076,51377.853915435546,51150.76019176962,49998.41600637627,49854.873103484286,49068.09169865748,49070.52803880311,48581.38246314317,48473.468240912945,48195.34548465556,47987.63072343239,47843.12669552883,47609.75213167097,47750.88104616178,47337.75375339434,47495.17708959307,47004.6457057769,47350.98598611188,46596.30168632289,46756.02725220052,45934.75710567917,46310.86990962862,45377.59517164173,45364.944084280025,44174.73604377938,44111.0112203373,43021.36367814108,42921.004345536756,41845.013719202725,41443.665795763234,40344.85403834034,39773.99048495179,38859.15593614053,38300.31762126894,37653.34637801008,36944.39374737666,36434.371642395454,35813.21666398247,35741.109936369656,35062.980361340095,35085.73443719559,