-42595.27237358956,-42640.802877045026,-42602.46963530417,-42570.886620388825,-42610.71742900818,-42653.27515045108,-42651.53171438357,-42663.26638022261,-42677.39268271836,-42702.58309871949,-42730.74629673318,-42688.747368901655,-42622.474446591674,-42614.919556965775,-42578.39680652581,-42605.46476906118,-42673.41407220532,-42713.53545350259,-42726.16418911984,-42708.4839592557,-42742.25744512766,-42812.28546050614,-42934.415392209936,-43022.52596885276,-43070.67162640949,-43192.935668580016,-43295.8207483078,-43316.473760184504,-43388.22285988604,-43511.53743404597,-43587.95804833866,-43697.72746535867,-43871.1546505874,-43993.195175313376,-44071.09100474012,-44146.52814227679,-44267.38402454663,-44392.95612489655,-44469.71201535607,-44540.164713879196,-44596.33464769538,-44621.614470674336,-44676.26448586756,-44787.39735929935,-44887.37671224793,-45000.655353147435,-45048.06340313714,-45078.037092451705,-45148.22157004137,-45220.5741668432,-45245.33989969968,-45261.25434175186,-45331.3494123637,-45365.52522963587,-45382.154927510615,-45378.712758864494,-45349.81195328378,-45338.12199093366,-45295.96660089095,-45256.381661460604,-45228.50903612483,-45229.894844281065,-45210.33706788267,-45161.6102649701,-45084.72026404384,-45057.45113580837,-45075.57840056162,-45057.406432319454,-44977.63305635846,-44897.83732865302,-44865.673168381836,-44824.16597892833,-44761.7152049202,-44715.26827994207,-44678.589067290915,-44644.41325001875,-44611.600889158355,-44613.52313918152,-44604.895365821765,-44520.96456539209,-44403.282630834896,-44316.60256583722,-44243.84763763519,-44174.84780250166,-44159.35804359413,-44125.07046759969,-44045.65471954998,-44023.86176870606,-43984.74621590927,-43983.1815937974,-43967.35655872304,-43882.21876409278,-43815.67762084933,-43760.15588762234,-43710.31149748701,-43667.23968592163,-43628.459409291674,-43628.057077891484,-43677.29797092652,-43690.68666585525,-43650.87820898035,-43656.019110205074,-43617.082371363926,-43584.00178957007,-43591.288458262505,-43566.92505680622,-43558.34198693538,-43543.813353039426,-43574.30113247647,-43632.549778527,-43646.54197055602,-43612.880243406325,-43557.55967587944,-43523.92030047421,-43539.09713495936,-43530.111733688325,-43509.19050087816,-43510.35279158984,-43524.54614931896,-43544.1262774618,-43551.61411185433,-43545.556789106944,-43559.90660904725,-43552.91051303274,-43475.03703535045,-43415.380229399234,-43359.41146128315,-43304.76144608992,-43312.562204904825,-43328.90133010165,-43339.33959476228,-43339.406649995646,-43307.75657984693,-43268.97630321697,-43179.61402888466,-43119.86781595562,-43110.41302805102,-43091.10112084164,-43140.74434527688,-43159.7880315528,-43127.73563000389,-43057.12646926957,-42998.6990092634,-42958.197648310386,-42918.43389492439,-42875.20562114783,-42841.990928887244,-42797.64506788791,-42739.731698004216,-42645.94377826974,-42542.72342237514,-42474.88587795328,-42455.05988062142,-42457.33975855586,-42453.76347944301,-42441.53707522596,-42420.504083693515,-42385.702417576606,-42362.18838240962,-42300.87754736871,-42254.609436346225,-42220.79124698535,-42211.53762478085,-42203.91567992159,-42173.33849350673,-42168.845792871216,-42126.0422022393,-42076.86836443763,-42027.046326046744,-41971.770462008775,-41945.10483087359,-41900.24487975179,-41866.203172946356,-41844.745498269265,-41823.28782359217,-41796.73395117926,-41773.421081712375,-41724.6495753109,-41673.97817063072,-41671.94416188529,-41676.86154566545,-41648.67599590731,-41587.02988469957,-41536.11261083038,-41483.40719740477,-41418.00599312854,-41380.09743453234,-41354.43763189765,-41324.93332921664,-41279.78280541692,-41229.69254609258,-41233.872322305724,-41269.031616333916,-41225.49041813498,-41186.71014150502,-41121.13012327315,-41067.910619725066,-41029.666784962035,-40990.88650833208,-40976.313170947215,-40958.94586550544,-40944.12665893158,-40874.59038193111,-40857.11131776706,-40882.14527155701,-40860.821707346644,-40865.157945770974,-40932.280234370264,-40939.74571701833,-40886.45915823688,-40882.72641691285,-40955.570752092695,-41030.717316951435,-41110.64715512361,-41186.128996149186,-41198.66832478861,-41232.41945891613,-41337.98674797854,-41415.81552217192,-41504.1943197482,-41526.65782292579,-41581.97839045267,-41707.48343556922,-41812.42487578689,-41824.91950093741,-41815.174140354895,-41833.346108597056,-41862.068100222124,-41907.55390018868,-41961.622770026064,-42050.94034086947,-42089.13947214359,-42135.2958244438,-42215.00214517143,-42244.327633896784,-42317.820169665836,-42375.57707733835,-42390.932725779145,-42392.743217080024,-42429.86946462029,-42440.73241242557,-42421.95694708311,-42382.79669079741,-42335.634509996715,-42293.501471698466,-42320.32356504483,-42314.51211148645,-42294.01556182093,-42278.57050640232,-42223.54051155335,-42141.66607161356,-42100.7847310048,-41986.67907556046,-41881.447062664876,-41893.606411648565,-41870.91939102643,-41850.48989659428,-41781.08773006055,-41738.23943593972,-41739.84876154051,-41679.052016622074,-41626.5254171521,-41530.47997122764,-41447.219723131624,-41353.6106173528,-41243.81884858833,-41157.9657981355,-41036.81934318774,-40933.9119117155,-40820.25329116026,-40718.01641202169,-40597.048771029564,-40535.9167499443,-40522.4162962933,-40507.19475831923,-40419.37475435433,-40325.20685496412,-40277.32941834086,-40198.986554025,-40141.52021903041,-40108.8643203812,-40061.97036051397,-40002.53707200731,-39944.444888167964,-39884.31869558319,-39843.25854101879,-39810.379124925035,-39760.69119700089,-39757.316083588135,-39772.80584249566,-39756.98080742131,-39729.354051274546,-39758.67953999991,-39751.83990619658,-39676.11219598201,-39604.58661372502,-39526.48961859818,-39538.04547048157,-39532.34577564547,-39520.879330739896,-39498.70640024023,-39470.02911210407,-39492.62672574839,-39471.01258886011,-39447.63266415986,-39402.81741652697,-39378.87869821533,-39401.23044267064,-39373.98366617962,-39330.48717146959,-39293.047999506955,-39269.57866782888,-39242.75657448251,-39216.82855091435,-39223.981109140055,-39190.85582385729,-39169.6440183692,-39149.08041347032,-39114.41285782014,-39105.36040131574,-39057.90764783712,-39030.70557483502,-39022.59189159774,-38960.766966434356,-38899.254965693355,-38892.817663290225,-38888.54848009926,-38842.52623826578,-38778.33202819014,-38797.28630748824,-38823.4154967565,-38786.401007938504,-38731.01338517826,-38624.082639704066,-38559.709615672786,-38519.47647565323,-38481.746731012674,-38437.93731188027,-38353.894752728316,-38295.355533999864,-38252.75310906805,-38210.441256814156,-38167.32474175987,-38147.431689194644,-38125.95166277309,-38090.14416815569,-38046.53591472339,-37964.70617827251,-37903.372991487144,-37899.126160040636,-37966.22609689547,-38027.559283680836,-38005.90044330364,-37926.08236385374,-37878.853127819675,-37847.89596174908,-37831.802705741255,-37805.53940600627,-37801.13611234857,-37794.18471982297,-37822.28086260329,-37837.07771743271,-37842.26332214634,-37803.415990283014,-37767.78730962126,-37746.32963494416,-37686.02462840374,-37693.26659360726,-37695.12178839705,-37634.90618883445,-37544.135754601455,-37510.161103029386,-37520.912292112385,-37529.09303058303,-37545.36510054649,-37510.40697221839,-37453.11945117944,-37398.80471215305,-37387.62883992539,-37396.748351663155,-37407.92422389081,-37370.73092111718,-37321.534731571046,-37254.926533094236,-37231.70307060517,-37193.90627073125,-37240.442602687195,-37269.99160885711,-37234.89937006228,-37207.6302418268,-37181.25518336954,-37136.35052875883,-37093.993973016026,-37093.4575311491,-37112.70238312511,-37149.53805798746,-37088.13781596873,-37063.841469745814,-37145.11241258531,-37282.463882263175,-37368.00400829363,-37442.79294524109,-37471.336122910514,-37506.94245182782,-37567.7168450018,-37728.828219035655,-37905.07172406575,-38052.079147348304,-38201.70172473213,-38332.5488367735,-38433.95870136723,-38493.72726604072,-38610.40337209742,-38772.81114730968,-38915.258814723355,-39018.792095040335,-39093.536328498885,-39179.031751040435,-39314.237453250586,-39432.47818141916,-39531.33994714498,-39667.57382960008,-39778.01379895375,-39862.07870985016,-39918.919196,-39983.269868286836,-40072.56508738579,-40172.99147522348,-40212.93404256512,-40332.64998586774,-40367.18343105119,-40341.03189003848,-40313.382782147266,-40347.58095116389,-40327.50908464302,-40343.781154606484,-40335.198084735646,-40322.34583167384,-40248.696833693604,-40170.91276298914,-40136.87105618371,-40141.386108563674,-40095.3638667302,-40080.2093839895,-40033.248368888904,-39955.62076039562,-39913.17479767499,-39868.51601225329,-39845.65017767551,-39845.828991631155,-39798.845624786096,-39742.31806305863,-39676.223954704285,-39549.04252875358,-39429.08071626195,-39356.8398781824,-39328.85549412436,-39312.09168578288,-39279.94987725614,-39258.29103687895,-39175.65663762768,-39116.871549710224,-39037.67931910507,-38914.25298622286,-38892.23651793438,-38830.67981370447,-38740.78109750523,-38714.02605939222,-38684.477053222305,-38632.44219213035,-38608.30230811862,-38539.79421136311,-38415.07147730249,-38332.839409451415,-38268.48873716459,-38197.54430026344,-38151.18678226314,-38116.78744754642,-38104.315174140356,-38067.52420276692,-37963.27566662737,-37896.37689547263,-37908.26802352286,-37890.811311103265,-37833.143810408576,-37780.57250744969,-37712.51144558328,-37724.02259397777,-37689.73501798332,-37619.908168304944,-37590.8732522575,-37532.51284748469,-37499.9016523244,-37456.29339889209,-37385.17014803531,-37364.49478441415,-37387.651191669844,-37416.619052483926,-37374.329551974486,-37299.33944932693,-37272.33854202492,-37234.139410750795,-37177.12011064531,-37109.30491796791,-37090.9541357701,-37132.79660139044,-37092.74227532653,-37004.02820158341,-36947.5676950893,-36944.59491307675,-36856.283170733834,-36788.17740537851,-36802.50487357436,-36821.50385636138,-36786.27750709981,-36703.28547993726,-36625.9931476108,-36586.87759481402,-36496.80006465913,-36387.92471741733,-36281.642172532345,-36202.60640413838,-36126.8786939238,-36057.65534134571,-36023.814800240376,-35954.61379940675,-35924.66246183663,-35865.81031868581,-35769.18372740552,-35725.59782571767,-35657.760281295814,-35539.27368393823,-35519.24652090627,-35536.055032736665,-35533.261064679755,-35470.78793892717,-35417.61313886799,-35323.177018544324,-35261.48620384767,-35224.09173537394,-35122.79362950249,-35004.530549589464,-34949.41114776268,-34896.035182003405,-34831.773916694394,-34762.25999143839,-34742.67986329554,-34742.25518015089,-34666.594525169676,-34613.84440825515,-34573.99124789134,-34533.93692182743,-34542.140012042524,-34527.72313686885,-34445.93810390688,-34402.24044349676,-34331.56422752908,-34328.27852109415,-34354.94415222933,-34328.54674202761,-34285.20670952877,-34219.11260117443,-34206.75208649065,-34214.64225228337,-34208.540226047066,-34189.183615348775,-34158.829946378464,-34127.47044890767,-34094.881605491835,-34074.96620118216,-34055.05079687248,-34025.21121802464,-34099.70958229418,-34115.17698945725,-34045.81952641243,-33982.608793092826,-33980.55243260293,-34014.057697541444,-34009.11796201682,-33974.80803427792,-33972.952839488134,-33942.889743195745,-33937.23475184855,-33955.898458468735,-33932.63029249076,-33912.71488818108,-33872.280582461426,-33816.24475911197,-33800.88911067118,-33755.604476404726,-33728.31299642479,-33724.24497893393,-33731.73281332646,-33728.98354875846,-33725.98841500145,-33654.08285308872,-33603.65731759755,-33680.97200166846,-33714.94665324052,-33753.19048800355,-33786.4722354975,-33823.9337592046,-33929.881027922755,-34027.781668637,-34085.60563154288,-34134.511248411094,-34213.94934820525,-34305.61385221647,-34406.84490285455,-34543.771689387766,-34690.26502254784,-34793.73124763146,-34876.92444049411,-35007.2127589241,-35114.67994626522,-35186.2055285222,-35278.76410231162,-35375.5024523142,-35495.576023528105,-35572.823652365645,-35590.369771763064,-35654.00518822732,-35716.45596223545,-35813.52958840485,-35922.784915302385,-36032.263759644484,-36147.263484867035,-36187.58603186441,-36232.73655566413,-36224.3993549823,-36236.51400047708,-36253.79189894103,-36303.70334430973,-36363.784833405596,-36414.50094157469,-36462.66895087587,-36498.31998328209,-36494.49783498023,-36475.141224281935,-36480.05860806211,-36488.39580874393,-36477.17523302737,-36471.8108143581,-36464.68060787685,-36482.360837741,-36488.99930584423,-36468.0557212896,-36401.58163327952,-36319.14839972835,-36231.17193355226,-36144.134240643296,-36074.776777598476,-36017.243387370516,-35965.990837334495,-35926.67411883761,-35873.991057156454,-35852.734548179455,-35805.28179470084,-35706.844712119666,-35645.310359634204,-35564.53115517273,-35496.3806863285,-35503.53324455419,-35516.631366805006,-35470.340904038065,-35423.73751684875,-35387.23711815323,-35310.41417246034,-35217.45326727072,-35157.9976270196,-35150.643903093805,-35107.19211187269,-34980.16714813318,-34958.77652868945,-34920.66680439315,-34864.89920197716,-34811.50088447343,-34733.78386900233,-34723.94910144199,-34686.375819012625,-34644.68981560347,-34583.78131196276,-34527.812543846674,-34479.6892380344,-34437.86912415852,-34446.87687717401,-34437.511496247236,-34404.430914453376,-34380.96158277531,-34307.401991772895,-34272.39915995588,-34228.321519890014,-34223.40413610985,-34248.34868292197,-34216.2739296286,-34120.09437323742,-34049.37345378083,-34021.322014489415,-33988.15202571774,-33946.62248451978,-33866.24561145849,-33737.11958374019,-33611.90511130156,-33533.38343303006,-33498.98409831335,-33450.88314424553,-33363.5772304031,-33270.16929032437,-33183.69039102679,-33186.14908291687,-33211.697126829284,-33134.382442758375,-33039.87926720134,-32944.437318377175,-32873.40347449821,-32840.36759619327,-32761.175365588115,-32713.05205977584,-32632.205800080992,-32580.103883755673,-32531.086508165183,-32502.118647351104,-32451.648408371024,-32387.36479131756,-32307.34554616756,-32235.395280765926,-32171.84927127949,-32143.64136977689,-32162.573297330535,-32201.353573960496,-32174.12914921393,-32121.84841893297,-32039.63870282635,-31979.154882330287,-31974.148091572297,-31953.65154190678,-31861.517651262006,-31755.27980986593,-31691.80085561286,-31664.576430866295,-31645.59979982374,-31631.317035116797,-31650.2713144149,-31617.749526232426,-31574.230679777946,-31576.219985034466,-31524.498048364887,-31462.673123201508,-31354.78125271574,-31251.71735903232,-31174.134454027946,-31190.51828271369,-31218.27914932718,-31196.50855022771,-31194.899224626926,-31185.198567533324,-31190.227710035768,-31193.893396126437,-31182.561061687597,-31182.89633785443,-31152.386206672934,-31144.83131704704,-31133.610741330474,-31154.017884018172,-31183.03044832116,-31161.21514573278,-31147.647636848407,-31121.652558046888,-31106.45337181728,-31122.792497014107,-31133.878962263938,-31135.421232631357,-31087.05205763007,-31067.33781902049,-31107.325089851034,-31195.972108360784,-31245.883553729484,-31254.46662360032,-31270.3810656525,-31301.494693934288,-31311.262406261256,-31324.76285991226,-31332.787136171715,-31334.843496661604,-31365.3536278431,-31328.853229147582,-31277.84654830057,-31271.833929042095,-31255.830080012096,-31218.301501071634,-31226.07990814208,-31263.787301038185,-31222.727146473786,-31185.578547189063,-31212.13241960197,-31257.685274801886,-31290.251766473266,-31336.63163621803,-31293.068086274638,-31281.221661713324,-31334.038833861214,-31388.510035098796,-31419.98129129187,-31442.578904936185,-31519.737126795906,-31607.06539238279,-31622.935130946058,-31656.21687844001,-31744.595676016295,-31879.667267759716,-31969.208356047675,-32025.37828986386,-32136.332349340006,-32233.405975509406,-32328.892627822475,-32435.108117474094,-32476.101216805127,-32508.28772882077,-32635.08917511573,-32795.954679960574,-32908.719230737595,-32972.3322954574,-33084.38159041185,-33181.52227181462,-33252.98079883824,-33364.4265966924,-33475.67122884646,-33498.827636102156,-33529.7624504283,-33595.32011691572,-33685.352943581696,-33765.57335443179,-33762.42175846359,-33756.5656014163,-33791.814302422325,-33845.994930981986,-33956.63606603576,-34018.41628771023,-34036.61060769685,-33989.24726119605,-33976.931450001175,-34028.72044190412,-34060.28110507502,-34005.09464801486,-33996.802150821946,-34028.45222097066,-33985.112188471816,-33905.38351599974,-33856.81317529835,-33788.28272679839,-33799.83857868178,-33785.48875874147,-33713.67260380657,-33668.45502477348,-33608.21707346643,-33576.74581727336,-33534.903351653025,-33465.38942639702,-33410.09121061459,-33339.996140002746,-33267.68824668983,-33179.22004213572,-33079.06187523149,-33014.26416805555,-32983.32935372941,-32928.56757981391,-32890.50255900652,-32801.94494747459,-32707.173550984095,-32603.126180544637,-32565.39643590408,-32538.417880346526,-32496.016621114806,-32443.69118734493,-32412.018765451765,-32436.493925630326,-32430.637768583034,-32358.195764803382,-32307.412601400927,-32226.43223123935,-32179.404160905382,-32165.121396198443,-32142.61318953195,-32067.60073513994,-32001.640737252324,-31977.456149751684,-31978.171405574252,-31979.80308291949,-32015.230597881153,-31998.399734306306,-31953.808004117967,-31977.478501496138,-31991.560100502982,-31997.03627789453,-31955.640847163304,-31886.93158470769,-31841.334026018863,-31818.401136207718,-31801.972604033068,-31773.22826066354,-31710.41985874413,-31708.45290523206,-31734.023300888934,-31756.15152789969,-31717.95239662557,-31716.790105913893,-31701.45680921755,-31724.479106006518,-31779.39734213321,-31753.37991158723,-31723.51798099494,-31652.1712126936,-31549.666112621562,-31502.123952165122,-31518.865408762147,-31525.839153032204,-31534.71279558096,-31548.32500795424,-31537.462060148962,-31520.1394581961,-31460.683817944984,-31402.815151550192,-31381.78216001775,-31330.82018265965,-31277.62303085602,-31209.047878867135,-31204.823399165085,-31170.98285805975,-31092.572938510533,-31003.121257200393,-30950.12527109686,-30859.734816519598,-30830.789307449977,-30751.127690211262,-30683.44660800059,-30667.934497348608,-30640.933590046596,-30562.546022241837,-30505.99610876991,-30494.46260863097,-30456.26347735685,-30438.22561958142,-30439.16439284854,-30407.11199129963,-30421.953549617952,-30412.901093113556,-30439.25379982636,-30387.26364222332,-30296.42615275695,-30260.193974994898,-30271.57101292265,-30249.286323700708,-30199.263119609728,-30185.717962469815,-30183.10280836854,-30226.532247845204,-30220.98901522029,-30229.080346713108,-30189.406000304938,-30166.87544189399,-30133.839563589045,-30074.09335066001,-30028.80871639356,-29933.947912925236,-29903.281319532554,-29902.074325331967,-29915.44066851624,-29914.703060949214,-29836.740176289106,-29747.824936845893,-29716.666605075196,-29734.995035528547,-29736.582009384874,-29708.374107882275,-29634.635702924217,-29625.024452808437,-29658.283848557934,-29686.134122149244,-29649.16433682017,-29627.438441209608,-29559.623248532207,-29535.46101277602,-29542.166536112614,-29545.74281522546,-29541.78655645687,-29567.93809746958,-29523.45812600352,-29482.196805739022,-29526.02857661588,-29531.840030174262,-29534.723405208995,-29553.632981018185,-29561.12081541071,-29542.010073901427,-29537.98675989947,-29566.731103268994,-29586.937080256594,-29653.63468571123,-29704.797828769428,-29772.501262724552,-29837.164859433757,-29852.85578404138,-29906.768191667583,-29997.51627415613,-30079.70363851829,-30149.619895174492,-30273.895594346,-30355.926496496977,-30402.26166275283,-30485.45485561548,-30563.484795508957,-30629.288331185384,-30727.256027132993,-30848.335426847392,-30936.133079067837,-31022.880199298885,-31123.284235392122,-31094.49518853369,-31108.10740090697,-31146.239476947725,-31127.64282556091,-31156.700093352807,-31192.88756762595,-31219.84377143905,-31212.244178324247,-31184.617422177485,-31203.45994275331,-31216.021623137192,-31228.292730843157,-31242.351978105544,-31261.529774848197,-31292.889272318993,-31296.018516542736,-31282.965097780838,-31289.178882739412,-31320.38191799902,-31311.86590336155,-31279.72409483482,-31244.74361476226,-31191.255890280714,-31120.62437780194,-31052.026874068604,-31009.491504370155,-30999.053239709527,-30931.819192387964,-30866.39563636728,-30855.48798507309,-30812.438525252168,-30721.981015441543,-30604.030859950886,-30541.33421675375,-30511.36052743918,-30506.577254125747,-30496.720134820956,-30472.17791940903,-30438.717357959435,-30371.907993782523,-30313.122905865064,-30267.905326831977,-30235.808221794156,-30116.852237803014,-30026.014748336645,-29939.759366483613,-29804.777181718015,-29697.846436243828,-29654.26053455598,-29632.758156389973,-29655.333418289832,-29655.981618879036,-29550.771957727906,-29407.229054835923,-29320.638396816066,-29265.004904866804,-29229.73385211633,-29241.423814466456,-29230.963198061374,-29217.663910110467,-29220.92726480094,-29218.580331633133,-29224.63765438052,-29236.41702370847,-29205.3928024045,-29166.29960135217,-29108.587397168565,-29074.03160024066,-29071.908184517408,-29048.170631905872,-29016.341747801514,-28988.133846298915,-29010.70910819878,-28980.757770628665,-28912.607301784436,-28890.948461407243,-28921.10096467745,-28882.23128106967,-28818.484105883137,-28765.55517501297,-28707.73121210709,-28614.43503075064,-28555.202907944073,-28543.200021171575,-28524.938645951588,-28487.477122244494,-28447.7133688585,-28410.318900384773,-28317.246236472874,-28247.709959472413,-28211.567188688183,-28236.534087244763,-28217.512752713294,-28171.37875215754,-28110.447896772373,-28028.97578823278,-27953.426891973842,-27933.37737719743,-27885.835216740994,-27809.146381514835,-27785.095904480924,-27787.73341032665,-27759.3019913795,-27680.154464263258,-27669.04564726897,-27633.059338695926,-27578.36462001379,-27561.01966631647,-27508.180142424124,-27423.578789660787,-27336.339931051723,-27292.284642730316,-27243.24491539537,-27161.99632430033,-27145.12075723657,-27157.257754475806,-27105.89344571751,-27051.39989273547,-27008.26102593673,-26958.416635801394,-26932.130984321953,-26893.060135014075,-26835.45968955275,-26821.22162833472,-26830.095270883474,-26802.93790137028,-26740.42007212878,-26743.661075074804,-26741.805880285014,-26676.114103330863,-26581.946203940657,-26515.494467675027,-26476.557728833883,-26405.389774488187,-26362.921460023103,-26289.943014376524,-26264.797301864302,-26159.297068035256,-26054.82501445115,-26036.541287486707,-26045.951371902393,-26038.619999721053,-25999.52679866872,-25961.305315650145,-25894.518303217686,-25832.58161933203,-25854.93336378734,-25883.856521112506,-25872.345372718024,-25867.539747660132,-25842.88577352593,-25826.479593095733,-25826.5466483291,-25836.984912989727,-25855.670971354364,-25896.149980562925,-25891.523169460677,-25857.302648699602,-25815.706052268273,-25769.773217412618,-25820.891656981905,-25865.17046274787,-25919.105222118524,-25975.38691465699,-25972.838815789084,-26029.88046763903,-26071.16413964798,-26124.003663540327,-26138.666407903005,-26198.010289431848,-26341.776709768383,-26490.48286562954,-26617.26196018004,-26786.24114826216,-26933.22621980026,-27062.084026585107,-27162.264545233793,-27281.175825736027,-27414.101650011737,-27513.455154115578,-27612.60749251932,-27725.506153763075,-27825.664320667307,-27872.200652623258,-27972.001191616204,-28126.18352486891,-28249.855726940124,-28356.294734036295,-28400.90881596909,-28408.977795717456,-28466.377075478686,-28504.68796547508,-28524.446907573572,-28482.82795939779,-28535.488669334492,-28606.74603065801,-28663.72062727459,-28688.888691531265,-28648.029702666965,-28625.253275067007,-28671.029647711475,-28677.444598370148,-28616.357280773795,-28573.956021542075,-28564.389474915206,-28622.459307010093,-28563.070721992342,-28491.723953691002,-28478.335258762272,-28461.750264376435,-28439.62203736568,-28444.539421145848,-28458.710427130514,-28416.823258021268,-28292.74872454986,-28222.8101161492,-28166.439016632918,-28075.333306233086,-27994.73291572725,-27940.61934240095,-27902.75548729366,-27856.75559720464,-27837.84602139545,-27783.59833760242,-27692.15735103576,-27608.293605839444,-27528.475526389546,-27474.764284463443,-27455.653542954155,-27401.361155672213,-27285.690878116,-27187.834940890665,-27140.42689090096,-27054.663247425946,-26962.037618403152,-26889.774428579145,-26815.767802687624,-26728.059557444998,-26566.881128177778,-26472.355600876286,-26470.32159213085,-26477.451798612095,-26469.852205497293,-26427.875629410224,-26412.40822224715,-26359.769864054902,-26321.526029291872,-26244.90424929908,-26205.341661613187,-26191.528283539807,-26110.614968611597,-26039.58112473263,-25978.89613853647,-25926.861277444517,-25873.97705006326,-25805.24543586319,-25796.95293867027,-25843.556325859587,-25820.086994181514,-25809.559322543064,-25755.95983933924,-25706.338966648458,-25700.840437512452,-25690.17865540727,-25656.65103872431,-25617.468430694156,-25570.328601637913,-25533.87290643131,-25501.462876971113,-25443.862431509788,-25412.301768338893,-25365.74308463849,-25313.52940959089,-25266.546042745835,-25247.010618091896,-25209.392632173614,-25135.184840581995,-25024.253132850306,-24932.78979453919,-24925.92780899141,-24934.68969281789,-24912.337948362583,-24838.465432937795,-24808.938778512333,-24788.174007913352,-24719.911780346847,-24641.367750330897,-24614.54565698453,-24635.10926188341,-24648.20738413422,-24609.382404015352,-24558.82275805745,-24475.338992516878,-24386.177883884655,-24360.20515682759,-24306.248045712477,-24239.684550724574,-24207.207466031014,-24151.752788037396,-24093.325328031224,-24040.128176227594,-23993.636547760554,-23958.924288621463,-23876.044020181183,-23775.572928854577,-23723.918047418363,-23683.237872509704,-23647.34097091448,-23606.14670588335,-23580.889234648854,-23565.019496085584,-23502.054631954987,-23424.49407869507,-23298.98903357852,-23289.154266018184,-23316.311635531383,-23305.8510191263,-23255.64900107968,-23216.30993083834,-23195.612215472727,-23158.128340021176,-23118.699862802016,-23106.696976029514,-23055.287963782306,-23012.730242339403,-22987.316308893718,-22935.34850303513,-22948.558384008218,-22946.457320029418,-22897.618758394572,-22857.13974918601,-22809.821106174124,-22774.058315045633,-22728.371349378987,-22696.609520507995,-22679.331622044043,-22630.604819131473,-22602.2851589066,-22576.46889406072,-22548.953896636238,-22498.4613059117,-22426.53339225452,-22393.117534293837,-22425.035825376013,-22481.004593492104,-22483.195064448722,-22419.514944495553,-22372.129246250304,-22367.167158981225,-22339.205126667635,-22270.674678167663,-22273.535701457942,-22295.999204635526,-22262.248070508012,-22201.272511633935,-22218.21513393106,-22230.73211082603,-22242.64559062071,-22261.801035618908,-22257.88948033923,-22229.77098581445,-22204.781735513418,-22207.553351825878,-22276.821407892872,-22351.09625471786,-22403.19817104318,-22427.449813777188,-22468.375857874857,-22527.831498125972,-22617.841973047493,-22792.94553911037,-22947.30668631872,-23062.59698421919,-23189.577244469794,-23323.173621079164,-23436.631075934303,-23535.17991723775,-23625.100985181452,-23752.46122508779,-23930.805794096686,-24005.79589674424,-24060.244746237368,-24171.019991757872,-24291.071211227325,-24398.001956701515,-24542.90831600527,-24642.753558487126,-24698.275291714108,-24779.926214209347,-24853.195232533842,-24936.433128885405,-25004.650652963002,-25073.24815669634,-25136.97298013842,-25151.568669267737,-25193.70170756599,-25220.99318754592,-25254.34199027324,-25214.04179502032,-25211.78426883033,-25241.19916453352,-25200.809562302777,-25142.762081952344,-25058.67481931148,-25053.265697153296,-25019.62632174806,-24998.146295326507,-24945.41853015644,-24913.611997796535,-24905.252445370254,-24924.22907641281,-24902.50318080225,-24873.848244410547,-24827.58013338806,-24788.889263735924,-24779.233310131232,-24714.97204482222,-24646.285134111065,-24585.24252000362,-24498.473048028118,-24417.850305777825,-24369.369372054265,-24299.09548748678,-24282.75636228995,-24252.80502471984,-24193.327032724268,-24116.43703179801,-24040.910487283527,-24000.096201908138,-23966.814454414183,-23875.708744014355,-23797.23176923177,-23741.151242393404,-23713.658596713376,-23701.65570994088,-23597.563636012514,-23476.35012583138,-23350.979191181566,-23264.768512817445,-23225.8317739763,-23177.999040841943,-23115.280045900352,-23125.04775822732,-23127.037063483844,-22999.632120088594,-22934.58854372365,-22910.11338354509,-22855.843348007602,-22846.52267056974,-22817.018367888733,-22762.256593973234,-22768.828006843094,-22724.772718521683,-22652.889508353415,-22605.682624063807,-22606.867266519937,-22557.536966507076,-22495.93555878825,-22460.440988593222,-22358.13705422128,-22299.08374537036,-22204.088831435303,-22147.00247609645,-22139.246420770458,-22067.922004213575,-21977.91152929205,-21896.595882963644,-21834.74860605581,-21771.001430869273,-21716.843154054066,-21586.666594346356,-21504.30041602855,-21402.66703399027,-21307.850934010858,-21292.31647161442,-21262.29807881094,-21183.798752283903,-21076.488027153973,-20979.593214940218,-20908.157039661055,-20844.18634702997,-20751.985401151825,-20676.05652523715,-20608.308387793113,-20545.522337618153,-20521.985950706716,-20448.404007959845,-20399.520742836088,-20348.894041644817,-20306.090451012904,-20258.213014389636,-20194.912874092206,-20163.218100454582,-20135.300771629903,-20146.230774668547,-20148.309486902894,-20110.669149240155,-20022.223296430504,-19950.18362405105,-19942.025237324862,-19952.418798496583,-19937.912516345088,-19926.110795272685,-19931.51991743087,-19907.111812485673,-19834.379236028104,-19717.501964271305,-19675.23481550632,-19700.671100696458,-19712.60693223559,-19671.591481160103,-19628.31850389463,-19539.850299340524,-19513.162316460886,-19506.389737890928,-19531.71426435879,-19572.908529389922,-19594.187390111376,-19602.323425093105,-19646.17754771442,-19676.575920173636,-19653.866547807043,-19620.651855546457,-19613.298131620664,-19645.08231223611,-19697.00541460579,-19705.81200192118,-19683.549664443693,-19672.75377187178,-19663.813074089656,-19629.950181239867,-19605.385614083483,-19589.11354412002,-19600.714099492325,-19610.615922286026,-19566.31476477561,-19533.480052170762,-19599.037718658175,-19679.191074274906,-19736.23272612485,-19716.071452626165,-19717.971350904867,-19722.441699795927,-19662.807245589167,-19664.79655084569,-19686.99183308981,-19731.56121153369,-19801.43276470098,-19827.204326057952,-19806.931293836988,-19718.99953114981,-19664.528329912227,-19672.485550938316,-19666.9423183134,-19704.76146993178,-19714.730347958845,-19730.7565487333,-19730.57773477766,-19749.755531520314,-19786.971186038398,-19775.594148110646,-19780.645642357547,-19806.193686269962,-19848.818462946234,-19941.086464057742,-19980.023202898887,-19979.889092432153,-20014.176668426593,-20052.755779356456,-20142.743902533522,-20241.806833959443,-20358.438236527236,-20494.895636426885,-20603.145134823935,-20705.85140059607,-20820.873477563084,-20953.66519137206,-21018.708767737004,-21118.17403056312,-21253.133863584266,-21404.254007846597,-21579.290518676105,-21642.814176418087,-21714.518572630714,-21835.597972345113,-21920.66871174201,-21997.670471390542,-22114.681853614074,-22235.202459717093,-22339.249830156547,-22380.37703995431,-22451.634401277828,-22523.27174225709,-22580.98394644069,-22627.67674060783,-22657.53867120012,-22663.730104414237,-22707.852447969013,-22764.35765795203,-22771.666678388916,-22721.19643940883,-22725.599733066527,-22680.784485433636,-22610.33178691051,-22573.741981237174,-22564.35424856594,-22545.46702450121,-22495.577930876963,-22463.92786072825,-22432.881287679826,-22412.29533103649,-22384.623871400818,-22310.37137632029,-22227.200535202093,-22179.56896776783,-22152.791577910375,-22105.36117617621,-22066.580899546254,-22064.546890800822,-22057.394332575124,-22027.912381638573,-21934.750310748856,-21838.12371946856,-21761.74780866478,-21694.200836920838,-21658.393342303436,-21606.403184700393,-21554.88241373091,-21495.225607779696,-21419.162621398285,-21397.392022298816,-21396.766173454067,-21379.823551156947,-21289.813076235423,-21231.542078440438,-21232.234982518552,-21245.422511747183,-21194.169961711166,-21168.89013873221,-21173.114618434265,-21165.962060208567,-21122.309103287353,-21116.341187517784,-21073.13526548568,-20996.468782003973,-20958.895499574603,-20928.60888583766,-20860.145492571057,-20762.78129372374,-20735.19924106589,-20763.943584435416,-20759.428532055445,-20757.998020410305,-20749.25848832828,-20766.69284900342,-20763.116569890568,-20730.95240961938,-20676.011821748238,-20600.708794678307,-20531.887773500417,-20493.040441637095,-20511.72650000173,-20594.60676844201,-20601.84873364553,-20567.672916373365,-20575.29486123262,-20565.996535539216,-20539.643828826407,-20513.62639828043,-20482.982156632206,-20430.276743206592,-20309.286750470015,-20194.063507802904,-20160.602946353312,-20153.98682999454,-20167.33082143436,-20119.78866097792,-20096.811067677863,-20050.475901422014,-19962.477083501468,-19873.003050446874,-19844.482224521904,-19763.948889249434,-19683.996699332798,-19580.44106727136,-19476.438400320818,-19395.189809225776,-19272.9481187997,-19166.397352981254,-19117.201163435122,-19039.90883110867,-18918.516506971897,-18828.483680305922,-18765.004726052848,-18724.883344755573,-18709.885324226063,-18652.240175275823,-18614.622189357542,-18552.70785721634,-18500.47183042429,-18460.953946227306,-18392.289387260604,-18324.943581216765,-18275.94855737073,-18211.55318159499,-18155.919689645732,-18130.036369566486,-18054.889804707742,-18026.301923549407,-18024.357321781794,-17987.387536452716,-17933.69864627107,-17924.199154877562,-17918.320646085816,-17905.177820346096,-17856.942755811546,-17829.740682809435,-17778.488132773415,-17748.782664392314,-17758.103341830178,-17789.28402534533,-17787.65234800009,-17771.112057103164,-17757.94687961899,-17774.464818771463,-17747.262745769352,-17719.546582644773,-17739.014952065343,-17733.963457818445,-17724.12869025811,-17726.22975423691,-17730.208364749953,-17708.817745306224,-17697.08307946719,-17684.16377117202,-17652.290183578752,-17662.12495113909,-17697.105431211643,-17704.190934203976,-17686.15307642854,-17655.799407458235,-17702.000463247357,-17705.755556315846,-17676.385364101574,-17672.317346610707,-17677.68176527998,-17644.64588697504,-17636.39809327103,-17611.118270292078,-17580.004642010288,-17605.843258600624,-17625.57984895466,-17623.63524718705,-17618.851973873614,-17640.48846250635,-17644.511776508305,-17633.20179381392,-17550.3438771181,-17517.933847657903,-17546.409970093962,-17499.13603057099,-17478.192446016365,-17484.026251319203,-17462.099190008546,-17456.265384705708,-17463.663812120416,-17438.67456181938,-17467.910643566924,-17486.261425764733,-17459.148759740445,-17473.900911080946,-17481.768725129215,-17491.871713623015,-17517.03977787969,-17581.32339493315,-17654.435951046464,-17721.89351581258,-17780.008051396377,-17857.054514533822,-17940.538280074394,-18053.012258173498,-18138.462977226136,-18228.719321336666,-18341.305058158046,-18437.708131993786,-18479.50589412521,-18504.60690314852,-18549.399799036957,-18606.039119486704,-18662.94666086992,-18710.153545159526,-18812.837459187205,-18928.731254187973,-19019.255819231967,-19043.82038638835,-19059.310145295876,-19053.230470804032,-19070.798941945905,-19100.705576027107,-19142.83861432536,-19146.21372773811,-19104.080689439856,-19153.522748174997,-19197.578036496405,-19196.974539396113,-19177.21559729762,-19139.441149168153,-19150.728780118083,-19143.911498059213,-19120.88920127025,-19111.277951154465,-19086.378107831253,-19012.19266798409,-18944.71275147352,-18922.852745396227,-18908.79349813384,-18914.56024820331,-18912.056852824313,-18892.566131659285,-18860.49137836592,-18845.11337818067,-18806.02017712834,-18774.414810468534,-18701.99515843334,-18627.4967941638,-18645.4005414725,-18649.222689774357,-18628.92730580894,-18571.036287669693,-18468.821760275576,-18401.677119931832,-18347.988229750186,-18260.41409497429,-18143.73798891759,-18082.136581198763,-18035.287324820438,-17974.915263046656,-17864.475293692984,-17795.251941114897,-17799.498772561405,-17780.388031052116,-17718.20547797745,-17633.82764265867,-17577.68006058694,-17513.95523714486,-17431.11967219349,-17321.059682495557,-17298.976158973714,-17231.049207574037,-17127.47122376814,-17063.478179392598,-17001.608550740308,-16929.904154527685,-16898.812877990353,-16835.19981327055,-16808.556533879822,-16794.586693595254,-16728.11260558517,-16655.603546572154,-16673.172017714027,-16675.16132297055,-16658.419866373522,-16600.417089512004,-16576.321908989183,-16574.310251988205,-16573.19266476544,-16552.629059866555,-16523.437681607924,-16505.578637788134,-16495.676814994433,-16490.044175391697,-16446.92766033741,-16400.72660454829,-16395.16102017892,-16424.598267626556,-16416.372825667004,-16382.509932817215,-16425.604096127045,-16425.425282171404,-16368.897720443932,-16267.644318061391,-16173.163494248807,-16129.644647794325,-16160.691220842746,-16181.143067019353,-16112.769080730568,-16033.710960592147,-15954.362267775807,-15939.051322823922,-15917.303075468908,-15867.302223122386,-15804.27030375842,-15709.0071688899,-15649.663287361062,-15596.533190790797,-15548.119312300601,-15551.717943157906,-15599.684786758995,-15575.276681813799,-15461.886282192027,-15439.489834247808,-15443.356686038576,-15432.180813810923,-15383.56576962063,-15351.111036671524,-15355.84960649605,-15334.660152752418,-15300.037300591148,-15301.93719886985,-15316.152908343425,-15295.79046914464,-15280.524227681664,-15251.310497678578,-15223.43787234281,-15180.589578221987,-15158.506054700143,-15189.597331237475,-15189.709089959752,-15152.739304630675,-15143.239813237169,-15150.66059239633,-15151.264089496624,-15127.191260718258,-15067.400344300313,-14973.545369332478,-14927.277258309992,-14850.141388194728,-14792.138611333206,-14748.686820112089,-14691.376947328681,-14662.207920814506,-14636.883394346643,-14598.751318305889,-14577.897140729088,-14555.92537592952,-14559.300489342271,-14512.96532308642,-14469.379421398571,-14391.103612316087,-14324.69657953937,-14296.913361181423,-14250.555843181115,-14277.310881294117,-14322.707274282846,-14316.649951535459,-14312.73839625578,-14259.384782240963,-14241.883366332457,-14262.737543909258,-14278.942558639355,-14325.367131873028,-14316.873468980011,-14291.504239023237,-14218.838717799035,-14154.71156295676,-14098.854553562947,-14045.523291292584,-14057.012087942612,-14032.447520786229,-13971.874293312347,-13942.392342375797,-13903.32149306792,-13879.114553822823,-13853.588861654862,-13879.785106156482,-13930.970600959135,-13954.90931927077,-13871.894940363758,-13823.034026984458,-13834.969858523591,-13837.361495180308,-13799.788212750938,-13811.232305912055,-13826.252678186022,-13820.240058927544,-13824.241021185044,-13858.193321012655,-13879.136905567279,-13924.421539833731,-13942.638211564805,-13990.314482487975,-14103.704882109749,-14217.922296276367,-14309.944428198867,-14480.063555248209,-14622.51122266188,-14667.70644995051,-14759.259195239449,-14812.41164355417,-14869.542702381934,-14938.52018577101,-15024.507346690578,-15103.721929040186,-15169.05607808305,-15254.998535513705,-15329.541603272153,-15368.65715606894,-15408.53266817721,-15479.901788223004,-15602.031719926801,-15657.084066520223,-15717.836107949748,-15752.660125811117,-15778.834018568281,-15775.50360864444,-15787.238274483476,-15853.444141560096,-15847.766798468449,-15787.46179192803,-15708.671892723072,-15704.693282210028,-15714.081014881256,-15714.371587559175,-15667.47762769194,-15589.09005988718,-15573.220321323912,-15592.822801211216,-15598.120164647124,-15601.51762980433,-15523.666503866496,-15445.703619206384,-15435.399465012488,-15397.043871527181,-15355.961365218327,-15301.490163980743,-15214.832450727517,-15183.070621856526,-15119.189336203259,-15032.419864227757,-14954.009944678539,-14853.091818462828,-14805.013216139463,-14764.78007611991,-14693.366252585203,-14608.340216677216,-14546.001201391364,-14463.858540518111,-14371.098801028587,-14285.983358142777,-14206.969941493267,-14130.12464405592,-14039.711837734205,-13967.985089777123,-13925.784996245504,-13868.74334439556,-13790.735756246539,-13761.969061132559,-13712.370540186232,-13706.112051738746,-13714.516307653941,-13660.872120961205,-13591.671120127574,-13561.831541279738,-13547.146445172602,-13566.100724470703,-13580.45054441101,-13563.463218624976,-13581.456372911498,-13627.769187422895,-13670.729240265995,-13636.732236949472,-13651.774960967894,-13639.1685770951,-13656.46882730351,-13734.498767196987,-13760.046811109401,-13796.278988871454,-13839.954297537124,-13885.574207970407,-13897.46533602063,-13830.49950963253,-13775.938901417125,-13766.528817001441,-13822.92226826218,-13845.497530162042,-13814.629771069262,-13847.665649374207,-13841.720085349094,-13749.742656915505,-13721.422996690631,-13672.204455400046,-13623.03061759837,-13617.21916403999,-13617.554440206819,-13587.871323570173,-13513.507069767365,-13459.549958652255,-13415.047635441737,-13417.573382565188,-13434.448949628944,-13389.968978162882,-13392.830001453161,-13417.126347676081,-13364.68915518393,-13263.569863268121,-13205.500031173235,-13209.344531219547,-13205.27651372868,-13151.989954947228,-13113.857878906474,-13102.324378767536,-13052.100008976462,-13093.137811796405,-13028.764787765122,-12901.449251347693,-12851.91778563473,-12840.361933751337,-12857.773942682023,-12883.970187183642,-12853.214186813138,-12773.999604463532,-12693.868600591255,-12613.223506596507,-12589.910637129622,-12538.345162671229,-12496.547400539805,-12530.522052111872,-12535.19356670303,-12464.159722824064,-12421.266725214331,-12403.251219183352,-12339.459340507907,-12300.522601666762,-12293.48180216334,-12287.737403838326,-12284.183476469932,-12234.875528201525,-12174.749335616749,-12181.074879297601,-12174.79403910566,-12168.401440191441,-12138.472454365785,-12082.794258927615,-12063.77292439615,-12055.636889414418,-12040.169482251345,-12034.492139159696,-12005.166650434334,-11959.524388256597,-11940.570108958496,-11953.087085853469,-11965.022917392602,-11986.726461258706,-11981.18322863379,-11951.008373619125,-11881.270930918567,-11857.131046906836,-11836.276869330033,-11830.018380882548,-11803.978598592115,-11761.957319016137,-11758.269281181012,-11783.347938459867,-11814.707435930663,-11766.427667907199,-11685.112021578792,-11654.64659388621,-11634.172395965148,-11595.325064101824,-11548.609918190232,-11525.632324890175,-11549.369877501713,-11569.419392278123,-11567.228921321503,-11611.86535499875,-11655.607718897787,-11635.088817487815,-11638.01689601146,-11623.10828245977,-11556.410677005135,-11589.223037865524,-11597.24731412498,-11586.563180275343,-11592.86637221174,-11596.4873548135,-11573.86738942473,-11545.726543155497,-11571.967491146028,-11655.16068400868,-11709.117795123791,-11765.600653362353,-11791.19340076368,-11851.654869515285,-11917.190184258245,-11975.148257630857,-12134.024457219179,-12245.582013795616,-12298.354482454597,-12363.174541374987,-12509.466708834972,-12627.819195725822,-12709.336007754328,-12712.197031044607,-12712.062920577875,-12766.735287515556,-12806.811965323921,-12868.59218699839,-12857.729239193111,-12852.521282735024,-12891.07804192043,-12920.962324257174,-12972.080763826461,-12942.755275101099,-12951.22658624966,-12986.408232022313,-12998.411118794815,-12989.157496590316,-12989.179848334772,-12955.652231651811,-12967.431600979759,-12949.170225759772,-12910.50170785209,-12870.156809110262,-12804.77795657849,-12763.404877591716,-12715.818013646367,-12656.116504206242,-12591.184686563574,-12525.224688675964,-12457.722420420936,-12404.12293721711,-12348.578852245671,-12327.434101990952,-12280.80836305718,-12262.994022726301,-12271.822961786147,-12245.492606817796,-12159.058411009122,-12072.378346011443,-11974.70122274175,-11857.287509118023,-11772.95437728815,-11737.146882670748,-11699.439489774644,-11701.965236898093,-11696.042024617438,-11613.228811410525,-11509.695531093543,-11484.393356370134,-11433.565489478766,-11360.654099065554,-11286.133383051561,-11240.088789473628,-11197.68753024191,-11143.283384237693,-11025.444987469315,-10893.30147424954,-10773.294958268996,-10702.149355667754,-10628.0086193095,-10588.826011279347,-10548.838740448802,-10494.501649677952,-10424.20541336601,-10361.128790513134,-10314.145423668078,-10300.488507805885,-10289.1785251115,-10261.708231175928,-10209.695721828428,-10156.096238624601,-10113.024427059225,-10086.76112732424,-10084.145973222969,-10078.267464431223,-10118.567659684142,-10126.1896045434,-10131.95635461287,-10117.830052117117,-10152.765828700762,-10173.552951044197,-10161.01362240477,-10179.587922047129,-10199.726843801362,-10197.871649011571,-10221.318628945188,-10267.363222523121,-10295.66053100354,-10323.823729017226,-10272.03473711428,-10207.795823549726,-10224.716094102394,-10250.912338604014,-10297.716891493428,-10303.75186249636,-10259.182484052479,-10243.737428633862,-10207.527602616263,-10173.329433599643,-10159.739572970817,-10107.61530490104,-10077.328691164099,-10030.255917341223,-9962.798352575106,-9944.559329099577,-9927.236727146714,-9928.421369602844,-9853.408915210834,-9818.584897349465,-9751.26144305008,-9685.592017840389,-9652.086752901883,-9575.956711287106,-9554.387277887736,-9511.181355855628,-9407.156337160628,-9331.94271706852,-9281.673643788534,-9210.39393072056,-9160.795409774233,-9115.935458652433,-9072.774240109235,-8984.283683810674,-8878.694043003803,-8816.355027717951,-8763.895483481347,-8743.086009393455,-8667.604168367883,-8577.683100424183,-8507.811547256893,-8483.090517889324,-8462.571616479352,-8470.037099127425,-8471.691128217117,-8425.691238128094,-8366.995557188458,-8313.2619635179,-8239.903538215583,-8153.223473217902,-8131.98931598536,-8144.528644624787,-8092.717300977386,-8082.748422950319,-8076.288768802735,-8031.697038614398,-7956.349308055557,-7873.759612293198,-7847.049277669106,-7895.016121270195,-7911.556412167122,-7903.174507996382,-7830.888966427919,-7819.6236872224445,-7828.273812326648,-7803.262210281159,-7775.546047156578,-7773.15441049986,-7788.06302405155,-7795.461451466257,-7808.850146394986,-7811.420597007346,-7824.652829724888,-7802.859878880964,-7827.424446037347,-7853.240710883226,-7866.897626745418,-7869.088097702039,-7843.137722389427,-7843.025963667151,-7899.262952716703,-7948.593252729565,-7988.2675991377355,-7995.196639918881,-7962.339575569579,-7961.534912769189,-7938.71378168032,-7963.2559970922475,-8010.529936615221,-8060.508437217288,-8118.13123442307,-8116.074873933181,-8187.712214912441,-8288.272713216867,-8318.961658354005,-8308.411634971098,-8333.669106205596,-8421.399703192676,-8552.179760000678,-8674.376746937842,-8787.096594225955,-8864.56774050805,-8875.028356913133,-8919.351866168006,-8974.381861016973,-9020.538213317182,-9093.628417686035,-9209.119881286608,-9310.306228435782,-9343.677382907556,-9448.350602191758,-9532.08023692134,-9557.538873855934,-9555.974251744063,-9555.057830221394,-9575.800249075919,-9580.315301455892,-9584.025691035473,-9598.084938297861,-9629.176214835194,-9670.638700799787,-9716.102149021883,-9771.780344460052,-9824.329295674479,-9831.392446922357,-9820.887127028362,-9793.550943559521,-9726.965096827162,-9672.762116523041,-9599.358987731814,-9522.6478007612,-9439.923994532108,-9400.674331268589,-9385.89982818363,-9336.502472937402,-9282.277140888827,-9238.244204311874,-9200.357997460127,-9103.910220135478,-9054.69167884489,-9058.871455058033,-9050.824827054123,-9011.061073668132,-8921.408226657895,-8866.333528320018,-8878.694043003803,-8838.46090298425,-8758.173436900788,-8694.538020436528,-8544.513111652508,-8434.900156843682,-8415.744711845484,-8407.988656519492,-8376.226827648501,-8317.955829853516,-8294.084166775247,-8261.450619870498,-8196.76467141684,-8176.5139909403315,-8146.0485632477485,-8070.767887922274,-8013.0333319942165,-7949.308508552135,-7930.086008320572,-7906.795490598141,-7831.470111783757,-7823.937573902318,-7879.705176318309,-7840.410809565879,-7768.773468586621,-7768.773468586621,-7819.668390711355,-7841.014306666173,-7825.189271591816,-7780.329320470014,-7705.294514333548,-7677.8689238868865,-7668.99528133813,-7595.83802173591,-7577.174315115728,-7613.205327177683,-7628.069237240463,-7585.399757075282,-7567.361899299848,-7586.807916975966,-7556.253082305561,-7558.465905006637,-7635.9594030331855,-7643.983679292641,-7600.353074115882,-7606.499803841091,-7595.592152546901,-7597.067367680952,-7570.871123179331,-7543.669050177223,-7571.7428412130885,-7571.966358657642,-7541.5679861984245,-7496.6633315877125,-7398.6956356401015,-7361.971719500032,-7332.73563775249,-7323.549070781359,-7372.700556838579,-7343.26330939094,-7298.269247802406,-7241.585223863748,-7154.659289677059,-7111.475719389406,-7058.703250730426,-7034.652773696515,-7000.0522732797,-6955.885226236013,-6925.062170632144,-6899.4023679974525,-6838.091532956545,-6820.478358325763,-6821.908869970903,-6806.642628507928,-6768.57760770054,-6734.290031706099,-6694.101595175457,-6665.26784482811,-6640.725629416183,-6630.130902544368,-6609.656704623307,-6605.365169687888,-6629.594460677441,-6589.718948569173,-6514.214755799146,-6464.102144730347,-6421.1867953761575,-6397.091614853337,-6352.365774198267,-6310.9479917225835,-6337.747733324496,-6367.207332516591,-6336.853663546284,-6293.446575814078,-6233.789769862863,-6202.027940991872,-6203.413749148101,-6259.4272207531,-6292.6419130136865,-6256.052107340349,-6225.541976158855,-6170.467277820979,-6135.6209082151545,-6106.92126833454,-6097.4664804299455,-6052.762991519331,-6052.807695008242,-6079.8533057991635,-6084.837744812697,-6065.101154458661,-6025.404456306035,-6032.445255809457,-6063.380070135602,-6024.95742141693,-6018.140139358061,-6006.785453174764,-6052.450067096957,-6073.77363130732,-6064.899988758563,-6113.537384693312,-6148.048478132306,-6161.638338761132,-6144.2486815749035,-6136.492626248912,-6143.980460641439,-6161.392469572123,-6193.690740310042,-6286.629293755209,-6362.111134780781,-6411.866117938294,-6494.768738123029,-6571.457573349187,-6603.35351268691,-6603.465271409187,-6575.927922240248,-6615.423454692776,-6688.893638717371,-6716.8556710309595,-6734.826473573026,-6763.794334387105,-6823.115864171489,-6846.473437127285,-6821.68535252635,-6795.422052791364,-6775.506648481685,-6766.72241291075,-6801.4346720498415,-6853.313070930609,-6853.424829652886,-6784.469698008264,-6780.982825873235,-6741.353182953976,-6695.174478909312,-6673.381528065387,-6658.048231369046,-6655.544835990052,-6622.061922796002,-6549.664622505263,-6495.305179989956,-6480.642435627275,-6443.292670642456,-6365.240379004524,-6284.86350594324,-6264.8139911668295,-6200.642132835643,-6168.276806864358,-6145.880358920141,-6116.756035894876,-6003.991485117851,-5898.267733844249,-5795.136784927462,-5738.586871455535,-5706.51211816217,-5703.047597771597,-5676.784298036611,-5623.0060008771425,-5606.085730324475,-5589.880715594378,-5572.602817130425,-5553.67088957678,-5486.213324810663,-5422.354390901851,-5331.695715391125,-5261.377127334729,-5190.231524733487,-5123.958602423501,-5089.469860728963,-5070.582636664229,-5067.207523251477,-5034.395162391086,-4947.5586351822185,-4893.44506185592,-4880.257532627289,-4823.484101710809,-4758.284063134678,-4741.743772237751,-4721.224870827779,-4698.2696292721785,-4693.732225147752,-4687.6972541448185,-4657.008309007681,-4645.608919335476,-4712.21711781229,-4686.199687266313,-4600.5925060024865,-4568.741270153674,-4518.226327684681,-4468.940731160728,-4405.059445507461,-4415.989448546105,-4435.97190808915,-4395.895230280785,-4370.548352068467,-4354.790372227475,-4304.074264058383,-4246.183245919138,-4259.7284030590545,-4232.615737034766,-4239.768295260465,-4276.134583489249,-4305.035389069962,-4254.408687878691,-4241.489379583523,-4190.661512692155,-4143.521683635912,-4144.303994691849,-4128.076628217295,-4098.371159836192,-4121.125235691695,-4093.833755711765,-3989.808737016766,-3940.1878643259843,-3942.0430591157747,-3902.0110847963197,-3843.270700367773,-3788.8665543635557,-3777.489516435804,-3810.8159674186672,-3814.8392814206222,-3799.885964380022,-3806.144452827508,-3832.653621751502,-3793.2251445323404,-3751.427382400916,-3720.6713820304135,-3662.6462534244365,-3654.756087631713,-3634.416000177384,-3591.143022911909,-3529.2063390262533,-3480.9712744917006,-3469.348367374941,-3433.920852413279,-3382.1765639992436,-3393.2630292490758,-3416.061808593489,-3365.099831235389,-3311.5003480315627,-3266.0816032983785,-3239.527730885474,-3169.075032362346,-3071.5096678149307,-3021.888795124149,-2991.8256988317607,-2938.829712728228,-2910.018314125337,-2922.7364567204067,-2933.755866736873,-2854.89891229855,-2761.4015652420003,-2706.326866904124,-2653.777915689697,-2605.162871499404,-2619.4679879508008,-2620.1161885400047,-2611.287249480158,-2579.2795514201584,-2536.3418503215134,-2449.170046945816,-2407.9757819146853,-2375.923380365775,-2369.307264007004,-2302.3861411078146,-2272.7477279600776,-2262.7564981885553,-2283.476565298625,-2275.7205099726334,-2235.1967972751618,-2211.347485941349,-2248.54078871498,-2321.6533448282894,-2379.812583900998,-2411.95439242773,-2510.4138267533576,-2578.676054319865,-2628.3416304995576,-2685.4726893273223,-2712.2053756958694,-2765.380175755045,-2883.0844620566922,-2995.4019779446103,-3106.3783891652097,-3216.594841074329,-3293.775414678504,-3406.7187794111705,-3561.504609764172,-3664.2779307696737,-3726.21461465533,-3838.7332962433456,-3979.638693289601,-4082.3002555728267,-4162.498314678468,-4236.571995803356,-4302.531993690967,-4365.72037526612,-4386.351035398368,-4432.708553398676,-4482.619998767376,-4517.935755006762,-4502.066016443493,-4464.2915683140245,-4503.5635833219985,-4578.330168525001,-4566.28257826359,-4532.464388902711,-4522.56256610901,-4492.275952372069,-4518.9415835072505,-4540.689830862264,-4480.228362110658,-4421.107998026371,-4449.293547784513,-4416.481186924122,-4346.833151201386,-4293.568944164389,-4254.788667534432,-4211.649800735689,-4163.280625734404,-4110.843433242254,-4006.7960628027995,-3918.5737274377025,-3809.4525110068935,-3658.578235933571,-3585.219810631253,-3545.4113537563508,-3421.180358073754,-3289.8638593988253,-3193.170212885167,-3096.208345438045,-2990.7975185868168,-2883.509145201343,-2769.1799723124473,-2639.8304271495854,-2543.941443436318,-2440.050535208051,-2292.1266904028284,-2189.95686649762,-2113.8715283717547,-2083.8531355682776,-2023.8163499613227,-2001.576364228292,-1965.1653725105969,-1926.0945232027202,-1849.808019376757,-1748.2640443162973,-1635.566548772639,-1553.4909431327515,-1472.2423520377104,-1385.8081562290379,-1336.1649317938009,-1316.383637950854,-1216.0243053465254,-1114.9944204085375,-1037.657384593175,-1015.3279918823233,-967.696424448064,-918.6790488575756,-918.1649587351035,-912.5099673879108,-857.055289394294,-848.9863096459281,-839.3974112746014,-803.2993439792805,-758.1488201795603,-729.9856221658733,-656.9624730303852,-592.4776902768243,-508.09985495804017,-456.10969735499594,-447.07959259505185,-468.6713777388785,-456.10969735499594,-455.5732554880685,-502.6013258220346,-515.0512474836406,-438.83179889104355,-382.46069937475914,-326.6036899809468,-275.373491689383,-245.95859598619893,-177.2269817861297,-135.7644958215351,-71.34676830134015,-17.412008930684202,26.777389857457862,76.17474510368648,126.55557710594859,164.26297000205162,213.6156217593696,208.96645891266573,230.51354056758174,261.44835489372673,311.98564910717596,381.2760569186279,412.6355543894237,475.57806677556835,553.7421171357772,628.0393157052179,628.1063709385837,616.2822981217263,678.4872029408459,747.7552590078425,766.0836894611942,783.4509949029679,847.8910741676182,895.1873654350478,904.8880225286512,938.7509153784413,962.533171478888,995.1667183836364,1063.1383732722252,1112.4239697961773,1128.4278188261771,1157.6639005737186,1225.523796740031,1277.3351403874326,1296.8482132969157,1287.549887603508,1305.4312831677537,1346.2679202875997,1333.8627021149043,1342.8928068748482,1350.8947313898482,1375.325188079499,1437.1501132428782,1502.573669263562,1542.4491813718298,1556.4637251453073,1564.0633182601116,1552.8650942880029,1591.2653912622204,1642.339127342597,1651.5480460581834,1635.2983278391753,1673.5198108577504,1706.24276474032,1717.53039569025,1743.9278058919676,1712.43419795444,1695.5586308906832,1644.954281443868,1645.177798888421,1674.3468254025968,1689.2554389542865,1591.6230191735053,1470.7000816702941,1387.1716126408116,1308.9181553027815,1242.779343459528,1172.2372379585788,1077.2646757679793,911.0124005094052,818.9232133535402,731.7737617222979,631.1238564400502,518.2028434518389,389.948533767287,247.43381112024917,111.22228040960795,-30.97951781505559,-164.71000489115775,-248.68550880974638,-361.4724113312258,-481.3224651005823,-587.0015128852741,-705.2422410538485,-761.4345266144904,-824.9358326120177,-915.7286185894751,-921.2271477254806,-950.5079329619329,-1029.655460078175,-1072.1014227988032,-1090.9662951190824,-1119.6212315107862,-1116.3802285647666,-1127.2208246255905,-1193.002008557559,-1255.519837799053,-1256.5256662995419,-1221.6122414603522,-1173.131307736791,-1146.0186417125037,-1112.1781006071687,-1088.9099346291941,-1058.7350796145297,-1031.0636199788596,-1047.6039108757868,-1055.2482074795018,-1048.3862219317225,-1009.6059453017647,-919.6848773580645,-878.0659291822826,-842.0125653758723,-830.0767338367384,-782.5792768692108,-727.3928198090578,-684.4551187104129,-672.0275487932621,-649.0276037487512,-590.4213297869361,-508.81511078061,-435.5013889672028,-391.4684523902479,-355.32568160601636,-310.59984095094694,-259.8166775484893,-183.82074640044527,-155.0316995420098,-126.48852187258267,-28.789046858435498,102.8850797277784,180.669150432247,221.215214874174,270.858439309411,325.8660824139217,382.5724580970357,483.848212224032,561.9675590953302,598.6467717464891,638.8352082771312,670.6864441259437,675.4920691838347,753.7455265218648,832.73659142692,883.5197548293776,899.8365282817517,916.7344470899639,899.4565486260115,859.379870817646,862.7773359748526,915.6392116116539,987.6565322466532,1049.0344225209265,1085.3113037718897,1090.8768881412611,1072.146126287714,1086.5406497169315,1093.179117820158,1107.9983243940264,1103.9079551587051,1147.1585806797243,1157.5521418514422,1194.879555091805,1220.2711367930337,1262.650044280296,1341.127019062879,1365.0433856300576,1366.2056763417336,1426.7565520711605,1509.5474135336178,1537.8670737584919,1591.8688883625136,1627.1846446018988,1694.4410436679177,1729.1980062959203,1786.1502511680426,1816.7944928162688,1823.589423130682,1867.7788219188242,1875.333711544718,1930.6989825605135,2003.2974485513507,2094.3361037178165,2213.2250324755946,2304.9789434646304,2373.1294123088614,2416.9611831857187,2465.687986098288,2514.25832679967,2621.5019966962336,2722.5318816342215,2807.066179164193,2897.7695581638286,2962.857838017683,3034.986917374959,3102.1539094631567,3146.2091977845666,3204.524899068463,3244.914501299203,3294.289504800976,3355.4662293751517,3397.085177550933,3441.2298728501646,3543.936138622301,3617.0710464800654,3682.2040298228303,3723.2641843872293,3761.485667405804,3774.717900123346,3827.7585897157896,3879.8828577855656,3918.3055065042386,4009.7017895819895,4072.152563590117,4117.012514711919,4138.939576022574,4132.368163152714,4120.566442080312,4127.026096227896,4138.604299855745,4149.735468594488,4186.347626012281,4238.404838848691,4322.402694511735,4362.2782066200025,4441.984527347628,4513.063074715505,4566.126116052404,4621.200814390279,4655.510742129176,4646.570044347053,4631.303802884078,4635.595337819497,4711.680675945363,4778.579447100097,4816.443302207387,4778.758261055739,4700.1471758064245,4667.535980646131,4656.896550285405,4676.700195872807,4725.069370874092,4745.610624028519,4740.112094892514,4669.905265558394,4583.202848816258,4456.244940310114,4393.2130209461475,4347.90603493524,4252.553493088901,4133.418695142114,4016.0049815183856,3938.623242214113,3858.492238341837,3750.1309812225086,3667.8765616269784,3604.1293864404424,3549.859350902957,3502.540707891072,3479.160783190821,3425.4942447536287,3366.0386045025116,3298.6704467142163,3239.3712686742865,3228.977707502569,3241.4723326530857,3188.29753259391,3105.752540320461,3057.7409932304613,3019.363048000699,3040.7313156999726,3067.6428160241626,3091.8944587581705,3082.909057487137,3101.818633296327,3160.2460933024995,3209.0623031928903,3288.679216942694,3307.968772407624,3322.877385959314,3357.2320171871206,3402.67311366476,3423.8849191528466,3445.387297318852,3492.9965130086557,3471.0694516979997,3431.7527332011146,3450.282329354564,3477.484402356673,3550.149923580876,3615.4617208792833,3672.525724473682,3708.981419680288,3732.517806591726,3790.9676183423544,3875.47956412787,3908.5601459217246,3929.3249165207053,3969.35689084016,4068.509229243902,4143.141703980173,4216.589536260311,4310.1539385502265,4380.9419132401845,4354.030412915995,4367.419107844724,4409.73096009862,4463.419850280267,4568.271883520113,4612.014247419149,4649.207550192779,4701.912963618393,4736.334650079567,4745.230644372778,4718.095626604036,4800.126528755013,4901.804614282205,4966.021176102302,5045.727496829927,5058.780915591827,5096.376549765653,5120.516433777384,5179.525039139395,5212.1138825552325,5274.005862951978,5336.411933471195,5373.3593670558175,5383.730576483081,5435.02783000801,5508.229793099141,5553.469723876682,5575.15091599833,5599.91664885481,5623.833015421988,5689.167164464851,5748.511045993691,5777.233037618761,5838.63327963749,5909.153033393984,5945.69813557841,5992.23446753436,6028.779569718787,6133.050457602794,6205.693627082543,6269.530209246899,6303.214288141047,6346.867245062262,6366.089745293826,6397.292780553435,6407.17225160268,6454.021507981004,6496.489822446088,6538.511102022065,6582.655797321296,6615.758730859606,6621.793701862539,6694.816850998027,6742.359011454465,6789.252971321699,6859.526855889185,6912.880469904002,7007.808328605692,7065.4087740670175,7131.949917310467,7198.42400532055,7301.867878659711,7408.955086345088,7456.51959854598,7472.299930131428,7483.676968059179,7543.199663543662,7626.772836062055,7658.489961444136,7653.930205575252,7703.081691632473,7740.364401383925,7768.706413353255,7817.9249546438405,7830.508986772179,7861.019117953672,7929.728380409287,7996.381282375012,8051.053649312694,8077.987501381338,8139.343039911157,8222.491529284898,8267.083259473236,8257.092029701715,8260.467143114465,8279.555532879298,8282.327149191755,8313.641943173641,8311.719693150484,8326.494196235442,8343.347411554743,8355.730277982984,8410.447348409576,8455.083782086824,8458.883578644227,8488.052605158402,8548.290556465454,8658.886988030314,8704.953933352701,8748.763352485103,8760.25214913513,8779.474649366695,8752.652556020326,8705.57978219745,8726.925698152269,8745.701163494727,8785.286102925074,8836.739818661192,8857.951624149278,8825.60864992245,8827.642658667883,8820.288934742086,8804.039216523077,8841.187815807798,8851.715487446249,8810.722388115215,8774.11023069742,8763.40374510333,8745.812922217003,8737.475721535173,8724.511709751096,8670.308729446975,8624.018266680034,8580.41001324773,8568.608292175328,8468.494828760007,8276.78391656684,8092.0467486437265,8023.002210021283,7894.904362547918,7782.855067593464,7688.530705992068,7584.416280319248,7519.082131276386,7440.42634253816,7369.481905637015,7289.552067464837,7174.977025386933,7074.6176927826045,6970.413860131963,6825.462797339296,6720.52135712163,6613.143576758334,6506.90573536226,6442.622118308797,6394.096481096325,6340.698163592597,6319.799282526885,6272.592398237276,6247.37963049169,6242.082267055782,6195.925914755573,6143.466370518968,6144.986289141928,6156.095106136216,6106.697750889987,6048.851436239653,6066.777535292809,6076.612302853144,6095.141899006593,6140.4935885064115,6169.282635364847,6192.975484487472,6235.6449646526535,6282.091889630782,6350.01884103046,6345.97317528405,6339.558224625376,6383.635864691242,6455.831999281883,6556.168980141757,6684.736214248684,6825.507500828207,6845.445256882341,6873.451992684841,6959.975595471335,7065.185256622464,7141.5388156817935,7224.866119011179,7278.845581870745,7353.545111840381,7430.077484855353,7491.991816996553,7560.432858518703,7644.207196737194,7646.732943860644,7642.620222880867,7729.836729745475,7874.005481482206,7916.563202925111,7930.935374609873,7969.179209372904,8059.927291861451,8164.287586723279,8233.220366623445,8297.705149377007,8404.814708806838,8481.1012126328,8525.715294565594,8552.269166978498,8559.108800781823,8601.37594954681,8594.312798298932,8579.225370791599,8600.37012104632,8658.015269996557,8719.482567248651,8754.932433954767,8783.095631968456,8802.295780455564,8828.89435635738,8863.450153285285,8890.56281930957,8917.697837078314,8922.950497025311,8934.305183208608,8978.360471530017,9063.721783604835,9023.756864518746,8975.052413350631,8968.615110947503,8994.185506604375,9022.661629040436,9117.969467397865,9241.060524113242,9289.764975281356,9325.058379776285,9342.403333473603,9374.232217577961,9496.004521370474,9569.586464117345,9595.84976385233,9679.847619515374,9838.746170848151,9892.09978486297,9907.321322837035,9965.413506676377,10027.707818473318,10064.677603802396,10088.19163896938,10162.622948005552,10232.539204661753,10309.920943966024,10388.889657126625,10424.943020933035,10483.88457106168,10534.757141441958,10597.47613638355,10660.172779580687,10710.911239494233,10785.096679341397,10842.071275957976,10892.988549827165,10906.645465689358,10963.865931494944,11019.052388555097,11049.718981947779,11068.695612990334,11090.153287667428,11107.7217588093,11131.660477120933,11206.069434412651,11282.512400449801,11342.929165712496,11406.005788565373,11432.73847493392,11424.043646340806,11381.038890008795,11414.834727625219,11476.279673132858,11529.119197025204,11573.174485346615,11654.981870053038,11697.114908351292,11788.600598406863,11849.978488681138,11854.53824455002,11896.000730514614,11919.045379048035,11928.254297763622,11967.727478471694,12022.511604131652,12064.778752896638,12114.690198265338,12168.490847169263,12207.94167613288,12296.320473709164,12334.094921838632,12415.678789100504,12461.298699533785,12520.217897917975,12540.692095839036,12516.66397054958,12512.215973402976,12518.675627550558,12536.400560903618,12580.277035269384,12578.198323035042,12551.219767477485,12496.167420884065,12417.802204823758,12393.438803367473,12372.584625790672,12310.558534927195,12253.136903421511,12174.704632127838,12044.86334858696,11922.55460292752,11784.24200823808,11675.634881929742,11592.15111638917,11499.883115277662,11431.956163877985,11360.67645081001,11254.37155418057,11236.98189699434,11171.379527018014,11111.499203622247,11083.447764330836,11042.52172023317,11004.948437803798,10952.667707522834,10848.821502783478,10854.722363319679,10900.185811541774,10882.036195044064,10870.569750138493,10870.659157116314,10887.221799757695,10927.052608377053,10926.650276976858,10890.239285259162,10865.227683213674,10855.929357520266,10933.02052414662,11010.111690772974,11060.872502430977,11128.53123289719,11172.050079351673,11223.83907125462,11279.159638781506,11338.48116856589,11384.145782488082,11422.97076260695,11456.40897231209,11497.357368154213,11515.171708485093,11557.595319461265,11638.843910556307,11726.999190688037,11904.3602829409,12062.945909851303,12105.838907461037,12109.459890062797,12105.771852227672,12160.533626143173,12226.091292630588,12276.33801416612,12343.326192298675,12373.769268246802,12399.138498203576,12496.770917984357,12553.253776222919,12574.48793345546,12597.577285477792,12662.84437928729,12737.05217087891,12779.498133599536,12818.34546546286,12864.635928229802,12907.730091539634,12962.067182310484,12985.469458755191,13053.374058410414,13112.673236450344,13145.239728121725,13187.126897230972,13226.555374450134,13256.685525975887,13267.839046459085,13272.756430239253,13269.20250287086,13292.649482804476,13300.562000341655,13322.869041308051,13337.442378692911,13354.183835289936,13389.209018851403,13391.019510152282,13409.012664438804,13412.946571462939,13413.326551118678,13407.448042326932,13368.935986630438,13390.12544037407,13446.205967212436,13469.854112846151,13545.87239573865,13670.371612354711,13715.566839643341,13739.036171321413,13747.172206303145,13774.888369427727,13881.640300946272,13934.14454867179,13993.801354623003,14090.271483692108,14147.536652986606,14180.974862691744,14241.883366332457,14316.649951535459,14365.734382359313,14428.05104590071,14532.299582040261,14597.991358994408,14624.701693618501,14641.621964171169,14660.799760913822,14695.154392141629,14742.607145620244,14778.504047215469,14819.966533180062,14855.058771974895,14894.487249194057,14930.987647889573,14977.658090312254,15050.144797580815,15126.967743273706,15116.976513502183,15103.766632529097,15168.877264127406,15220.040407185605,15284.189913772336,15403.928208819416,15454.823130944149,15458.310003079177,15496.129154697557,15536.898736584037,15581.959853405937,15641.482548890419,15631.75954005236,15646.087008248212,15695.573770472261,15746.35693387472,15748.837977509258,15773.64841385465,15841.75417920997,15900.449860149607,15945.600383949326,15949.802511906924,15952.77529391948,16020.903411019257,16083.04126060501,16123.989656447133,16166.703840101223,16202.846610885455,16240.241079359184,16287.023280504141,16342.723827686767,16329.938629858332,16310.93964707132,16356.023115637676,16409.510840119226,16479.002413630773,16515.435757092924,16601.89230464605,16623.417034556514,16679.5869683727,16750.062018640285,16719.01544559186,16712.175811788537,16731.64418120911,16771.02795493936,16841.078322062294,16842.01709532942,16796.196019196035,16791.211580182502,16828.963676567517,16822.213449742016,16783.254359156414,16780.527446332868,16823.91218232062,16845.012229086427,16810.925818792086,16736.53921324482,16638.10213066365,16632.178918382993,16609.134269849572,16567.85059784062,16495.118021383052,16431.795529341165,16390.601264310037,16333.269039782172,16282.932911268821,16182.327709475483,16053.872234090833,15936.212651278098,15799.732899633993,15700.558209485795,15690.991662858924,15622.751787036872,15517.966809030391,15420.401444482977,15371.540531103676,15372.725173559807,15310.3638065295,15213.692511760297,15146.480816183188,15087.27104512108,15021.623971655843,14944.801025962954,14913.262714536515,14916.749586671542,14882.976100799573,14876.18117048516,14888.742850869043,14865.340574424336,14854.924661508163,14854.119998707773,14889.52516192498,14946.298592841458,14945.985668419084,14922.538688485467,14926.562002487422,14935.256831080536,14943.124645128804,15012.482108173623,15048.356658024391,15092.344891112434,15134.56733638851,15159.780104134095,15257.524282637154,15312.55427748612,15294.806992388607,15311.995483874738,15433.343104522599,15547.068780311201,15616.962685222947,15601.048243170768,15664.48249393493,15758.605689836228,15866.363449855264,15982.480762300584,16070.189007543207,16107.024682405554,16139.837043265945,16171.621223881391,16271.466466363248,16368.026002410175,16431.639067129978,16449.54281443868,16495.386242316516,16578.75824913481,16641.790168498777,16699.54707617129,16766.17762639256,16795.681929073566,16822.45931893102,16847.783845398884,16881.736145226496,16905.49604958249,16946.802073335897,17046.80377802894,17134.892002927303,17149.890023456817,17160.887081728826,17236.190108798757,17337.309400714566,17374.033316854635,17433.444253616843,17508.32259754212,17562.01148772377,17636.733369437858,17702.715719069925,17768.60866172417,17789.70870848998,17819.414176871083,17911.995102404966,18011.840344886823,18076.72745904058,18129.902259099756,18159.093637358386,18180.50660854657,18263.56569094249,18289.560769744014,18269.175978800773,18299.015557648607,18395.999776840184,18443.296068107615,18493.408679176413,18583.39680235348,18643.500643193798,18614.4433754019,18613.102270734584,18669.65218420651,18753.76179859183,18817.82189820074,18831.367055340655,18893.057870037304,18944.13160611768,19019.367577954243,19104.21479990659,19196.572207995916,19323.239543824144,19430.974952098724,19467.00596416068,19457.819397189545,19507.23910418023,19557.083494315564,19630.106643451054,19725.36977831957,19814.128555551597,19892.672585567547,20015.115441693717,20049.827700832808,20069.25136676447,20106.93640791612,20196.745717137543,20211.85549638933,20265.231462148604,20352.470320757668,20410.540152852554,20431.23786821817,20455.444807463267,20510.988892434703,20535.35229389099,20589.443515472834,20652.65424879244,20711.416984965443,20762.893052446016,20843.225222018387,20901.362109346643,20943.986886022914,20926.99956023688,20920.539906089296,20946.15500523508,20983.571825453262,21054.806835032326,21115.782393906404,21166.18557765312,21201.99307227052,21206.32931069485,21234.358398241806,21299.40197460675,21366.434856228218,21394.888626919823,21410.445441060718,21440.508537353104,21489.436505965772,21544.198279881275,21614.98625457123,21609.353614968495,21637.42740600436,21696.704232299835,21723.10164250155,21712.462212140825,21693.172656675895,21724.621561124513,21756.472796973325,21816.04019594672,21843.219917204373,21845.61155386109,21892.304348028225,21941.81346199673,22003.68309064902,21977.15156998057,21943.847470742163,21958.82313952722,22019.06109083427,22043.826823690753,22051.292306338826,22077.130922929162,22054.153329629105,21977.844474058686,21905.223656323393,21847.623210862068,21880.256757766816,21881.307289756216,21796.974157926343,21760.227890041817,21688.59054906256,21559.08454168851,21389.85948441738,21304.185247920188,21247.277706536974,21194.214665200077,21094.481181440497,20964.39402871061,20844.588678430162,20811.105765236112,20760.613174511574,20681.599757862063,20649.122673168502,20602.921617379383,20609.291864549145,20581.5086461912,20504.95392143177,20413.55763835402,20357.41005628229,20281.6376425788,20283.15756120176,20343.529622975544,20366.864844186886,20363.199158096213,20379.739448993143,20340.668599685265,20289.550160115978,20265.231462148604,20243.840842704874,20227.56877274141,20227.300551807948,20275.557968086956,20331.012646080573,20423.884144292373,20476.410743762346,20485.06086886655,20511.100651156983,20551.557308621086,20617.003216386227,20621.115937366,20674.536606614187,20725.923267116937,20735.95920037737,20769.77738973825,20808.065927990192,20901.876199469116,20968.238528756923,20994.63593895864,21105.947626346067,21179.775438281948,21265.53908175696,21342.9878762946,21354.856652600367,21381.008193613077,21441.603772831415,21493.571578690004,21576.787123297112,21634.879307136456,21632.912353624386,21694.692575298857,21743.173509022417,21793.241416602305,21864.387019203547,21950.10595918965,22030.706349695487,22090.74313530244,22148.52239471941,22189.5378457949,22228.899267780696,22280.12946607226,22301.22951283807,22289.159570832202,22268.77477988896,22285.22566380807,22385.629699901307,22449.958020443682,22474.857863766894,22499.333023945455,22541.4213587548,22537.912134875314,22545.534079734574,22535.02875984058,22578.413495828332,22626.089766751502,22656.711656655272,22753.293544446653,22789.257501275242,22804.881370649502,22802.579140970607,22779.22156801481,22794.93484436689,22817.264237077743,22868.516787113764,22953.609878255116,23009.511591137838,23036.020760061834,23076.298603570296,23122.142031448133,23140.09048224574,23209.671462735114,23262.0415999939,23320.737280933536,23392.53108412398,23434.574715444414,23458.602840733867,23507.64256806881,23554.29065874704,23660.997886776673,23713.83741066902,23776.981088755263,23825.104394567537,23869.740828244787,23989.814399458697,24080.89775811407,24101.126086846125,24092.699479186474,24131.25623837188,24145.427244356542,24169.50007313491,24266.618402793218,24331.349054735787,24362.82031092886,24460.78800687647,24551.82666204294,24522.747042506584,24523.350539606876,24613.53982848404,24665.909965742823,24707.03717554059,24743.112891091456,24813.923217525866,24918.954064721354,24967.502053678283,25037.32890335666,25136.92827664951,25203.469419892957,25257.04655135233,25309.68490954458,25313.238836912973,25354.07547403282,25432.93242847114,25528.977874395594,25596.681308350722,25621.02235806255,25625.805631375984,25643.731730429143,25659.355599803403,25682.55671054801,25714.095021974448,25767.940374367285,25838.705997312787,25855.73802658773,25877.240404753735,25913.1149546045,25908.42108826889,25951.582306812088,26048.454767281386,26100.53433186225,26097.69566031643,26112.291349445743,26119.198038482435,26141.795652126748,26090.45369511291,26103.775334808273,26179.0783618782,26255.856604082182,26298.593139480727,26313.54645652133,26376.131340996188,26385.429666689597,26293.29577604482,26294.39101152313,26329.192677640043,26372.443303161064,26422.66767295214,26425.774565431424,26437.106899870265,26407.71435591154,26383.17214049961,26389.475332436006,26455.725903001538,26481.989202736524,26464.152510661188,26449.467414554052,26452.216679122055,26365.849538546747,26306.52800876236,26252.839118580716,26162.627477959097,26030.81924090615,25950.643533544964,25832.715729798765,25733.876315817397,25691.452704841224,25677.147588389827,25636.735634414632,25550.39084558378,25500.85937987082,25435.525230827956,25372.336849252802,25342.609029127245,25248.038798336842,25147.590058754693,25049.264734895794,24971.793588613702,24922.709157789846,24890.813218452124,24883.906529415435,24811.978615758257,24748.47730976073,24702.142143504876,24699.661099870336,24622.48052626616,24568.277545962042,24533.47587984513,24551.37962715383,24560.946173780703,24573.19492974221,24560.521490636052,24582.537958924528,24610.34352902693,24636.29390433954,24674.537739102572,24744.1410713364,24876.97748863429,24939.785890553703,24989.496170222304,25030.66808350898,25099.91378783152,25142.717378463436,25149.51230877785,25224.234190491938,25354.8354333443,25444.980018732553,25530.028406384994,25574.463674362145,25617.02139580505,25672.811349965497,25761.57012719752,25887.857483370008,25972.19061519988,26033.21087756287,26081.423590352966,26188.846074205172,26333.126584664176,26478.077647456845,26545.065825589398,26684.98774587962,26821.534552757093,26948.783033941156,27064.140387074996,27079.764256449256,27087.83323619762,27153.36855094058,27190.360688014116,27195.5686444722,27224.692967497467,27237.276999625803,27286.3390787052,27341.905515421095,27425.433984450578,27495.6408137847,27514.706851805076,27561.489052950034,27591.41803877569,27715.984310625114,27837.2201725507,27825.68667241176,27833.867410882405,27876.313373603032,27870.792492722572,27912.702013576272,27959.171290298855,27973.878738150448,28039.771680804693,28099.026155355714,28105.441106014387,28098.64617569997,28112.593664240085,28126.071766146633,28179.313621439174,28217.132773057554,28242.502003014328,28290.290032659774,28335.597018670684,28395.94672870001,28421.897104012623,28462.174947521085,28553.07949222082,28610.881103382246,28636.585609505848,28675.991734980555,28756.8379946754,28830.17406823326,28856.817347623986,28893.205987597226,29009.83739016502,29090.03544927066,29155.235487846792,29257.53942221873,29297.683155260464,29324.28173116228,29414.91805492855,29464.762445063883,29501.061678059305,29541.80890820133,29582.489083109987,29668.610354496286,29752.719968881607,29838.170687934246,29878.71675237617,29898.095714818923,29925.34249130994,29940.45227056173,29922.369709297385,29943.49210780765,29986.0274775061,30021.879675612414,30018.41515522184,30045.03608286811,30080.843577485513,30119.221522715274,30195.195102118865,30330.557266540203,30465.874727472634,30511.494637905915,30529.554847425803,30537.534420196345,30557.159251828107,30604.85787449573,30687.335811535813,30693.862520916766,30694.376611039235,30777.480396924067,30857.92432521872,30876.02923822752,30869.144900935284,30908.05928803197,30935.03784358953,30938.144736068814,30906.78523859802,30871.24596491408,30848.06720591393,30862.10410143186,30908.05928803197,30968.69957073922,31028.848115068453,31064.92383061932,31116.332842866523,31177.464863951787,31228.13626863197,31225.364652319513,31207.4162015219,31210.925425401383,31261.03803647018,31315.598644685586,31332.563618727163,31332.429508260433,31394.813227035193,31448.166841050013,31466.584678481184,31480.95685016595,31578.075179824256,31590.793322419326,31587.68642994004,31623.717442001995,31653.60172433874,31712.498570978474,31734.403280544673,31718.779411170413,31684.000096797958,31656.70861681803,31671.773692580904,31716.588940213795,31760.755987257482,31787.488673626027,31773.67529555265,31718.622948959226,31673.204204226044,31616.1625523761,31525.839153032204,31488.89171944758,31410.951186531925,31258.668751557918,31137.63405533243,31073.752769679162,31018.163981218815,30969.146605628328,30916.26237824707,30841.026406410507,30788.745676129543,30777.547452157432,30767.42211191918,30699.584567497324,30674.461206729557,30612.85979901073,30499.60350985569,30415.60565419265,30373.20439496093,30350.00328421632,30325.125792637566,30325.170496126473,30336.636941032048,30344.571810313682,30402.86515985312,30416.857351882143,30428.659072954546,30468.199308895986,30532.66173990509,30514.735640851934,30511.338175694727,30540.32838825326,30528.817239858778,30569.676228723078,30651.818889596332,30724.529114309447,30819.009938122028,30882.64535458629,30908.50632292108,30974.779245231064,31069.170662065826,31121.54079932461,31138.30460766609,31170.53582317064,31309.317804493643,31413.432230166465,31467.299934303755,31537.1938392155,31568.173357030555,31634.379224107175,31725.484934507007,31827.744165390035,31898.308622635443,31980.540690486516,32031.52501958907,32121.73666021069,32191.74232384471,32286.267851146207,32461.594934653633,32566.02228474883,32626.528456989345,32683.123073950184,32784.06355191035,32877.963230367095,32931.76387927102,32977.87552808232,33046.40597658229,33118.84798036194,33153.38142554539,33160.735149471184,33207.3385366605,33278.52884275065,33337.44804113484,33442.30007437469,33525.06858409269,33619.482352671905,33678.558013267284,33628.311291731756,33620.80110559477,33644.56100995076,33648.025530341336,33707.369411870175,33722.30037716632,33712.64442356163,33693.75719949689,33768.1214532997,33853.30395141887,33919.62157721777,33906.0540683334,33904.24357703252,33910.99380385802,33919.91214989569,33967.856641752325,34171.503385484626,34198.70545848674,34162.16035630231,34171.12340582888,34229.57321757951,34293.7450759107,34318.35434655599,34338.38150958795,34370.85859428151,34419.78656289417,34434.96339737933,34449.603789997556,34482.796130513685,34533.489886938325,34586.03883815275,34645.829754570696,34763.86931703917,34882.49002486349,34955.043787365415,34995.63455529625,35029.072765001394,35077.35253302485,35147.559362358974,35220.44840102773,35287.36952392692,35305.54149216908,35334.37524251643,35413.41101091039,35550.42720442143,35588.89455662901,35584.44655948241,35632.949844950424,35692.18196775699,35693.99245905787,35749.24597135138,35817.06116402878,35850.365263267195,35913.39718263116,36028.24044564253,36081.99639105754,36090.04301906145,36098.00024008754,36112.05948734993,36192.23519471112,36309.246576934645,36421.63114805593,36481.62323017397,36524.73974522826,36536.29559711165,36529.97005343081,36574.204155707856,36670.36136035459,36731.38162271758,36819.4921993604,36912.09547663874,36976.20027973656,37008.073867329826,37000.25075677047,36986.102102530254,36975.28385821389,36996.56271893534,37029.57624549583,37134.71885141359,37246.56698066795,37306.29084185253,37304.50270229611,37341.69600506974,37387.517081203114,37395.273136529104,37434.65691025936,37493.77727434364,37504.61787040447,37493.66551562137,37519.7052979118,37544.98512089076,37536.916141142385,37504.81903610456,37464.7423582962,37437.89791320538,37412.416924526326,37373.94957231874,37335.81749627799,37296.18785335873,37177.388331578775,37058.20883014308,36987.286744986384,36894.77287468587,36799.800312495274,36736.16489603101,36648.56840951066,36545.23629489378,36430.08010746004,36323.73050734169,36279.29523936454,36288.6159168024,36242.37015752437,36179.3382381604,36120.217874076116,36063.153870481714,35994.13168360373,35919.54391235637,35882.55177528284,35802.77839932185,35797.70455333049,35815.36243145018,35766.50151807088,35759.70658775647,35754.16335513155,35786.86395726966,35801.32553593225,35794.55295736229,35771.46360533996,35812.99314653792,35848.3089027773,35852.13105107916,35875.466272290505,35899.58380455778,35922.06965947982,35954.50204068447,35991.78475043592,36016.57283503686,36065.36669318279,36151.84559248038,36229.272035273556,36275.38368408486,36337.16390575933,36385.39897029388,36446.754508823695,36538.73193725728,36594.85716758456,36598.254632741766,36639.58300823963,36693.02602923227,36819.71571680495,36922.95842444401,36936.481229839475,36942.51620084241,36995.22161426802,37052.598542284795,37095.58094687235,37142.54196197295,37211.40768663975,37259.48628896312,37295.07026613597,37355.44232790975,37429.42660205682,37515.52552169866,37619.39407818247,37675.18403234292,37680.861375434564,37733.67854758246,37833.747307508864,37890.85601459217,37948.769384475876,37971.74697777593,38022.91012083413,38041.752641409956,38054.80606017185,38126.35399417329,38183.105073345316,38223.584082553876,38219.04667842945,38185.00497162402,38180.713436688595,38179.48409074356,38207.08849514586,38282.27976349351,38320.56830174545,38359.37093011987,38387.91410778929,38386.10361648841,38453.49412602116,38529.355946702475,38552.26648476916,38582.7542642062,38661.007721544236,38726.31951884264,38737.98712944831,38769.1007577301,38804.61767966958,38879.048988705756,38967.78541419333,39007.10213269021,39050.08453727776,39103.70637222605,39121.87834046821,39142.397241878185,39160.09982348679,39199.863576872776,39242.55540878241,39324.16162778874,39453.24295201814,39545.66741534083,39635.02968967315,39736.14898158896,39815.58708138312,39854.94850336892,39856.40136675851,39863.75509068431,39912.97363197489,39953.139716761085,40002.78294119632,40065.21136345999,40096.101474297226,40168.90110598816,40195.14205397869,40240.98548185653,40293.310915626396,40312.108732713314,40359.04739606946,40434.50688535057,40507.082999596954,40581.02257025511,40650.402385044385,40687.37217037346,40747.25249376923,40828.881064520014,40875.26093426478,40903.49118751183,40949.692243300946,41039.14392461108,41133.982376334956,41166.30299881733,41165.632446483665,41183.78206298138,41205.843234758766,41203.6751155466,41201.372885867706,41289.61757297726,41402.65034468775,41486.42468290623,41543.98042487865,41599.52450985009,41663.85283039246,41731.757430047684,41768.682511887855,41798.92442213588,41868.371292158525,41895.2380889938,41935.337118546624,41986.589668582645,42017.25626197532,42058.13760258408,42122.063591726255,42113.72639104443,42080.109367383644,42024.72174462339,41973.80447075421,42015.2669567188,42033.93066333898,41994.144558208536,41986.164985437994,41939.896874415506,41906.52571994373,41862.02339673322,41782.3617794945,41758.91479956088,41734.26082542668,41686.76336845915,41644.07153654951,41591.92491673528,41570.355483335916,41537.23019805315,41503.90374707028,41489.173947474235,41466.71044429665,41451.51125806705,41450.32661561092,41398.58232719688,41344.31229165939,41305.71082898508,41311.58933777682,41319.926538458654,41316.39496283471,41330.18598916364,41294.4455497796,41272.518488468944,41304.481483040036,41329.35897461879,41381.036207799465,41413.267423304016,41480.434415392214,41548.62958772536,41584.101806175924,41654.800373888065,41728.94111024632,41789.424930742374,41865.55497235715,41931.40321152249,42002.392351912546,42021.79366609975,42046.93937861197,42119.403734136074,42175.1042813187,42215.98562192746,42288.65114315166,42368.15629817919,42457.40681378923,42597.50754803509,42756.495506345695,42803.56828016857,42823.10370482251,42879.5195078277,42946.887665616,42984.97503816784,43054.019576790284,43141.79487726628,43225.92684339605,43275.10068119773,43322.24051025397,43381.80790922736,43420.87875853524,43436.077944764846,43445.756250114,43536.45962911363,43625.26310983457,43650.140601413324,43682.237706451146,43761.11701263393,43802.91477476535,43868.405386019396,43880.67649372536,43858.97294985926,43895.29453459913,43919.300308144135,43992.59167821308,44090.80524334971,44148.56215102222,44185.46488111793,44187.945924752465,44216.51145416635,44278.29167584082,44288.59583003472,44319.82121703878,44368.525668206894,44398.8793371772,44443.404012132174,44469.53320140042,44510.23572805354,44558.58255131037,44602.861357076334,44586.29871443495,44638.89236913829,44701.81252977998,44717.39169566533,44745.7113558902,44785.81038544302,44834.201912188764,44905.66043921238,44975.88962029095,45026.73983892678,45040.95554840035,45079.46760409685,45083.66973205444,45110.29065970072,45172.54026800874,45218.696620308954,45227.7267250689,45194.60143978613,45199.85409973313,45260.76260337384,45271.5361442013,45362.61950285667,45448.45020156506,45481.70959731455,45546.06026960138,45622.72675308309,45682.04828286747,45787.749682396614,45866.38311939038,45925.10115207448,45980.8016992571,46059.88217113998,46138.0909249891,46204.94499265492,46258.20919969192,46306.7795403933,46417.06304753578,46526.87716804471,46612.752570242,46635.350183886316,46661.30055919893,46734.614281012335,46842.14852358682,46905.20279469524,46937.29989973306,47000.756502241675,47118.214919354315,47194.45671969136,47224.609222961575,47238.243787079315,47280.98032247786,47317.07838977318,47377.3833963136,47430.8934725396,47450.272434982355,47535.67845054608,47625.17483534513,47626.784160945914,47604.5888787018,47667.73255678804,47765.81201145792,47823.658326108256,47859.21995153665,47896.010922910085,47941.72024032119,47963.91552256531,47979.80761287303,47976.18663027127,48003.053427106555,48078.401157665394,48154.93353068036,48204.7779208157,48207.37072317251,48255.203456306874,48240.518360199734,48189.60108633055,48233.14228452949,48236.42799096442,48241.74770614478,48212.06458950813,48151.312548078604,48105.75969287869,48054.73066028723,48035.99989843368,48016.64328773538,47894.64746649832,47787.515555324026,47752.2221508291,47686.7538913195,47603.3371810123,47518.80288348233,47440.1470947441,47393.655466277065,47294.45842438441,47191.193365000894,47129.457846815334,47048.07514525356,46896.105634701926,46772.67930181972,46690.17901303518,46619.949831956605,46588.61268623027,46465.67809172608,46376.02524471584,46375.66761680456,46334.36159305115,46301.526880446305,46212.63399274755,46099.914145459436,46130.42427664093,46168.53400093723,46147.27749196023,46082.54684001766,46083.44090979587,46195.959591383886,46301.21395602393,46320.63762195559,46327.07492435872,46333.69104071749,46376.47227960495,46406.535375897336,46386.03882623182,46424.349716228215,46473.27768484088,46459.598417234236,46469.34377781675,46476.00459766443,46522.11624647573,46571.580656955324,46597.97806715704,46661.546428387934,46760.87758074732,46806.51984292506,46822.009601832586,46852.81030569199,46944.340699236476,47019.10728443948,47045.907026041394,47123.69109674586,47214.14860655649,47298.995828508836,47331.294099246756,47336.99379408286,47367.347463053164,47439.72241159945,47445.62327213565,47469.986673591935,47572.80469808635,47585.74635812597,47569.89897130716,47618.0893323528,47648.68887051212,47652.309853113875,47666.212638165074,47693.68293210065,47699.494385659025,47738.81110415592,47756.625444486795,47716.0123248115,47696.25338271301,47744.84607515885,47787.53790706849,47789.281343136,47736.754743666024,47722.762551637,47752.11039210682,47809.57672710142,47824.08300925291,47822.76425633005,47816.55047137147,47842.47849493963,47847.99937582009,47835.52710241403,47864.494963228106,47864.8972946283,47866.014881851064,47870.26171329757,47847.82056186445,47790.44363384767,47777.83724997488,47813.15300621426,47879.738852946626,47925.06819070199,47921.71542903369,47893.82045195347,47883.89627741531,47914.04878068552,47925.9622604802,47937.09342921894,47976.343092482464,47934.52297860658,47902.872908457866,47883.27042857056,47908.7067137607,47945.54238862305,47994.71622642472,48032.98241293221,48090.158175248886,48124.71397217679,48154.10651613552,48204.934383026884,48241.8371131226,48220.73706635679,48221.8323018351,48227.77786586021,48232.896415340474,48273.21896233785,48301.24804988481,48391.05735910623,48445.61796732163,48426.21665313443,48437.66074629554,48494.300066745294,48545.48556154795,48577.15798344112,48549.240654616435,48542.42337255757,48558.13664890965,48594.1676609716,48618.41930370561,48654.76324018994,48657.49015301349,48635.80896089184,48699.71259828957,48777.51902073849,48839.05337322395,48854.07374549792,48855.727774587605,48863.66264386924,48894.6421616843,48896.65381868528,48897.21261229666,48923.185339353724,48941.17849364025,48939.32329885045,48930.472008046156,48945.26886287557,49006.82556710549,49098.91475426135,49114.85154805798,49091.15869893536,49087.29184714459,49055.44061129577,48996.72257861168,48959.126944437856,48990.35233144192,49002.35521821442,48968.291159664535,48913.618792726855,48836.61703307832,48805.99514317455,48763.19155254264,48678.500792801475,48593.47475689349,48521.39038102512,48369.91260885151,48219.68653436739,48134.43698101485,47986.53548795408,47853.81082937847,47769.053014403944,47709.32915321936,47661.38466136273,47521.865072472705,47394.52718431082,47282.299075400726,47167.79108855619,47103.99920988074,47041.995470761714,46994.49801379419,46914.29995468855,46839.04163110753,46781.55294436848,46748.181789896706,46731.328574577405,46709.781492922484,46617.17821564415,46546.74786886548,46502.35730437724,46482.15132738964,46458.59258873374,46475.33404533077,46504.10074044475,46480.38553957767,46408.85995732069,46426.8084081183,46455.396289276636,46439.68301292456,46425.86963485118,46506.693542801564,46608.81866321786,46669.727166858574,46617.53584355544,46625.09073318133,46650.25879743801,46657.23254170806,46675.248047739035,46706.42873125419,46816.8016453745,46855.64897723782,46846.328299799956,46892.70816954472,46941.65848990184,46979.00825488666,47016.96151697177,47116.113855375515,47238.243787079315,47280.75680503331,47313.30094496023,47366.2298758304,47394.95186745547,47399.98100995791,47419.449379378486,47449.66893788206,47496.51819426039,47540.79700002635,47599.7832536439,47682.663522084185,47811.78954980249,47922.6094988119,48017.42559879131,48062.41966037985,48037.34100310099,48035.754029244665,48080.90455304439,48129.74311467924,48182.0238449602,48265.6417209675,48246.93331085841,48267.9439506464,48285.93710493292,48291.703855002386,48307.88651798803,48305.673695286954,48280.438575796914,48266.35697679007,48222.6816681244,48225.430932692405,48285.490070043816,48288.7981282232,48293.313180603174,48290.18393637943,48295.25778237078,48269.01683438025,48298.36467485007,48342.93405329395,48372.50541120832,48364.72700413788,48378.02629208878,48341.212968970896,48370.38199548507,48400.73566445538,48441.6840602975,48473.803517079774,48475.52460140284,48519.57988972424,48550.581759283756,48547.005480170905,48502.70432266049,48533.728543964455,48577.22503867448,48590.81489930331,48587.909172524116,48584.93639051156,48584.04232073335,48609.25508847894,48669.51539153045,48677.24909511198,48666.65436824017,48699.60083956729,48744.34903196681,48784.917448153195,48824.837663750375,48832.3254981429,48830.09032369737,48834.337155143876,48825.79878876195,48904.56633622245,48979.757604570106,49075.110146416446,49151.06137407558,49178.285798822144,49226.16323544541,49284.16601230693,49314.832605699616,49330.12119890704,49307.94826840738,49314.43027429942,49285.35065476307,49326.54491979419,49344.180446169434,49354.86458001907,49426.70308669843,49492.64073284158,49545.56966371175,49578.98552167243,49569.73189946794,49559.47244876295,49644.87846432668,49699.17085160862,49676.327368775295,49681.982360122485,49684.88808690168,49665.576179692296,49659.720022645,49699.2826103309,49733.88311074771,49793.495213210015,49820.540824000935,49798.323190012365,49753.910273779664,49776.21731474606,49804.55932671539,49777.42430894665,49728.898671734176,49742.399125385185,49759.81113431587,49704.289401088885,49646.48778992746,49667.34196750426,49682.6752642006,49645.54901666034,49495.546459620775,49363.984091756836,49310.22814634182,49254.66170962593,49174.083670864544,49153.117734565465,49099.69706531728,49021.24244227916,48888.786004637004,48752.7085843931,48636.79243764788,48507.64405818511,48354.80282959972,48205.89550803846,48107.771349879666,48030.36725883094,47941.09439147644,47835.057715780466,47716.25819400051,47590.373169228216,47531.92335747759,47484.247086554424,47419.650545078584,47356.64097745907,47283.23784866784,47247.743278472815,47220.898833381994,47205.789054130204,47161.15262045296,47105.407369781424,47009.25016513469,46975.34256879599,46937.61282415543,46930.57202465201,46978.06948161954,46966.714795436244,46939.95975732324,46928.98505079569,46980.81874618754,47013.96638321476,46993.22396436024,46933.8800828314,46908.80142555254,46919.61966986891,46938.50689393364,46945.77121088162,47005.13744415491,47044.18594171834,47049.84093306553,47051.45025866631,47079.680511913364,47109.29657331665,47157.75515529575,47246.04454589421,47289.608095837604,47328.99186956786,47365.44756477446,47439.029507521336,47476.848659139716,47527.095380675244,47589.30028549436,47615.608288718264,47677.120289459264,47715.29706898893,47720.70619114712,47752.37861304029,47794.578706571905,47879.47063201316,47932.712487305704,47980.56757218452,48033.541206543596,48117.11437906198,48126.27859428866,48147.892731176944,48160.00737667172,48186.53889734017,48201.939249269875,48223.70984836935,48267.07223261264,48299.97400045085,48310.09934068911,48360.68133839147,48377.199277543936,48374.114736809104,48338.59781486962,48259.897322642486,48239.82545612162,48238.283185754204,48213.338638942085,48190.0257694752,48195.859574778035,48187.03063571818,48190.09282470856,48188.08116770758,48183.63317056098,48171.876152977486,48092.70627411679,48062.48671561322,48063.85017202499,48072.58970410701,48062.15143944639,48047.37693636143,48078.691730343315,48105.78204462314,48091.02989328264,48093.73445436174,48127.977326867265,48134.4593327593,48069.21459069426,47996.97375261471,47990.08941532247,48038.57034904604,48063.738413302715,48067.96289300476,48065.83947728151,48112.48756795974,48167.539914553156,48171.49617332175,48173.10549892253,48240.65247066647,48283.70193048739,48316.380180881046,48324.337401907134,48378.33921651116,48424.29440311127,48449.79774353478,48470.40605192257,48485.560534663266,48483.07949102873,48465.30985418676,48456.59267384919,48490.18734576552,48526.17365433856,48559.27658787687,48605.947030299554,48637.127713814705,48678.05375791237,48670.83414445331,48624.118998541715,48593.34064642676,48603.913021554115,48631.897405612166,48646.15781857465,48642.55918771734,48681.29476085839,48689.36374060676,48670.94590317558,48660.06060362585,48677.20439162307,48740.01279354248,48786.258552820516,48846.295338427466,48905.12512983384,48925.5993277549,48902.12999607682,48903.04641759949,48935.18822612622,48923.67707773174,48919.25143232959,48912.411798526264,48912.72472294864,48886.61788542484,48942.20667388519,48995.09090126645,48964.33490089594,48849.11165822884,48856.487733899085,48863.215608980136,48803.4693960511,48759.950549596615,48722.44432240061,48628.96932708852,48560.75180301092,48486.78988060831,48425.0320106783,48360.144896524536,48263.965340133356,48119.595422696526,48010.094226609974,47874.061509854975,47722.561385936904,47592.27306750692,47493.16543259209,47428.747705071895,47369.51558226533,47284.3107324017,47138.86793123102,47009.004295945684,46878.89479147134,46764.9903017271,46730.769780966024,46719.25863257154,46737.6317665138,46674.95747506112,46520.64103134168,46451.261216552404,46467.60034174923,46465.54398125935,46483.224211123495,46472.160097618114,46475.57991451978,46459.91134165661,46446.96968161699,46467.220362093496,46485.593496035755,46431.30110875382,46460.33602480126,46511.052132970355,46486.39815883615,46502.49141484397,46573.56996221185,46604.929459682644,46604.90710793819,46622.073247679866,46642.34627990083,46687.78737637847,46792.66176136277,46901.17948069328,46982.852754932974,47015.35219137099,47066.98472106275,47128.273204359204,47172.37319616952,47224.0951328391,47272.576066562666,47319.44767468544,47420.65637357907,47510.0633514003,47570.234247473985,47550.11767746421,47553.13516296568,47621.79972193238,47698.06387401389,47791.89649723727,47792.85762224885,47856.78361139102,47879.649445968804,47853.028518322535,47896.41325431028,48053.098982941985,48095.45553868479,48082.80445132309,48093.53328866164,48105.737341134234,48127.39618151142,48128.93845187884,48166.17645814139,48228.69428738288,48240.07132531063,48213.338638942085,48216.24436572127,48188.9752374858,48136.47098976028,48130.19014956834,48164.92476045189,48145.50109452022,48162.71193775081,48187.94705724085,48182.2697141492,48117.561413951094,48088.973532792756,48090.784024093635,48139.443771772836,48205.06849349362,48242.64177592299,48223.128703013506,48192.46210962083,48148.49622827724,48123.775198909665,48097.53425091914,48082.402119922896,48077.88706754292,48101.24464049872,48097.89187883042,48068.7452040607,48031.149569886875,48048.51687532865,48011.4800347662,47949.275129947084,47929.7620570376,47952.82905731548,47922.45303660072,47848.51346594256,47786.37561635681,47811.36486665784,47809.97905850161,47737.38059251077,47701.34958044882,47646.40899257767,47608.679247937114,47621.218576576546,47596.13991929769,47572.08944226378,47533.55503482283,47452.082926283234,47360.84310541667,47308.45061641343,47266.78696474874,47238.75787720179,47188.265286477246,47150.289672647676,47122.752323478744,47085.42491023838,47065.97889256226,47013.36288611447,46911.61774535391,46792.17002298475,46707.702780688145,46665.07800401187,46554.526275935925,46457.363242788706,46402.400303173104,46371.35373012468,46370.50436383538,46399.963963027476,46441.985242603456,46460.60424573472,46480.58670527777,46444.89096938264,46454.1669433316,46457.832629422264,46498.468100842016,46551.106459034265,46551.48643869,46530.051115757364,46571.446546488594,46589.059721119374,46596.614610745266,46561.56707543934,46510.06865621432,46510.06865621432,46533.09095300329,46559.60012192728,46605.68941899412,46644.1120677128,46616.48531156604,46482.598362278746,46369.051500445785,46296.005999565845,46249.648481565535,46221.77585622977,46133.48646563131,46070.36513928952,46044.124191298986,45986.657856304395,45943.83191392803,45876.24023869518,45760.79347858352,45667.31848327142,45562.53350526494,45423.30448905283,45305.82372019574,45210.2700126493,45045.71646996933,44872.98218881872,44762.72103342069,44665.51329678456,44592.870127304814,44465.018149020456,44357.3721477237,44255.694062196504,44154.485363302876,44052.78492603123,43941.40618341043,43865.85728715149,43818.560995884065,43750.20936133974,43704.388285206354,43663.97633123116,43620.3457260544,43596.317600764945,43594.641219930796,43561.89591430377,43532.413963367224,43541.1758471937,43511.20215787914,43497.7687594615,43545.556789106944,43579.66555114574,43655.61677880488,43724.460151727224,43812.77189407014,43911.521901073684,43975.13496579349,44054.72952779884,44145.43290679847,44237.07505906523,44326.660850842105,44455.3398436713,44543.651586014224,44604.11305476583,44758.02716708508,44934.22596862626,45068.805821991664,45143.46064847239,45243.35059444316,45367.78275582585,45493.26544919795,45706.34462909039,45873.13334621589,46031.51780742619,46183.77789065574,46351.61713977065,46457.45264976653,46589.23853507502,46726.16532160823,46838.304023540506,46963.227923301216,47101.40640752392,47211.4440454774,47369.98496889889,47487.28692380034,47588.5850296718,47690.978371021556,47726.53999644995,47801.0830642084,47831.79436108999,47855.71072765717,47961.18860974177,48057.167000432855,48129.25137630122,48220.40179018996,48288.7981282232,48334.88742529004,48409.698713981954,48487.236915497415,48522.59737522571,48587.86446903521,48678.12081314574,48753.20032277112,48768.04188108944,48768.53361946745,48850.58687336289,48966.480668363656,49089.52702159012,49165.098269593516,49212.26045039421,49306.27188757323,49476.659235556035,49605.07000745177,49673.39929025165,49759.7440790825,49864.01496696651,49973.851439219885,50081.184516094276,50182.1473457989,50236.39502959193,50357.83205721761,50480.31961683269,50590.42431001953,50693.39879672513,50766.46664934953,50839.35568801829,50888.97656070907,50949.50508469404,51006.077349910425,51069.28808323003,51143.83115098848,51249.510198773176,51310.038722758145,51325.93081306587,51381.49724978176,51432.168654461944,51485.723434176856,51509.66215248849,51557.29371992275,51616.95052587397,51678.1496021926,51719.94736432402,51723.90362309261,51758.39236478715,51829.91794704413,51931.17134942667,52014.4763010116,52039.24203386808,52046.886330471796,52073.41785114025,52136.98621237114,52163.29421559504,52214.90439354234,52300.019836428146,52341.72819158175,52380.30730251161,52440.880529985494,52498.972713824834,52511.46733897535,52554.896778452014,52586.099813711626,52581.160078187,52619.82859609468,52621.43792169546,52625.14831127504,52619.918003072504,52715.71757980795,52735.00713527288,52741.980879542934,52784.8068219193,52846.87761627169,52864.35668043574,52873.6773578736,52882.79686961137,52835.679392299586,52828.14685441815,52829.443255596554,52876.158401508146,52865.13899149168,52849.20219769504,52868.26823571542,52814.82521472278,52759.79521987381,52770.63581593464,52814.64640076714,52816.00985717891,52847.07878197179,52809.796072220335,52753.82730410425,52738.91869055256,52717.50571936437,52722.0431234888,52654.674965700506,52532.0979991076,52439.71823927382,52403.79898593414,52388.15276481542,52357.24030223374,52274.9411791493,52233.23282399569,52150.5090177666,51967.76115510001,51746.8141611593,51611.474348482414,51469.33960549112,51307.46827214579,51138.64554627485,50959.54101795448,50799.50252765448,50707.79332015435,50574.86749587864,50403.34020892861,50338.76601919723,50271.531971875665,50187.73528191272,50109.88415597488,50025.059285767,49914.999296069065,49737.347631138284,49592.91065846809,49488.57271535072,49404.39604573203,49296.05714035716,49196.748339742226,49140.84662685951,49086.95657097776,49055.57472176251,48999.47184317969,48972.64974983332,48965.51954335208,48926.58280451093,48880.87348709983,48909.282554302525,48909.03668511352,48860.77926883451,48817.5733468024,48794.50634652452,48797.79205295945,48803.13411988427,48852.307957685945,48834.04658246596,48832.50431209854,48877.25250449807,48925.68873473272,48905.52746123403,48938.87626396135,48950.186246655736,48973.83439228945,49020.013096334114,49021.2200905347,49035.256986052635,49074.32783536051,49151.64251943142,49179.1575168559,49202.40333108942,49240.53540713018,49220.28472665366,49258.617968394516,49312.798596954184,49406.98884808885,49436.38139204757,49465.43865983947,49469.9760639639,49490.31615141823,49519.999268054875,49497.04402649928,49530.10225654868,49548.408335257576,49572.77173671386,49568.90488492309,49595.704626525,49624.47132163899,49579.09728039471,49565.26155057688,49553.772753926845,49560.99236738591,49626.684144340055,49631.82504556478,49632.20502522052,49654.75793537592,49690.56542999332,49682.36233977823,49661.239941267966,49669.84536288326,49663.76568839142,49681.982360122485,49693.96289515054,49681.20004906655,49615.24005117894,49532.15861703856,49546.46373348996,49568.48020177844,49569.82130644576,49583.545277541314,49548.76596316886,49554.8456376607,49658.557731933324,49675.12037457471,49660.70349940104,49655.54024643186,49696.01925564042,49734.37484912573,49730.06096244585,49726.663497288646,49760.74990758299,49796.69151266712,49827.31340257089,49832.45430379562,49804.604030204304,49821.77016994598,49863.187952421664,49885.65145559925,49894.74861559256,49903.64460988577,49962.65321524778,49950.96325289765,49939.116828336344,49974.38788108682,50028.68026836876,50051.881379113365,50090.95222842124,50190.573953458545,50301.55036467915,50320.616402699525,50278.43866091236,50260.89254151494,50261.09370721504,50260.557265348114,50299.69516988935,50312.05568457314,50362.92825495342,50431.54811043121,50482.71125348941,50512.10379744814,50521.93856500847,50492.74718674984,50482.84536395614,50526.81124529973,50550.10176302216,50611.233784107426,50616.97818243244,50575.18042030101,50579.986045358906,50573.86166737815,50558.34955672617,50562.641091661586,50600.57200200224,50653.947967761516,50715.951706880536,50782.02346349043,50829.342106502314,50900.53241259247,50993.962704415644,50990.09585262488,50941.90549157924,50903.706360305114,50932.76362809702,50939.06682003341,50925.78988382696,50935.69170662066,50922.50417739203,50906.79090103995,50885.824964740874,50897.850203257825,50909.96484875261,50895.27975264547,50848.072868355855,50792.72994908452,50761.61632080273,50735.88946293467,50702.540660207356,50670.018872024884,50675.964436049995,50638.45820885399,50613.15603413058,50602.47190028094,50610.71969398495,50565.859742863155,50533.405009914044,50476.31865457519,50423.590889405124,50347.34908906807,50294.464861686814,50251.2142361658,50215.250279337204,50177.45347946328,50078.926989904285,50034.37996320486,49980.95929395668,49886.00908351053,49783.32516948285,49651.9192638301,49542.172198554545,49445.143275874056,49275.27001801372,49127.1450075084,49014.08988405346,48923.00652539808,48775.619122459786,48626.063600309324,48541.484599290445,48502.03377032683,48459.565455861746,48364.07880354868,48241.50183695577,48159.60504527153,48108.397198724415,48072.14266921791,48046.77343926113,47995.74440666967,47926.699868047224,47865.47843998414,47901.97883867966,47908.393789338326,47938.099257719434,47970.39752845735,48000.795900916564,48008.417845775824,47998.00193285965,47952.985519526665,47904.16930963627,47927.683344803256,47953.410202671315,47996.750235170155,48018.34202031398,48016.039790635085,48092.61686713897,48136.515693249195,48140.09197236204,48130.95010887982,48201.11223472503,48306.76893076527,48307.931221476945,48278.8963054295,48326.9078525195,48414.124359384106,48465.779240820324,48522.351506036706,48599.174451729596,48639.80992314934,48686.36860684975,48749.78050586945,48815.405227590236,48862.00861477955,48917.97738289564,48914.06582761596,48909.10374034688,48929.1979586122,48982.909200538306,49034.206454063235,49072.3832335929,49106.24612644269,49110.11297823346,49106.02260899814,49124.82042608505,49114.67273410234,49058.63691075289,49040.442590766266,49054.09950662846,49120.23831847171,49184.54428726963,49195.78721473065,49139.23730125872,49107.18489970981,49132.46472268876,49138.61145241398,49109.151853221876,49170.3062260516,49206.82897649157,49205.93490671336,49235.5733198611,49245.56454963262,49226.99024999026,49254.66170962593,49334.97152745385,49348.36022238257,49350.93067299494,49361.927731266944,49423.28326979677,49444.38331656258,49451.93820618847,49419.03643835025,49393.35428397111,49364.00644350129,49355.177504441446,49355.73629805283,49392.2590484928,49454.419249823004,49527.420047214044,49511.01386678385,49498.899221289066,49530.839864115704,49588.44030957703,49571.49768727991,49530.929271093526,49566.33443431073,49635.289565955354,49727.55756706686,49823.35714380231,49879.39296715176,49868.932350746676,49895.26270571503,49949.465686019146,49965.38012807132,49933.77476141152,49929.460874731645,49958.56284601246,50070.72389968919,50129.21841492873,50144.439952902794,50141.511874379146,50107.29135361807,50129.24076667318,50143.85880754695,50153.26889196264,50229.06365741058,50288.54164940616,50250.141352431936,50236.88676796994,50236.015049936184,50275.801155066634,50304.99253332526,50313.5756031961,50332.082847605096,50380.56378132865,50381.368444129046,50315.520204963716,50310.15578629444,50321.443417244365,50259.305567658615,50303.58437342458,50311.34042875057,50269.34150091905,50283.6689691149,50301.39390246796,50268.9168177744,50301.25979200123,50329.73591443729,50330.85350166005,50316.50368171975,50346.4326675454,50371.86895273554,50406.603563619086,50399.339246671116,50307.33946649307,50245.5592448186,50262.792439793644,50249.5602070761,50236.23856738074,50273.27540794318,50277.678701600875,50307.83120487109,50329.691210948375,50312.010981084226,50315.162577052426,50280.24915221324,50249.98489022075,50233.86928246848,50222.04520965162,50204.499090254205,50148.08328724901,50103.402150082846,50096.271943601605,50022.555890388,49969.4928490511,49956.17120935574,49925.16933979623,49869.35703389133,49803.73231217055,49762.09101225031,49651.516932429906,49540.38405899812,49448.65249975354,49373.19301047242,49295.23012581231,49143.23826351622,48994.286238466055,48877.408966709256,48762.90097986472,48641.50865572794,48477.73742410391,48321.766951294776,48205.381417915996,48115.86268137249,47981.68515940728,47875.15674533329,47757.944197409655,47641.98334717553,47534.53851157886,47455.07806004024,47399.35516111316,47318.39714269604,47260.52847630125,47206.28079250822,47141.50543707675,47082.13920380345,47024.11407519747,46955.024833086114,46884.03569269606,46839.55572123,46837.05232585101,46837.29819504001,46887.05317819753,46925.90051006085,46927.33102170599,47004.31042961007,47065.017767550686,47084.08380557106,47089.1129480735,47071.49977344272,47082.40742473691,47120.22657635529,47155.542332594676,47152.81541977113,47215.08737982361,47288.04347372574,47348.99668085536,47375.03646314579,47398.6399052906,47446.8973215696,47536.483113346476,47630.42749529213,47688.11734773128,47766.59432251386,47778.59720928636,47775.08798540688,47837.292890225996,47918.76499876559,47980.7240343957,48021.87359593792,48085.75488159119,48151.98310041227,48238.59611017658,48288.23933461182,48309.98758196683,48240.11602879954,48241.74770614478,48345.07982076166,48410.615135504624,48466.136868731606,48524.31845954877,48536.41075329909,48540.568177767775,48553.55454129631,48548.30188134931,48601.9237162976,48645.68843194109,48645.174341818616,48662.89927517167,48658.317167558336,48697.36566512176,48774.74740442603,48801.07775939438,48806.8221577194,48841.601472091854,48857.71707984413,48769.29357877893,48699.4443773561,48711.76018855097,48760.866971119285,48863.81910608043,48905.25924030057,48958.992833971126,49027.7244481712,49014.82749162048,48980.852840048414,48950.186246655736,49034.005288363136,49098.043036227595,49135.370449467955,49239.44017165186,49312.66448648745,49294.29135254519,49293.88902114499,49359.46903937686,49407.50293821132,49426.613679720605,49478.201505923455,49539.020602586344,49599.03503644885,49648.65590913963,49678.96487462102,49768.84123907581,49822.39601879073,49816.09282685433,49837.57285327588,49855.94598721815,49891.641723113265,49929.751447409566,49933.19361605569,50042.27012899758,50147.390383170896,50212.545718258116,50336.30732730715,50372.49480158029,50393.103109968084,50469.32255856068,50498.64804728604,50528.21940520041,50551.241701989384,50590.96075188646,50582.80236516027,50597.28629556731,50685.10629953221,50801.00009453298,50823.620059921755,50822.569527932355,50820.84844360929,50839.66861244066,50899.48188060307,50919.08436049037,50906.12034870629,50927.913299550215,50997.04724515048,51032.02772522304,51035.87222526935,51088.59999043942,51133.661107261316,51075.703033888705,51094.05381608651,51131.22476711569,51114.48331051866,51077.69233914523,51062.76137384908,51104.60383946942,51144.09937192195,51160.81847677451,51176.06236649303,51183.66195960784,51190.81451783354,51214.77558788963,51233.75221893218,51253.53351277513,51198.86114583745,51157.30925289503,51250.113695873464,51297.83467028555,51291.643237071425,51278.88039098745,51271.504315317194,51301.34389416503,51290.257428915196,51256.483943043226,51268.173905393356,51285.47415560176,51311.357475681005,51293.051396972114,51233.61810846545,51181.13621248439,51188.84756432147,51202.54918367257,51230.15358807488,51225.37031476144,51256.77451572115,51247.38678304992,51186.50063115366,51124.563947268005,51149.75436326914,51105.45320575872,50968.50406748105,50854.33135680334,50799.10019625428,50705.89342187565,50558.81894335973,50394.53362161322,50223.006334663194,50119.607164812944,50023.002925277106,49863.9702634776,49750.06577373335,49625.991240261945,49485.264657171334,49365.45930689089,49272.94543659037,49178.3081505666,49047.61750073642,48953.22608390166,48774.03214860346,48695.6445807987,48672.845801454285,48608.07044602281,48531.67218347457,48458.87255178363,48367.90095185053,48266.93812214591,48124.31164077659,48039.28560486861,47988.994179844165,47929.94087099325,47893.149899619806,47793.34936062686,47732.68672617516,47703.830624083355,47713.35246722132,47756.468982275605,47731.85971163031,47690.24076345453,47703.18242349415,47758.100659620846,47830.028573278025,47848.66992815375,47873.81564066597,47935.61821408489,47948.2693014466,47985.26143852013,48030.41196231985,48098.60713465299,48148.98796665525,48171.16089715492,48214.16565348693,48258.22094180834,48310.81459651168,48367.78919312826,48427.602461290655,48470.96484553395,48544.904416192105,48663.25690308296,48741.33154646535,48792.82996569038,48865.026100281015,48954.47778159115,48979.57879061446,48985.65846510631,49011.631192163375,49041.58252973349,49084.117899431934,49084.050844198566,49039.83909366597,49066.59413177898,49079.82636449652,49080.206344152255,49070.706852758754,49074.88662897189,49141.62893791544,49221.87170050999,49251.420706679906,49280.880305872,49336.53614956572,49395.76827237228,49402.40674047551,49416.890670882545,49450.01595616531,49489.31032291774,49473.64175005457,49453.79340097826,49480.235514668886,49502.78842482429,49477.1286221896,49454.66511901202,49447.937243930966,49524.02258205683,49556.96905338395,49451.35706083263,49385.19589724492,49383.25129547731,49381.239638476334,49368.72266158136,49332.35637335257,49297.621762469025,49293.66550370044,49279.20392503786,49243.97757577629,49189.08169139406,49114.15864397987,49077.14415516188,49032.93240462928,49034.22880580769,49022.00240159064,48999.00245654613,49017.17442478829,49065.40948932285,49086.59894306648,49066.6835387568,49057.340509574475,49060.46975379822,49097.685408316305,49184.790156458635,49276.789936636684,49296.95121013537,49304.10376836107,49362.55358011169,49385.084138522645,49419.84110115065,49465.52806681729,49526.50362569137,49573.46464079197,49589.37908284415,49602.47720509496,49644.3196707153,49706.457520301046,49724.160101909656,49729.591575812294,49742.533235851915,49857.35414711883,49919.87197636032,49927.44921773067,49980.80283174549,50053.9153878588,50112.11933042042,50146.675127348324,50162.187238000304,50141.1318947234,50138.06970573303,50140.4836941342,50135.74512430968,50190.52924996964,50256.60100657952,50303.204393768836,50264.87115202798,50286.082957516075,50325.82435915761,50366.4374788329,50413.06321776667,50454.99509036483,50479.98434066586,50435.817293622174,50436.46549421138,50441.964023347384,50453.94455837543,50480.99016916635,50516.03770447227,50540.80343732875,50526.632431344085,50501.397311854045,50516.41768412801,50519.61398358512,50515.74713179435,50510.71798929191,50488.7685762368,50457.409078766,50430.095247041616,50471.960064406405,50475.02225339678,50426.18369176194,50382.95541798537,50345.27037683372,50332.90986214994,50320.43758874388,50248.12969543096,50169.29509273709,50102.26221111563,50074.00960612412,50036.793951606036,49981.74160501261,49929.259709031554,49859.835190753365,49796.87032662277,49753.55264586838,49707.66451450164,49607.55105108632,49429.184130332964,49284.12130881802,49187.89704893793,49086.46483259974,48943.79364774152,48824.70355328364,48777.07198584938,48702.81949076885,48610.01504779042,48503.77720639434,48400.60155398864,48353.81935284369,48273.241314082305,48146.14929510943,48053.92599748683,47894.71452173168,47804.18995668769,47730.339793007355,47663.93276023064,47636.55187327288,47641.98334717553,47633.46733253805,47568.40140442865,47426.17725445954,47310.864604814604,47265.647025781516,47285.62948532456,47334.4233434705,47344.436924986476,47309.612907125105,47319.64884038554,47357.40093677055,47396.9858762009,47397.7905390013,47333.663384159016,47286.81412778069,47275.861772997596,