67641 
67553 
67496 
67420 
67313 
67209 
67109 
67046 
66992 
66921 
66832 
66766 
66666 
66606 
66533 
66449 
66364 
66280 
66256 
66230 
66196 
66119 
66033 
65994 
65940 
65869 
65825 
65807 
65802 
65759 
65701 
65655 
65655 
65630 
65623 
65635 
65643 
65625 
65618 
65592 
65606 
65626 
65658 
65681 
65657 
65665 
65683 
65697 
65701 
65677 
65674 
65672 
65746 
65814 
65842 
65864 
65832 
65850 
65863 
65926 
65980 
66025 
66031 
66025 
66045 
66099 
66096 
66096 
66155 
66179 
66256 
66322 
66372 
66423 
66440 
66406 
66412 
66469 
66557 
66642 
66673 
66700 
66750 
66778 
66780 
66811 
66830 
66908 
67006 
67041 
67033 
67055 
67103 
67128 
67129 
67163 
67225 
67325 
67391 
67393 
67392 
67407 
67431 
67486 
67586 
67653 
67656 
67649 
67701 
67740 
67794 
67859 
67880 
67886 
67954 
68008 
68016 
68014 
68038 
68091 
68135 
68176 
68239 
68316 
68325 
68319 
68319 
68321 
68347 
68362 
68364 
68379 
68418 
68486 
68508 
68510 
68538 
68578 
68574 
68586 
68621 
68670 
68690 
68692 
68733 
68749 
68739 
68758 
68787 
68850 
68877 
68873 
68937 
68983 
68936 
68913 
68948 
68974 
68968 
68977 
69053 
69119 
69152 
69200 
69222 
69249 
69226 
69198 
69164 
69173 
69253 
69299 
69308 
69342 
69321 
69322 
69367 
69387 
69349 
69323 
69302 
69312 
69335 
69374 
69377 
69345 
69326 
69372 
69407 
69407 
69424 
69415 
69395 
69405 
69391 
69362 
69360 
69414 
69463 
69444 
69420 
69424 
69405 
69380 
69368 
69407 
69426 
69428 
69427 
69413 
69393 
69348 
69326 
69316 
69342 
69354 
69351 
69381 
69438 
69414 
69361 
69344 
69314 
69304 
69329 
69373 
69409 
69415 
69405 
69412 
69427 
69410 
69394 
69393 
69368 
69359 
69405 
69416 
69330 
69292 
69280 
69257 
69254 
69229 
69192 
69186 
69176 
69177 
69162 
69166 
69166 
69130 
69133 
69162 
69181 
69240 
69230 
69225 
69199 
69188 
69214 
69180 
69154 
69134 
69096 
69019 
68977 
69022 
69024 
69007 
68979 
69012 
69059 
69025 
68935 
68883 
68873 
68898 
68905 
68896 
68901 
68883 
68846 
68826 
68787 
68749 
68698 
68645 
68607 
68513 
68397 
68236 
68112 
68020 
67924 
67799 
67650 
67560 
67495 
67388 
67258 
67154 
67035 
66942 
66858 
66756 
66626 
66531 
66460 
66361 
66231 
66156 
66102 
66048 
66010 
65943 
65846 
65756 
65703 
65638 
65591 
65554 
65496 
65424 
65346 
65319 
65275 
65236 
65199 
65147 
65081 
65066 
65076 
65110 
65109 
65132 
65133 
65128 
65157 
65174 
65189 
65151 
65190 
65262 
65262 
65248 
65258 
65231 
65253 
65280 
65297 
65309 
65346 
65365 
65387 
65413 
65403 
65432 
65495 
65545 
65564 
65610 
65644 
65656 
65670 
65680 
65700 
65751 
65805 
65859 
65896 
65941 
65953 
65976 
66035 
66099 
66188 
66255 
66300 
66362 
66391 
66371 
66394 
66473 
66529 
66605 
66631 
66652 
66695 
66689 
66707 
66757 
66831 
66892 
66930 
66953 
67040 
67119 
67178 
67310 
67400 
67420 
67449 
67500 
67567 
67602 
67643 
67730 
67790 
67810 
67874 
67964 
68044 
68082 
68138 
68206 
68261 
68328 
68408 
68431 
68405 
68418 
68451 
68476 
68543 
68592 
68627 
68665 
68738 
68827 
68896 
68953 
68980 
68985 
69011 
69028 
68997 
69020 
69075 
69165 
69203 
69200 
69247 
69279 
69329 
69364 
69414 
69445 
69457 
69459 
69451 
69423 
69454 
69533 
69562 
69568 
69584 
69614 
69647 
69661 
69714 
69719 
69700 
69686 
69703 
69769 
69780 
69748 
69746 
69761 
69789 
69850 
69883 
69859 
69845 
69862 
69892 
69891 
69912 
69952 
69984 
70046 
70054 
70018 
69986 
70003 
70033 
70045 
70076 
70139 
70183 
70157 
70127 
70082 
70084 
70146 
70149 
70111 
70099 
70092 
70042 
70034 
70057 
70108 
70179 
70208 
70198 
70223 
70197 
70199 
70190 
70202 
70194 
70144 
70098 
70119 
70133 
70124 
70126 
70110 
70108 
70081 
70062 
70078 
70076 
70080 
70141 
70167 
70170 
70174 
70135 
70112 
70136 
70135 
70079 
70096 
70141 
70112 
70080 
70054 
70033 
70021 
70025 
70013 
69976 
69982 
70026 
70018 
69994 
70013 
70051 
70060 
70019 
69981 
69953 
69965 
70004 
69983 
69972 
69990 
69955 
69906 
69878 
69891 
69896 
69909 
69937 
69920 
69865 
69873 
69909 
69885 
69855 
69836 
69827 
69808 
69794 
69814 
69818 
69801 
69767 
69701 
69616 
69539 
69429 
69268 
69138 
69048 
68943 
68800 
68654 
68530 
68385 
68261 
68122 
67966 
67864 
67737 
67631 
67516 
67394 
67259 
67173 
67099 
67004 
66898 
66809 
66715 
66605 
66519 
66487 
66434 
66394 
66366 
66310 
66229 
66150 
66126 
66092 
66085 
66027 
65987 
65988 
65991 
65993 
66004 
66039 
66083 
66094 
66102 
66135 
66157 
66161 
66245 
66318 
66324 
66351 
66382 
66402 
66439 
66475 
66517 
66541 
66543 
66558 
66591 
66637 
66726 
66803 
66865 
66921 
66920 
66962 
66977 
66966 
67097 
67201 
67248 
67286 
67306 
67290 
67302 
67354 
67381 
67406 
67454 
67522 
67604 
67636 
67655 
67658 
67679 
67711 
67744 
67805 
67835 
67880 
67899 
67980 
68064 
68060 
68048 
68072 
68089 
68102 
68161 
68239 
68287 
68306 
68311 
68311 
68334 
68408 
68485 
68575 
68664 
68706 
68721 
68713 
68687 
68686 
68700 
68809 
68908 
68959 
68980 
68987 
69009 
68993 
69065 
69187 
69234 
69252 
69276 
69290 
69335 
69423 
69446 
69468 
69533 
69560 
69594 
69628 
69636 
69623 
69622 
69638 
69640 
69618 
69648 
69729 
69777 
69818 
69885 
69954 
70034 
70056 
70040 
70013 
70043 
70096 
70096 
70099 
70132 
70089 
70069 
70084 
70124 
70166 
70195 
70201 
70222 
70254 
70274 
70253 
70233 
70253 
70283 
70295 
70294 
70346 
70383 
70378 
70363 
70358 
70381 
70405 
70357 
70333 
70321 
70339 
70349 
70378 
70406 
70425 
70402 
70399 
70436 
70439 
70440 
70424 
70390 
70371 
70381 
70399 
70391 
70357 
70382 
70415 
70405 
70376 
70399 
70412 
70413 
70385 
70412 
70407 
70376 
70404 
70434 
70456 
70447 
70447 
70410 
70354 
70301 
70283 
70330 
70377 
70346 
70339 
70348 
70356 
70317 
70309 
70332 
70320 
70296 
70283 
70323 
70283 
70222 
70208 
70200 
70205 
70195 
70210 
70232 
70230 
70229 
70214 
70196 
70202 
70209 
70161 
70163 
70182 
70133 
70070 
70047 
70049 
70062 
70077 
70063 
70045 
70025 
69992 
69982 
69978 
69938 
69906 
69812 
69707 
69600 
69469 
69369 
69257 
69083 
68933 
68785 
68599 
68432 
68247 
68039 
67887 
67735 
67570 
67397 
67247 
67085 
66934 
66856 
66812 
66737 
66629 
66525 
66424 
66328 
66256 
66189 
66157 
66128 
66112 
66088 
66037 
65993 
65953 
65926 
65964 
65998 
66033 
66077 
66093 
66065 
66063 
66093 
66192 
66250 
66302 
66330 
66370 
66392 
66436 
66489 
66563 
66688 
66743 
66741 
66788 
66847 
66936 
67010 
67090 
67193 
67299 
67366 
67410 
67480 
67480 
67504 
67561 
67671 
67773 
67917 
68010 
68041 
68077 
68124 
68154 
68167 
68229 
68301 
68341 
68368 
68399 
68430 
68472 
68507 
68562 
68634 
68675 
68718 
68733 
68798 
68825 
68846 
68903 
68963 
68965 
68996 
69025 
68999 
69001 
69020 
69071 
69145 
69177 
69209 
69244 
69284 
69334 
69324 
69341 
69374 
69399 
69482 
69514 
69529 
69559 
69620 
69676 
69727 
69720 
69764 
69833 
69846 
69866 
69934 
70019 
70098 
70119 
70106 
70112 
70113 
70102 
70159 
70157 
70207 
70287 
70328 
70371 
70390 
70371 
70355 
70391 
70457 
70540 
70606 
70640 
70668 
70657 
70674 
70701 
70699 
70733 
70786 
70765 
70786 
70800 
70790 
70797 
70818 
70804 
70863 
70942 
70978 
70998 
71023 
71028 
71027 
71050 
71031 
71026 
71043 
71007 
70999 
71034 
71061 
71038 
71013 
71011 
71039 
71059 
71015 
71003 
70995 
70979 
70991 
71018 
71012 
71014 
71058 
71078 
71069 
71011 
70945 
70954 
70987 
71016 
71071 
71063 
71013 
71012 
70986 
70959 
70947 
70997 
71024 
71033 
70988 
70953 
70979 
70989 
70977 
70984 
70984 
70960 
70925 
70924 
70926 
70918 
70899 
70891 
70857 
70836 
70826 
70815 
70860 
70852 
70795 
70787 
70802 
70808 
70796 
70791 
70786 
70795 
70774 
70773 
70810 
70797 
70803 
70822 
70788 
70753 
70702 
70661 
70632 
70602 
70634 
70663 
70658 
70628 
70604 
70572 
70549 
70550 
70524 
70523 
70544 
70544 
70524 
70511 
70496 
70499 
70484 
70428 
70406 
70392 
70346 
70353 
70377 
70401 
70395 
70355 
70335 
70310 
70250 
70139 
70012 
69906 
69819 
69674 
69505 
69351 
69150 
68945 
68762 
68581 
68391 
68204 
68019 
67792 
67586 
67394 
67194 
67039 
66864 
66691 
66563 
66479 
66376 
66242 
66125 
66016 
65927 
65819 
65703 
65667 
65654 
65612 
65612 
65604 
65572 
65498 
65467 
65412 
65398 
65442 
65481 
65538 
65608 
65622 
65635 
65659 
65665 
65711 
65827 
65882 
65949 
66016 
66095 
66228 
66309 
66386 
66463 
66545 
66603 
66706 
66841 
66946 
67035 
67097 
67166 
67246 
67325 
67411 
67485 
67565 
67673 
67761 
67806 
67831 
67938 
67994 
68042 
68079 
68140 
68229 
68323 
68346 
68355 
68402 
68472 
68487 
68545 
68619 
68655 
68675 
68670 
68665 
68689 
68728 
68753 
68802 
68848 
68889 
68918 
68916 
68949 
69019 
69075 
69118 
69150 
69172 
69144 
69136 
69146 
69196 
69290 
69351 
69359 
69406 
69480 
69512 
69547 
69588 
69666 
69701 
69719 
69756 
69783 
69814 
69850 
69876 
69950 
70021 
70068 
70120 
70163 
70186 
70166 
70158 
70190 
70261 
70337 
70377 
70427 
70480 
70510 
70578 
70643 
70653 
70671 
70676 
70673 
70669 
70668 
70685 
70738 
70762 
70819 
70862 
70921 
70954 
70933 
70930 
70946 
70957 
70989 
71001 
71055 
71116 
71124 
71097 
71127 
71143 
71140 
71195 
71221 
71230 
71226 
71205 
71165 
71156 
71207 
71222 
71208 
71196 
71198 
71200 
71193 
71175 
71201 
71206 
71203 
71201 
71194 
71164 
71111 
71126 
71173 
71198 
71177 
71156 
71126 
71100 
71096 
71114 
71131 
71110 
71110 
71117 
71113 
71101 
71112 
71126 
71097 
71070 
71052 
71070 
71075 
71077 
71066 
71069 
71078 
71063 
71045 
71034 
71023 
71018 
71016 
70988 
71014 
71013 
70980 
70967 
70954 
70964 
70956 
70906 
70911 
70905 
70894 
70863 
70797 
70751 
70757 
70771 
70770 
70768 
70782 
70783 
70789 
70803 
70780 
70743 
70677 
70617 
70575 
70571 
70559 
70569 
70562 
70552 
70584 
70615 
70577 
70552 
70546 
70531 
70533 
70541 
70547 
70527 
70535 
70542 
70534 
70497 
70438 
70395 
70400 
70464 
70485 
70499 
70505 
70468 
70436 
70426 
70434 
70470 
70473 
70443 
70399 
70338 
70254 
70169 
70000 
69836 
69683 
69541 
69361 
69153 
68968 
68749 
68498 
68286 
68090 
67891 
67678 
67489 
67342 
67183 
66997 
66800 
66638 
66529 
66420 
66257 
66101 
66000 
65942 
65841 
65728 
65671 
65608 
65546 
65514 
65509 
65530 
65539 
65547 
65590 
65635 
65660 
65668 
65709 
65778 
65837 
65924 
65986 
66018 
66049 
66133 
66216 
66254 
66342 
66410 
66469 
66534 
66605 
66710 
66797 
66845 
66896 
66991 
67119 
67240 
67386 
67493 
67567 
67652 
67745 
67848 
67932 
67987 
68050 
68142 
68238 
68312 
68352 
68407 
68452 
68463 
68499 
68591 
68676 
68743 
68741 
68762 
68825 
68875 
68909 
68950 
68959 
68980 
68984 
68990 
69033 
69055 
69072 
69120 
69164 
69197 
69227 
69204 
69198 
69241 
69275 
69303 
69360 
69408 
69459 
69507 
69570 
69616 
69628 
69654 
69729 
69773 
69758 
69790 
69869 
69954 
70001 
70083 
70115 
70117 
70120 
70117 
70152 
70183 
70273 
70343 
70417 
70437 
70454 
70467 
70457 
70487 
70538 
70574 
70626 
70716 
70769 
70824 
70842 
70859 
70845 
70904 
70977 
71010 
71050 
71096 
71138 
71168 
71165 
71158 
71166 
71157 
71187 
71224 
71231 
71245 
71293 
71380 
71416 
71403 
71381 
71378 
71365 
71389 
71422 
71469 
71479 
71434 
71412 
71424 
71376 
71361 
71379 
71379 
71387 
71427 
71476 
71471 
71477 
71462 
71479 
71509 
71491 
71456 
71433 
71419 
71403 
71390 
71417 
71408 
71378 
71376 
71400 
71391 
71370 
71317 
71304 
71312 
71325 
71283 
71256 
71273 
71291 
71263 
71266 
71279 
71277 
71312 
71342 
71323 
71295 
71269 
71256 
71256 
71222 
71208 
71264 
71274 
71264 
71236 
71204 
71186 
71166 
71157 
71122 
71095 
71064 
71052 
71092 
71101 
71027 
71039 
71085 
71100 
71088 
71066 
71017 
71035 
71087 
71087 
71053 
71041 
71024 
70988 
70951 
70941 
70961 
70973 
70985 
70995 
70968 
70924 
70901 
70889 
70870 
70858 
70842 
70837 
70829 
70791 
70783 
70770 
70775 
70803 
70804 
70801 
70783 
70727 
70725 
70695 
70707 
70721 
70712 
70681 
70678 
70671 
70646 
70638 
70605 
70573 
70558 
70566 
70533 
70533 
70555 
70572 
70570 
70537 
70525 
70533 
70500 
70467 
70435 
70387 
70326 
70320 
70304 
70276 
70270 
70266 
70284 
70237 
70176 
70123 
69994 
69852 
69734 
69601 
69424 
69186 
68954 
68741 
68519 
68323 
68120 
67905 
67696 
67482 
67240 
67025 
66837 
66645 
66437 
66264 
66112 
65967 
65827 
65699 
65622 
65526 
65429 
65349 
65305 
65294 
65248 
65169 
65113 
65081 
65088 
65109 
65103 
65102 
65150 
65186 
65224 
65304 
65367 
65433 
65491 
65517 
65585 
65661 
65749 
65814 
65858 
65922 
65957 
65999 
66091 
66161 
66276 
66432 
66585 
66684 
66786 
66873 
66953 
67069 
67167 
67280 
67334 
67378 
67465 
67521 
67610 
67720 
67879 
67992 
68061 
68129 
68147 
68198 
68283 
68354 
68390 
68404 
68462 
68556 
68633 
68701 
68741 
68732 
68746 
68803 
68877 
68928 
68962 
68977 
68993 
69029 
69044 
69061 
69080 
69119 
69155 
69196 
69253 
69308 
69335 
69367 
69384 
69421 
69434 
69460 
69502 
69498 
69536 
69578 
69610 
69649 
69717 
69801 
69845 
69916 
69984 
70041 
70096 
70194 
70230 
70255 
70329 
70396 
70426 
70435 
70471 
70504 
70563 
70624 
70644 
70659 
70706 
70778 
70873 
70912 
70937 
70975 
71015 
71040 
71074 
71110 
71168 
71225 
71185 
71200 
71233 
71250 
71282 
71307 
71404 
71462 
71437 
71460 
71498 
71515 
71538 
71571 
71584 
71583 
71620 
71602 
71620 
71636 
71645 
71671 
71684 
71653 
71642 
71702 
71726 
71729 
71687 
71676 
71692 
71684 
71640 
71631 
71672 
71720 
71698 
71675 
71689 
71689 
71722 
71756 
71729 
71737 
71761 
71738 
71722 
71725 
71698 
71665 
71692 
71705 
71712 
71740 
71719 
71711 
71703 
71639 
71542 
71555 
71584 
71559 
71544 
71502 
71486 
71478 
71485 
71471 
71463 
71462 
71441 
71457 
71488 
71502 
71515 
71485 
71442 
71441 
71417 
71379 
71354 
71384 
71401 
71404 
71375 
71340 
71307 
71313 
71308 
71280 
71251 
71212 
71172 
71195 
71244 
71221 
71140 
71115 
71105 
71103 
71090 
71110 
71149 
71138 
71077 
71025 
71014 
70986 
70982 
70927 
70886 
70857 
70868 
70887 
70934 
70942 
70922 
70888 
70875 
70859 
70852 
70821 
70775 
70793 
70787 
70730 
70733 
70721 
70728 
70745 
70687 
70631 
70590 
70582 
70575 
70578 
70551 
70523 
70522 
70522 
70488 
70458 
70476 
70498 
70504 
70510 
70448 
70427 
70440 
70421 
70391 
70319 
70218 
70130 
70071 
69964 
69822 
69678 
69510 
69312 
69125 
68915 
68703 
68473 
68273 
68060 
67829 
67595 
67405 
67187 
66973 
66791 
66632 
66503 
66367 
66273 
66164 
66033 
65926 
65823 
65719 
65620 
65538 
65459 
65391 
65362 
65358 
65337 
65355 
65387 
65377 
65420 
65417 
65466 
65564 
65587 
65645 
65735 
65791 
65846 
65893 
65931 
65962 
66004 
66091 
66196 
66296 
66415 
66512 
66563 
66643 
66757 
66880 
66975 
67083 
67171 
67246 
67342 
67502 
67595 
67641 
67713 
67791 
67858 
67928 
68007 
68072 
68133 
68184 
68256 
68338 
68396 
68441 
68451 
68457 
68533 
68593 
68664 
68755 
68763 
68752 
68755 
68797 
68826 
68833 
68893 
68949 
69019 
69058 
69054 
69033 
69039 
69051 
69053 
69064 
69156 
69270 
69309 
69338 
69330 
69338 
69379 
69412 
69387 
69449 
69498 
69509 
69540 
69596 
69695 
69745 
69780 
69834 
69853 
69867 
69895 
69962 
69984 
69978 
70028 
70070 
70119 
70168 
70234 
70308 
70333 
70350 
70414 
70458 
70462 
70460 
70468 
70515 
70567 
70636 
70683 
70731 
70771 
70806 
70839 
70892 
70945 
70969 
70966 
70960 
70975 
71004 
71004 
71032 
71117 
71149 
71147 
71193 
71207 
71207 
71196 
71212 
71236 
71221 
71236 
71308 
71319 
71287 
71247 
71263 
71318 
71327 
71347 
71347 
71336 
71299 
71262 
71244 
71208 
71204 
71221 
71247 
71258 
71299 
71343 
71325 
71289 
71232 
71235 
71266 
71256 
71234 
71265 
71294 
71276 
71271 
71248 
71220 
71175 
71150 
71208 
71214 
71206 
71169 
71131 
71130 
71132 
71167 
71198 
71218 
71173 
71161 
71165 
71146 
71117 
71138 
71154 
71128 
71084 
71069 
71034 
71029 
71075 
71063 
71024 
71008 
71022 
71038 
71024 
71011 
71051 
71057 
71048 
71031 
70986 
70964 
70974 
70964 
70930 
70896 
70902 
70929 
70963 
70937 
70913 
70914 
70925 
70891 
70847 
70823 
70817 
70807 
70810 
70779 
70759 
70775 
70780 
70763 
70767 
70760 
70734 
70704 
70675 
70654 
70670 
70697 
70692 
70686 
70677 
70671 
70682 
70638 
70560 
70577 
70609 
70623 
70606 
70590 
70590 
70582 
70540 
70499 
70474 
70482 
70435 
70370 
70350 
70313 
70162 
70010 
69872 
69708 
69520 
69312 
69125 
68928 
68705 
68502 
68310 
68095 
67886 
67674 
67443 
67218 
67018 
66850 
66708 
66550 
66384 
66216 
66072 
65984 
65901 
65819 
65770 
65750 
65682 
65585 
65535 
65504 
65491 
65479 
65504 
65529 
65526 
65549 
65591 
65653 
65704 
65742 
65731 
65741 
65772 
65804 
65863 
65925 
65961 
65993 
66054 
66107 
66168 
66233 
66295 
66368 
66463 
66629 
66752 
66835 
66975 
67077 
67110 
67219 
67361 
67431 
67497 
67591 
67616 
67651 
67768 
67903 
67967 
68020 
68105 
68191 
68237 
68308 
68363 
68415 
68480 
68559 
68611 
68605 
68624 
68699 
68751 
68721 
68701 
68765 
68829 
68868 
68898 
68948 
68991 
69010 
69019 
69019 
69029 
69050 
69111 
69146 
69169 
69164 
69165 
69196 
69250 
69305 
69357 
69431 
69489 
69486 
69491 
69542 
69587 
69632 
69700 
69791 
69843 
69895 
69947 
69987 
70012 
70082 
70156 
70205 
70235 
70279 
70353 
70430 
70507 
70536 
70575 
70612 
70655 
70691 
70695 
70742 
70808 
70843 
70839 
70867 
70949 
71015 
71090 
71148 
71180 
71170 
71190 
71225 
71267 
71296 
71277 
71274 
71307 
71370 
71389 
71364 
71401 
71475 
71533 
71566 
71555 
71585 
71618 
71607 
71626 
71587 
71593 
71649 
71661 
71645 
71672 
71696 
71687 
71668 
71652 
71648 
71670 
71646 
71630 
71647 
71654 
71634 
71635 
71677 
71674 
71655 
71650 
71652 
71636 
71631 
71664 
71665 
71677 
71653 
71631 
71619 
71592 
71571 
71544 
71501 
71540 
71590 
71606 
71587 
71541 
71467 
71455 
71446 
71457 
71469 
71495 
71502 
71452 
71410 
71384 
71372 
71404 
71380 
71363 
71358 
71384 
71403 
71431 
71446 
71431 
71370 
71337 
71329 
71329 
71337 
71306 
71307 
71337 
71327 
71266 
71227 
71209 
71168 
71140 
71143 
71193 
71223 
71221 
71181 
71144 
71112 
71116 
71148 
71147 
71138 
71138 
71115 
71077 
71069 
71052 
71062 
71046 
71015 
70992 
70961 
70925 
70917 
70907 
70940 
70949 
70910 
70873 
70825 
70802 
70769 
70732 
70732 
70764 
70817 
70817 
70809 
70786 
70757 
70756 
70757 
70723 
70715 
70694 
70678 
70664 
70581 
70486 
70435 
70369 
70250 
70076 
69919 
69736 
69558 
69381 
69178 
68958 
68695 
68463 
68266 
68059 
67824 
67608 
67445 
67271 
67100 
66946 
66776 
66582 
66437 
66297 
66179 
66122 
66070 
65986 
65906 
65841 
65787 
65706 
65625 
65622 
65605 
65557 
65523 
65533 
65567 
65619 
65659 
65664 
65682 
65737 
65821 
65906 
65943 
66003 
66077 
66151 
66227 
66296 
66314 
66363 
66442 
66488 
66575 
66645 
66736 
66878 
67002 
67118 
67237 
67324 
67419 
67500 
67587 
67687 
67769 
67809 
67904 
68042 
68132 
68167 
68205 
68238 
68305 
68349 
68392 
68466 
68543 
68612 
68655 
68692 
68698 
68729 
68798 
68890 
68933 
68955 
68982 
68953 
68929 
68953 
68953 
68975 
69004 
69034 
69078 
69144 
69156 
69133 
69171 
69243 
69273 
69282 
69292 
69292 
69329 
69373 
69433 
69473 
69480 
69497 
69491 
69545 
69582 
69655 
69717 
69795 
69864 
69932 
70006 
70004 
70012 
70104 
70149 
70148 
70171 
70259 
70318 
70320 
70307 
70339 
70420 
70459 
70489 
70517 
70563 
70590 
70629 
70734 
70778 
70759 
70796 
70824 
70838 
70846 
70866 
70901 
70931 
70945 
70990 
71035 
71070 
71092 
71117 
71119 
71093 
71094 
71133 
71193 
71233 
71255 
71279 
71304 
71307 
71304 
71317 
71344 
71338 
71313 
71327 
71338 
71350 
71321 
71277 
71264 
71269 
71295 
71289 
71268 
71294 
71311 
71314 
71345 
71349 
71305 
71305 
71328 
71345 
71347 
71358 
71343 
71328 
71295 
71286 
71267 
71243 
71243 
71262 
71309 
71286 
71266 
71235 
71201 
71235 
71257 
71242 
71233 
71275 
71261 
71253 
71294 
71287 
71260 
71239 
71217 
71215 
71175 
71136 
71148 
71158 
71087 
71051 
71051 
71048 
71058 
71072 
71043 
71044 
71052 
71084 
71113 
71081 
71100 
71063 
71024 
71011 
70995 
70983 
70957 
70935 
70920 
70914 
70934 
70957 
70960 
70935 
70933 
70905 
70908 
70915 
70890 
70855 
70839 
70816 
70799 
70810 
70819 
70794 
70803 
70852 
70843 
70784 
70770 
70763 
70729 
70725 
70715 
70684 
70639 
70583 
70538 
70543 
70580 
70577 
70553 
70522 
70530 
70554 
70531 
70505 
70482 
70482 
70495 
70512 
70506 
70478 
70452 
70415 
70371 
70288 
70170 
70048 
69921 
69753 
69545 
69326 
69111 
68931 
68784 
68586 
68311 
68074 
67864 
67633 
67433 
67278 
67118 
66973 
66793 
66603 
66436 
66281 
66126 
65965 
65850 
65808 
65752 
65653 
65584 
65556 
65540 
65529 
65527 
65489 
65455 
65454 
65491 
65513 
65541 
65592 
65688 
65736 
65755 
65813 
65862 
65897 
65947 
66041 
66128 
66207 
66284 
66366 
66411 
66498 
66588 
66656 
66736 
66825 
66929 
67051 
67168 
67303 
67417 
67471 
67579 
67702 
67758 
67810 
67862 
67917 
68009 
68072 
68129 
68238 
68294 
68337 
68384 
68427 
68499 
68589 
68638 
68687 
68696 
68694 
68701 
68742 
68810 
68844 
68881 
68893 
68939 
68972 
68961 
69003 
69087 
69142 
69175 
69180 
69188 
69180 
69195 
69241 
69250 
69282 
69301 
69292 
69312 
69346 
69383 
69436 
69479 
69522 
69575 
69594 
69606 
69642 
69659 
69739 
69799 
69861 
69907 
69939 
69976 
69994 
69992 
70035 
70079 
70115 
70179 
70258 
70305 
70353 
70381 
70386 
70403 
70492 
70554 
70629 
70646 
70657 
70735 
70759 
70802 
70859 
70876 
70851 
70879 
70904 
70921 
70997 
71052 
71093 
71081 
71092 
71110 
71140 
71170 
71186 
71225 
71244 
71291 
71299 
71318 
71329 
71352 
71409 
71421 
71417 
71409 
71416 
71450 
71422 
71381 
71400 
71453 
71462 
71432 
71378 
71364 
71377 
71388 
71417 
71456 
71471 
71464 
71433 
71358 
71376 
71396 
71388 
71373 
71364 
71360 
71349 
71322 
71314 
71311 
71348 
71383 
71345 
71367 
71415 
71404 
71381 
71347 
71354 
71348 
71302 
71312 
71306 
71303 
71332 
71356 
71393 
71368 
71310 
71260 
71265 
71278 
71242 
71223 
71263 
71266 
71318 
71359 
71348 
71295 
71253 
71246 
71211 
71223 
71218 
71178 
71164 
71160 
71165 
71148 
71137 
71155 
71170 
71146 
71111 
71109 
71080 
71075 
71082 
71062 
71036 
71012 
71019 
71034 
71069 
71083 
71103 
71060 
71018 
71043 
71095 
71061 
71022 
71008 
71010 
70998 
70975 
70944 
70900 
70861 
70837 
70809 
70804 
70764 
70739 
70732 
70745 
70772 
70789 
70783 
70766 
70749 
70736 
70737 
70707 
70686 
70703 
70703 
70654 
70604 
70588 
70558 
70544 
70514 
70418 
70285 
70137 
69972 
69792 
69634 
69465 
69243 
69004 
68787 
68566 
68332 
68127 
67930 
67708 
67482 
67322 
67176 
66994 
66822 
66650 
66476 
66331 
66152 
66014 
65925 
65861 
65794 
65703 
65648 
65622 
65630 
65599 
65616 
65654 
65626 
65641 
65651 
65628 
65624 
65637 
65644 
65658 
65755 
65850 
65932 
66012 
66082 
66149 
66227 
66291 
66363 
66467 
66548 
66609 
66712 
66804 
66874 
67002 
67142 
67190 
67277 
67395 
67496 
67555 
67626 
67730 
67824 
67915 
67990 
68033 
68071 
68139 
68231 
68312 
68380 
68447 
68527 
68568 
68609 
68653 
68680 
68749 
68810 
68872 
68892 
68928 
68955 
68976 
69019 
69079 
69158 
69218 
69215 
69205 
69229 
69267 
69266 
69243 
69266 
69300 
69309 
69351 
69383 
69434 
69491 
69534 
69566 
69594 
69624 
69675 
69725 
69787 
69861 
69874 
69891 
69965 
70037 
70110 
70186 
70270 
70304 
70340 
70392 
70421 
70414 
70391 
70397 
70473 
70534 
70565 
70582 
70669 
70702 
70712 
70794 
70869 
70907 
70966 
70996 
70961 
70943 
70995 
71123 
71214 
71244 
71249 
71230 
71245 
71279 
71321 
71361 
71416 
71477 
71513 
71552 
71579 
71587 
71602 
71633 
71685 
71707 
71708 
71700 
71682 
71688 
71697 
71679 
71661 
71659 
71651 
71620 
71609 
71624 
71673 
71672 
71622 
71613 
71648 
71680 
71704 
71683 
71666 
71674 
71659 
71637 
71621 
71617 
71633 
71664 
71669 
71646 
71628 
71594 
71550 
71564 
71555 
71521 
71541 
71584 
71614 
71566 
71538 
71537 
71543 
71570 
71566 
71508 
71478 
71479 
71457 
71442 
71446 
71487 
71484 
71443 
71402 
71313 
71259 
71292 
71305 
71313 
71328 
71314 
71293 
71268 
71266 
71273 
71268 
71254 
71255 
71254 
71240 
71264 
71265 
71245 
71205 
71220 
71236 
71203 
71214 
71280 
71329 
71299 
71248 
71228 
71224 
71190 
71167 
71167 
71121 
71110 
71115 
71091 
71033 
70966 
70955 
70993 
71024 
71003 
70967 
70930 
70913 
70900 
70867 
70844 
70821 
70810 
70828 
70845 
70853 
70840 
70802 
70804 
70797 
70800 
70796 
70755 
70744 
70737 
70694 
70686 
70710 
70672 
70608 
70571 
70542 
70514 
70483 
70391 
70218 
70112 
70031 
69929 
69798 
69629 
69421 
69172 
68928 
68727 
68510 
68282 
68081 
67886 
67720 
67548 
67377 
67181 
66994 
66808 
66648 
66472 
66330 
66252 
66162 
66041 
65947 
65868 
65824 
65813 
65800 
65772 
65769 
65753 
65746 
65778 
65801 
65872 
65907 
65933 
65940 
65970 
65996 
66013 
66071 
66182 
66249 
66280 
66367 
66489 
66596 
66701 
66741 
66787 
66867 
66961 
67083 
67204 
67288 
67381 
67499 
67597 
67707 
67821 
67985 
68057 
68112 
68221 
68291 
68420 
68526 
68607 
68678 
68723 
68773 
68861 
68928 
68978 
68989 
69012 
69054 
69058 
69082 
69121 
69162 
69197 
69203 
69236 
69267 
69293 
69292 
69262 
69289 
69288 
69257 
69240 
69229 
69258 
69328 
69361 
69380 
69439 
69506 
69532 
69537 
69531 
69547 
69527 
69545 
69578 
69624 
69685 
69727 
69744 
69772 
69800 
69826 
69837 
69875 
69905 
69944 
69967 
69969 
69999 
70055 
70094 
70119 
70180 
70200 
70244 
70307 
70333 
70373 
70435 
70465 
70529 
70576 
70585 
70609 
70643 
70667 
70726 
70781 
70848 
70866 
70868 
70919 
70941 
70911 
70887 
70874 
70890 
70956 
71005 
71012 
71034 
71030 
71009 
71016 
71063 
71094 
71069 
71067 
71039 
71013 
71015 
71068 
71126 
71151 
71200 
71246 
71259 
71267 
71265 
71235 
71205 
71198 
71232 
71195 
71158 
71177 
71196 
71205 
71210 
71220 
71186 
71192 
71189 
71152 
71194 
71245 
71254 
71254 
71297 
71359 
71356 
71327 
71279 
71236 
71264 
71301 
71342 
71370 
71341 
71302 
71284 
71255 
71228 
71230 
71232 
71259 
71297 
71300 
71296 
71309 
71271 
71213 
71223 
71251 
71241 
71217 
71178 
71155 
71134 
71141 
71152 
71114 
71077 
71056 
71030 
71048 
71142 
71135 
71112 
71067 
71071 
71070 
71077 
71070 
71081 
71106 
71128 
71091 
71012 
70962 
70930 
70926 
70950 
70974 
70950 
70917 
70893 
70932 
70967 
70956 
70964 
70992 
71010 
70971 
70951 
70886 
70840 
70860 
70845 
70851 
70844 
70804 
70767 
70739 
70692 
70705 
70742 
70728 
70740 
70748 
70730 
70722 
70724 
70722 
70679 
70601 
70567 
70604 
70631 
70625 
70614 
70612 
70628 
70640 
70602 
70543 
70488 
70482 
70463 
70402 
70352 
70321 
70257 
70164 
70043 
69864 
69715 
69567 
69381 
69165 
68960 
68722 
68450 
68197 
67945 
67689 
67430 
67238 
67019 
66809 
66644 
66463 
66262 
66087 
65918 
65708 
65558 
65434 
65321 
65202 
65108 
65062 
65011 
64953 
64902 
64915 
64909 
64854 
64833 
64859 
64867 
64855 
64866 
64903 
64917 
64911 
65005 
65136 
65202 
65219 
65244 
65316 
65359 
65407 
65522 
65589 
65642 
65743 
65838 
65925 
65971 
66087 
66252 
66400 
66530 
66625 
66685 
66767 
66859 
66951 
67095 
67217 
67287 
67349 
67401 
67483 
67603 
67719 
67790 
67891 
67988 
68046 
68142 
68254 
68305 
68333 
68358 
68419 
68488 
68532 
68580 
68635 
68682 
68702 
68671 
68651 
68666 
68720 
68787 
68872 
68975 
69046 
69092 
69080 
69073 
69117 
69128 
69143 
69215 
69236 
69244 
69254 
69286 
69332 
69346 
69379 
69443 
69463 
69528 
69608 
69676 
69728 
69746 
69772 
69852 
69934 
70013 
70099 
70154 
70152 
70177 
70232 
70304 
70360 
70384 
70424 
70454 
70517 
70595 
70656 
70673 
70659 
70644 
70683 
70768 
70824 
70872 
70955 
71054 
71070 
71057 
71072 
71086 
71104 
71127 
71140 
71141 
71104 
71101 
71125 
71134 
71211 
71231 
71284 
71382 
71411 
71378 
71401 
71417 
71389 
71371 
71353 
71326 
71345 
71352 
71370 
71455 
71505 
71486 
71478 
71499 
71527 
71520 
71519 
71537 
71592 
71595 
71581 
71580 
71566 
71563 
71562 
71530 
71520 
71545 
71557 
71574 
71587 
71561 
71570 
71548 
71550 
71525 
71533 
71528 
71532 
71554 
71585 
71594 
71579 
71601 
71606 
71625 
71640 
71621 
71595 
71530 
71465 
71438 
71479 
71500 
71482 
71491 
71507 
71476 
71445 
71430 
71452 
71451 
71416 
71393 
71404 
71414 
71404 
71355 
71328 
71344 
71340 
71291 
71259 
71255 
71243 
71191 
71164 
71156 
71144 
71101 
71077 
71077 
71097 
71109 
71105 
71107 
71096 
71077 
71028 
70981 
70940 
70916 
70937 
70929 
70964 
70957 
70906 
70844 
70788 
70819 
70831 
70830 
70825 
70796 
70735 
70680 
70650 
70674 
70639 
70568 
70564 
70596 
70573 
70551 
70541 
70515 
70451 
70338 
70187 
70060 
69928 
69770 
69594 
69441 
69288 
69108 
68920 
68729 
68464 
68202 
67987 
67782 
67584 
67367 
67171 
67004 
66836 
66615 
66427 
66287 
66129 
65969 
65845 
65710 
65589 
65532 
65473 
65412 
65355 
65300 
65261 
65271 
65236 
65237 
65252 
65230 
65218 
65195 
65204 
65244 
65267 
65300 
65388 
65527 
65568 
65571 
65590 
65636 
65703 
65786 
65884 
65979 
66047 
66132 
66220 
66314 
66375 
66439 
66550 
66666 
66767 
66889 
67005 
67095 
67200 
67295 
67422 
67502 
67548 
67635 
67716 
67812 
67942 
68001 
68053 
68134 
68204 
68278 
68347 
68458 
68502 
68534 
68579 
68621 
68661 
68696 
68727 
68778 
68815 
68841 
68852 
68881 
68923 
68951 
68974 
68998 
69004 
69057 
69137 
69160 
69147 
69171 
69245 
69304 
69362 
69423 
69455 
69460 
69524 
69618 
69647 
69719 
69802 
69832 
69852 
69860 
69937 
70007 
70086 
70145 
70188 
70260 
70329 
70380 
70442 
70484 
70517 
70559 
70600 
70642 
70727 
70785 
70857 
70882 
70885 
70930 
70974 
70998 
71042 
71058 
71063 
71101 
71098 
71114 
71138 
71157 
71194 
71273 
71326 
71343 
71378 
71377 
71393 
71413 
71424 
71498 
71543 
71493 
71464 
71503 
71564 
71590 
71559 
71529 
71567 
71621 
71655 
71689 
71689 
71732 
71703 
71685 
71726 
71746 
71748 
71778 
71716 
71642 
71581 
71579 
71565 
71556 
71565 
71570 
71588 
71575 
71553 
71564 
71558 
71557 
71571 
71548 
71512 
71516 
71517 
71504 
71476 
71462 
71460 
71460 
71457 
71429 
71451 
71467 
71448 
71455 
71501 
71505 
71499 
71486 
71450 
71391 
71357 
71343 
71332 
71319 
71339 
71290 
71288 
71337 
71348 
71380 
71343 
71284 
71302 
71371 
71433 
71493 
71519 
71549 
71590 
71609 
71642 
71716 
71791 
71905 
71979 
72058 
72109 
72144 
72214 
72305 
72347 
72365 
72415 
72451 
72516 
72533 
72583 
72648 
72704 
72741 
72767 
72818 
72850 
72842 
72780 
72711 
72701 
72654 
72591 
72549 
72520 
72476 
72321 
72140 
71932 
71711 
71468 
71244 
71024 
70761 
70471 
70176 
69912 
69686 
69417 
69135 
68855 
68599 
68383 
68141 
67903 
67690 
67489 
67344 
67193 
67038 
66870 
66704 
66555 
66389 
66283 
66171 
66131 
66078 
65987 
65902 
65872 
65842 
65847 
65816 
65792 
65792 
65784 
65794 
65806 
65824 
65870 
65895 
65912 
65949 
66002 
66047 
66072 
66118 
66128 
66153 
66229 
66277 
66304 
66357 
66472 
66570 
66625 
66683 
66729 
66794 
66871 
66920 
66995 
67092 
67149 
67235 
67281 
67313 
67393 
67447 
67479 
67523 
67596 
67687 
67707 
67679 
67676 
67708 
67710 
67692 
67710 
67729 
67726 
67721 
67760 
67819 
67822 
67767 
67720 
67756 
67765 
67757 
67782 
67811 
67861 
67922 
67938 
67961 
67950 
67922 
67967 
67997 
68015 
68051 
68126 
68174 
68233 
68258 
68291 
68343 
68421 
68489 
68479 
68524 
68564 
68589 
68638 
68686 
68748 
68840 
68905 
68942 
68988 
69027 
69058 
69105 
69156 
69202 
69257 
69326 
69446 
69550 
69635 
69723 
69743 
69793 
69841 
69851 
69887 
69885 
69955 
69980 
70002 
70061 
70112 
70155 
70173 
70234 
70303 
70317 
70312 
70346 
70349 
70341 
70373 
70429 
70457 
70461 
70470 
70500 
70512 
70508 
70522 
70530 
70574 
70567 
70576 
70611 
70600 
70576 
70587 
70601 
70580 
70605 
70622 
70580 
70522 
70542 
70595 
70629 
70629 
70600 
70604 
70597 
70577 
70559 
70566 
70620 
70662 
70647 
70629 
70622 
70626 
70626 
70656 
70678 
70700 
70696 
70692 
70711 
70693 
70665 
70651 
70623 
70618 
70678 
70740 
70754 
70753 
70727 
70718 
70742 
70782 
70754 
70739 
70769 
70793 
70779 
70781 
70784 
70787 
70754 
70730 
70689 
70671 
70722 
70765 
70769 
70739 
70725 
70707 
70713 
70703 
70709 
70691 
70688 
70701 
70728 
70720 
70719 
70718 
70725 
70764 
70755 
70755 
70764 
70767 
70722 
70696 
70696 
70720 
70712 
70714 
70712 
70713 
70706 
70688 
70658 
70626 
70612 
70557 
70509 
70522 
70550 
70557 
70537 
70536 
70518 
70511 
70534 
70515 
70472 
70437 
70433 
70383 
70316 
70284 
70213 
70086 
69971 
69829 
69631 
69404 
69163 
68970 
68771 
68551 
68298 
68033 
67773 
67535 
67339 
67127 
66939 
66786 
66574 
66342 
66172 
66038 
65902 
65730 
65594 
65536 
65452 
65367 
65292 
65209 
65145 
65141 
65129 
65130 
65083 
65061 
65076 
65067 
65079 
65085 
65144 
65213 
65285 
65362 
65403 
65429 
65490 
65597 
65642 
65706 
65786 
65837 
65894 
65976 
66090 
66183 
66236 
66338 
66440 
66563 
66670 
66737 
66832 
66923 
66986 
67087 
67229 
67354 
67404 
67459 
67555 
67649 
67729 
67754 
67829 
67880 
67945 
68031 
68099 
68143 
68252 
68361 
68381 
68407 
68414 
68392 
68398 
68431 
68494 
68541 
68607 
68670 
68705 
68719 
68754 
68784 
68811 
68811 
68853 
68910 
68966 
69010 
68994 
69045 
69108 
69150 
69168 
69221 
69245 
69263 
69332 
69374 
69451 
69492 
69530 
69602 
69662 
69707 
69735 
69815 
69874 
69913 
69935 
69963 
69978 
70023 
70089 
70151 
70241 
70355 
70432 
70495 
70532 
70567 
70677 
70719 
70732 
70781 
70843 
70887 
70910 
70934 
70991 
71039 
71082 
71083 
71095 
71143 
71167 
71195 
71257 
71298 
71328 
71389 
71454 
71476 
71433 
71398 
71505 
71528 
71478 
71481 
71510 
71528 
71525 
71516 
71506 
71489 
71469 
71497 
71526 
71542 
71552 
71594 
71613 
71625 
71628 
71659 
71650 
71592 
71551 
71593 
71629 
71636 
71643 
71614 
71605 
71614 
71631 
71612 
71598 
71620 
71607 
71601 
71582 
71516 
71518 
71526 
71538 
71547 
71590 
71568 
71582 
71612 
71583 
71597 
71590 
71534 
71504 
71453 
71425 
71393 
71386 
71419 
71412 
71389 
71417 
71386 
71381 
71352 
71337 
71370 
71401 
71393 
71389 
71393 
71331 
71306 
71292 
71278 
71304 
71301 
71296 
71324 
71340 
71341 
71308 
71307 
71308 
71303 
71265 
71205 
71176 
71196 
71163 
71113 
71066 
71080 
71129 
71178 
71140 
71089 
71032 
71016 
71020 
71065 
71054 
71045 
71026 
70996 
70939 
70880 
70820 
70839 
70839 
70811 
70783 
70783 
70805 
70770 
70722 
70668 
70675 
70683 
70700 
70696 
70685 
70690 
70672 
70612 
70566 
70485 
70394 
70353 
70318 
70334 
70354 
70369 
70348 
70312 
70290 
70280 
70234 
70204 
70202 
70222 
70188 
70100 
70045 
69991 
69868 
69746 
69583 
69423 
69267 
69118 
68920 
68736 
68511 
68286 
68090 
67863 
67627 
67361 
67098 
66895 
66692 
66478 
66243 
66108 
65995 
65861 
65689 
65531 
65363 
65216 
65139 
65049 
64951 
64856 
64848 
64843 
64804 
64768 
64728 
64756 
64789 
64793 
64828 
64895 
64939 
64962 
65018 
65080 
65107 
65156 
65219 
65301 
65362 
65464 
65530 
65575 
65640 
65736 
65800 
65876 
65962 
66056 
66162 
66267 
66340 
66401 
66511 
66696 
66823 
66912 
67017 
67105 
67212 
67358 
67414 
67487 
67569 
67635 
67688 
67727 
67787 
67854 
67931 
67994 
68016 
68073 
68167 
68243 
68257 
68297 
68329 
68383 
68403 
68414 
68440 
68474 
68471 
68484 
68511 
68508 
68535 
68574 
68605 
68600 
68644 
68666 
68692 
68716 
68727 
68762 
68832 
68878 
68907 
68960 
68995 
69003 
69051 
69095 
69137 
69208 
69260 
69284 
69323 
69347 
69373 
69415 
69487 
69545 
69605 
69646 
69645 
69646 
69735 
69792 
69860 
69918 
69904 
69901 
69990 
70095 
70199 
70275 
70300 
70334 
70395 
70431 
70443 
70471 
70503 
70546 
70554 
70563 
70612 
70641 
70694 
70754 
70789 
70836 
70868 
70883 
70884 
70941 
70932 
70951 
71001 
71005 
71032 
71037 
71057 
71062 
71039 
71062 
71103 
71144 
71202 
71225 
71253 
71230 
71241 
71251 
71161 
71158 
71191 
71236 
71233 
71214 
71230 
71240 
71230 
71205 
71188 
71181 
71197 
71208 
71213 
71239 
71215 
71184 
71169 
71173 
71166 
71146 
71110 
71120 
71132 
71125 
71145 
71161 
71188 
71121 
71070 
71056 
71066 
71098 
71105 
71074 
71056 
71067 
71062 
71053 
71040 
71024 
71053 
71077 
71033 
71018 
70974 
70946 
70928 
70970 
70981 
70915 
70889 
70910 
70906 
70946 
70918 
70947 
70882 
70826 
70854 
70879 
70864 
70876 
70895 
70886 
70888 
70861 
70848 
70794 
70740 
70710 
70709 
70702 
70700 
70666 
70665 
70679 
70652 
70643 
70648 
70654 
70648 
70623 
70616 
70612 
70558 
70547 
70561 
70540 
70548 
70558 
70541 
70519 
70520 
70495 
70463 
70447 
70431 
70405 
70378 
70365 
70265 
70149 
70064 
69974 
69802 
69594 
69413 
69228 
69010 
68797 
68585 
68312 
68037 
67847 
67620 
67398 
67223 
67036 
66840 
66637 
66408 
66240 
66087 
65939 
65808 
65727 
65682 
65598 
65503 
65439 
65380 
65322 
65308 
65293 
65271 
65251 
65250 
65289 
65265 
65224 
65213 
65273 
65322 
65368 
65464 
65528 
65597 
65693 
65750 
65793 
65881 
65969 
66027 
66070 
66142 
66239 
66395 
66505 
66567 
66656 
66800 
66960 
67086 
67120 
67190 
67276 
67388 
67484 
67606 
67699 
67805 
67895 
67949 
68018 
68131 
68196 
68234 
68307 
68385 
68460 
68543 
68646 
68688 
68671 
68709 
68756 
68779 
68813 
68845 
68845 
68861 
68896 
68934 
68956 
68981 
69012 
69031 
69039 
69073 
69101 
69111 
69093 
69099 
69116 
69163 
69220 
69235 
69296 
69333 
69396 
69438 
69438 
69454 
69491 
69560 
69629 
69663 
69682 
69683 
69693 
69807 
69912 
69947 
69937 
69983 
70031 
70083 
70133 
70144 
70169 
70231 
70283 
70323 
70406 
70446 
70478 
70543 
70580 
70614 
70640 
70668 
70745 
70807 
70819 
70833 
70864 
70916 
70922 
70931 
70941 
70943 
70973 
71000 
71046 
71094 
71194 
71235 
71223 
71253 
71284 
71304 
71298 
71250 
71237 
71265 
71290 
71267 
71267 
71289 
71298 
71293 
71315 
71333 
71336 
71376 
71407 
71399 
71373 
71352 
71332 
71289 
71242 
71235 
71219 
71210 
71192 
71194 
71233 
71219 
71200 
71219 
71237 
71244 
71226 
71178 
71139 
71133 
71121 
71080 
71103 
71173 
71151 
71093 
71077 
71079 
71094 
71092 
71025 
70987 
70993 
70992 
70991 
70999 
71016 
71017 
70980 
70974 
70975 
70942 
70914 
70880 
70826 
70864 
70894 
70926 
70896 
70879 
70872 
70875 
70841 
70836 
70855 
70865 
70862 
70865 
70826 
70778 
70774 
70769 
70740 
70706 
70708 
70703 
70679 
70682 
70641 
70627 
70590 
70525 
70505 
70513 
70551 
70541 
70518 
70541 
70545 
70516 
70523 
70518 
70520 
70507 
70466 
70443 
70453 
70452 
70380 
70320 
70310 
70282 
70261 
70247 
70282 
70321 
70318 
70322 
70341 
70306 
70269 
70200 
70168 
70185 
70187 
70169 
70139 
70101 
70069 
70047 
70020 
69992 
69946 
69899 
69871 
69894 
69935 
69936 
69921 
69887 
69910 
69899 
69864 
69813 
69809 
69810 
69789 
69736 
69742 
69765 
69755 
69773 
69753 
69723 
69705 
69698 
69702 
69679 
69652 
69618 
69575 
69539 
69451 
69296 
69137 
68992 
68852 
68713 
68539 
68357 
68128 
67845 
67637 
67459 
67191 
66919 
66685 
66464 
66230 
65993 
65811 
65629 
65414 
65215 
65023 
64883 
64759 
64625 
64544 
64440 
64333 
64234 
64198 
64172 
64122 
64078 
64059 
64084 
64108 
64178 
64188 
64190 
64197 
64209 
64235 
64279 
64325 
64348 
64421 
64531 
64595 
64636 
64735 
64834 
64911 
65037 
65128 
65207 
65315 
65419 
65551 
65684 
65816 
65974 
66123 
66253 
66398 
66466 
66524 
66604 
66711 
66831 
66937 
67047 
67088 
67131 
67191 
67256 
67360 
67478 
67611 
67704 
67741 
67807 
67862 
67934 
68025 
68140 
68179 
68196 
68219 
68235 
68281 
68293 
68305 
68373 
68397 
68441 
68503 
68535 
68554 
68558 
68545 
68577 
68606 
68588 
68658 
68692 
68728 
68753 
68730 
68722 
68822 
68963 
69008 
69030 
69058 
69088 
69166 
69260 
69321 
69323 
69379 
69455 
69506 
69519 
69504 
69545 
69619 
69689 
69751 
69818 
69885 
69906 
69943 
69962 
70041 
70142 
70172 
70182 
70241 
70344 
70393 
70440 
70453 
70456 
70528 
70570 
70637 
70717 
70759 
70750 
70753 
70786 
70797 
70802 
70847 
70881 
70926 
70979 
71004 
71033 
71069 
71081 
71117 
71180 
71214 
71259 
71305 
71308 
71295 
71298 
71290 
71306 
71324 
71335 
71347 
71384 
71448 
71434 
71402 
71395 
71408 
71392 
71364 
71347 
71334 
71343 
71371 
71378 
71339 
71294 
71327 
71355 
71303 
71276 
71273 
71289 
71357 
71353 
71374 
71368 
71325 
71289 
71254 
71198 
71150 
71141 
71087 
71031 
71025 
71022 
71046 
71060 
71039 
71054 
71018 
70999 
71014 
70993 
70955 
70912 
70957 
71044 
71060 
71044 
71025 
71028 
71004 
70976 
70948 
70912 
70922 
70917 
70900 
70849 
70814 
70826 
70793 
70754 
70726 
70688 
70706 
70693 
70731 
70726 
70687 
70658 
70634 
70630 
70623 
70624 
70618 
70590 
70554 
70566 
70598 
70558 
70569 
70549 
70502 
70485 
70479 
70485 
70480 
70455 
70408 
70403 
70415 
70451 
70437 
70381 
70370 
70335 
70276 
70240 
70220 
70204 
70193 
70170 
70174 
70139 
70094 
70144 
70170 
70100 
70019 
69974 
69954 
69998 
70011 
69990 
69963 
69955 
69977 
70012 
70015 
69962 
69894 
69827 
69751 
69640 
69557 
69521 
69457 
69315 
69087 
68870 
68690 
68498 
68303 
68062 
67820 
67595 
67374 
67118 
66853 
66616 
66393 
66171 
65993 
65864 
65707 
65536 
65371 
65227 
65080 
64998 
64920 
64823 
64770 
64745 
64715 
64709 
64731 
64751 
64696 
64655 
64665 
64656 
64654 
64660 
64702 
64755 
64806 
64866 
64943 
64987 
65075 
65189 
65245 
65341 
65499 
65562 
65636 
65705 
65766 
65854 
65920 
65994 
66086 
66193 
66326 
66516 
66672 
66799 
66872 
66980 
67072 
67146 
67261 
67371 
67482 
67571 
67596 
67692 
67785 
67838 
67947 
68056 
68192 
68255 
68285 
68371 
68435 
68431 
68431 
68439 
68467 
68552 
68625 
68646 
68682 
68682 
68685 
68701 
68690 
68689 
68698 
68715 
68741 
68737 
68734 
68732 
68753 
68801 
68877 
68931 
68941 
68960 
68971 
69007 
69068 
69125 
69188 
69219 
69231 
69261 
69295 
69331 
69367 
69381 
69424 
69489 
69557 
69591 
69609 
69649 
69705 
69728 
69790 
69888 
69950 
70022 
70077 
70129 
70193 
70205 
70234 
70307 
70351 
70355 
70448 
70510 
70550 
70622 
70690 
70739 
70751 
70757 
70785 
70867 
70891 
70862 
70863 
70881 
70856 
70921 
71029 
71027 
71075 
71123 
71136 
71166 
71208 
71274 
71295 
71260 
71249 
71248 
71329 
71350 
71308 
71300 
71239 
71250 
71260 
71265 
71286 
71283 
71297 
71298 
71356 
71342 
71329 
71327 
71333 
71339 
71286 
71292 
71313 
71279 
71235 
71238 
71227 
71237 
71207 
71215 
71251 
71241 
71256 
71242 
71234 
71233 
71165 
71155 
71176 
71161 
71142 
71096 
71008 
70981 
70987 
70971 
70968 
70986 
70985 
70982 
70995 
70981 
70932 
70920 
70885 
70910 
70941 
70947 
70966 
70966 
70984 
70962 
70920 
70865 
70808 
70782 
70778 
70774 
70778 
70798 
70794 
70786 
70770 
70728 
70710 
70685 
70667 
70676 
70707 
70667 
70624 
70649 
70666 
70666 
70666 
70660 
70642 
70634 
70642 
70662 
70635 
70588 
70527 
70470 
70477 
70508 
70507 
70466 
70428 
70398 
70363 
70346 
70319 
70293 
70304 
70282 
70231 
70266 
70288 
70289 
70266 
70241 
70222 
70197 
70190 
70178 
70177 
70122 
70081 
70061 
70007 
69955 
69944 
69965 
69942 
69949 
69961 
69938 
69855 
69789 
69741 
69613 
69456 
69269 
69095 
68949 
68766 
68537 
68325 
68119 
67906 
67645 
67401 
67183 
66951 
66686 
66437 
66270 
66101 
65907 
65728 
65545 
65344 
65190 
65046 
64921 
64822 
64775 
64701 
64587 
64484 
64404 
64330 
64295 
64283 
64278 
64297 
64336 
64351 
64371 
64415 
64455 
64507 
64563 
64602 
64682 
64776 
64869 
64936 
64983 
65071 
65181 
65291 
65373 
65503 
65619 
65751 
65854 
65937 
66039 
66149 
66266 
66375 
66464 
66583 
66689 
66780 
66894 
67011 
67108 
67199 
67297 
67388 
67495 
67626 
67715 
67774 
67843 
67938 
68023 
68092 
68166 
68202 
68203 
68222 
68236 
68279 
68337 
68434 
68480 
68507 
68509 
68526 
68550 
68574 
68599 
68633 
68676 
68702 
68739 
68736 
68719 
68762 
68780 
68805 
68857 
68899 
68948 
69005 
69032 
69059 
69095 
69085 
69157 
69219 
69258 
69328 
69357 
69400 
69502 
69549 
69563 
69624 
69664 
69717 
69798 
69828 
69876 
69916 
69928 
69958 
69993 
70024 
70103 
70133 
70163 
70252 
70332 
70392 
70420 
70487 
70569 
70605 
70645 
70680 
70722 
70756 
70762 
70807 
70866 
70970 
71018 
71030 
71064 
71094 
71105 
71127 
71201 
71237 
71237 
71255 
71272 
71235 
71226 
71272 
71288 
71284 
71305 
71314 
71320 
71372 
71403 
71371 
71380 
71357 
71331 
71378 
71411 
71400 
71410 
71435 
71433 
71370 
71324 
71293 
71319 
71347 
71359 
71338 
71348 
71318 
71359 
71353 
71294 
71253 
71234 
71243 
71286 
71314 
71317 
71287 
71277 
71264 
71228 
71216 
71168 
71136 
71114 
71099 
71126 
71080 
71081 
71097 
71046 
71058 
71104 
71107 
71049 
71040 
71076 
71109 
71088 
71043 
71005 
70971 
70969 
70961 
70983 
70976 
70945 
70936 
70953 
70922 
70891 
70892 
70867 
70837 
70794 
70764 
70740 
70739 
70749 
70793 
70792 
70733 
70684 
70642 
70672 
70732 
70732 
70722 
70751 
70730 
70683 
70667 
70611 
70575 
70533 
70484 
70465 
70460 
70467 
70451 
70455 
70461 
70452 
70428 
70382 
70356 
70368 
70362 
70360 
70364 
70346 
70356 
70339 
70329 
70309 
70303 
70280 
70233 
70221 
70241 
70197 
70182 
70211 
70187 
70129 
70105 
70106 
70117 
70126 
70104 
70041 
69997 
69990 
69981 
69979 
69973 
69945 
69960 
69973 
69930 
69890 
69855 
69861 
69848 
69810 
69819 
69800 
69729 
69652 
69567 
69457 
69339 
69245 
69131 
69010 
68881 
68666 
68437 
68234 
68021 
67811 
67599 
67375 
67140 
66889 
66607 
66391 
66177 
65958 
65736 
65566 
65383 
65183 
65023 
64885 
64760 
64623 
64547 
64440 
64352 
64318 
64310 
64220 
64090 
64059 
64066 
64077 
64076 
64100 
64133 
64165 
64215 
64268 
64333 
64392 
64427 
64489 
64613 
64712 
64805 
64875 
64962 
65077 
65132 
65200 
65302 
65426 
65590 
65729 
65872 
65948 
66040 
66197 
66321 
66403 
66509 
66615 
66698 
66800 
66927 
67090 
67239 
67337 
67427 
67524 
67607 
67677 
67732 
67832 
67951 
68029 
68057 
68092 
68166 
68203 
68221 
68258 
68321 
68379 
68412 
68402 
68427 
68485 
68529 
68591 
68625 
68634 
68661 
68683 
68689 
68699 
68707 
68726 
68738 
68772 
68758 
68788 
68853 
68902 
68927 
68910 
68914 
69014 
69131 
69156 
69109 
69138 
69188 
69241 
69318 
69359 
69427 
69473 
69523 
69593 
69641 
69686 
69734 
69795 
69856 
69921 
69979 
69988 
70052 
70115 
70164 
70227 
70266 
70314 
70327 
70311 
70400 
70541 
70600 
70619 
70630 
70673 
70739 
70801 
70877 
70901 
70904 
70946 
71022 
71095 
71162 
71186 
71186 
71210 
71205 
71195 
71209 
71218 
71223 
71262 
71285 
71326 
71370 
71365 
71373 
71412 
71445 
71448 
71420 
71416 
71385 
71344 
71347 
71357 
71397 
71437 
71435 
71393 
71417 
71452 
71434 
71396 
71379 
71376 
71369 
71372 
71388 
71408 
71419 
71382 
71354 
71379 
71379 
71335 
71311 
71300 
71275 
71272 
71316 
71333 
71296 
71263 
71238 
71227 
71245 
71267 
71290 
71261 
71203 
71186 
71194 
71179 
71121 
71080 
71081 
71087 
71082 
71076 
71094 
71058 
71008 
71000 
71006 
71046 
71026 
70939 
70878 
70897 
70902 
70910 
70922 
70911 
70869 
70810 
70770 
70783 
70773 
70741 
70712 
70737 
70722 
70660 
70600 
70555 
70561 
70555 
70552 
70524 
70551 
70578 
70553 
70572 
70610 
70564 
70495 
70425 
70417 
70395 
70384 
70407 
70405 
70404 
70399 
70347 
70340 
70324 
70273 
70238 
70228 
70221 
70228 
70228 
70221 
70246 
70291 
70232 
70167 
70170 
70190 
70216 
70198 
70154 
70136 
70101 
70051 
70018 
70002 
70017 
69960 
69887 
69896 
69868 
69856 
69838 
69830 
69840 
69823 
69804 
69798 
69794 
69800 
69825 
69780 
69725 
69682 
69664 
69608 
69494 
69347 
69165 
69029 
68852 
68656 
68515 
68332 
68126 
67918 
67723 
67474 
67184 
66973 
66823 
66609 
66376 
66140 
65926 
65724 
65510 
65332 
65223 
65092 
64963 
64866 
64783 
64708 
64607 
64541 
64495 
64452 
64450 
64402 
64337 
64317 
64322 
64335 
64370 
64403 
64459 
64534 
64618 
64625 
64669 
64745 
64830 
64921 
65016 
65090 
65192 
65295 
65404 
65508 
65598 
65686 
65799 
65940 
66086 
66172 
66251 
66355 
66484 
66611 
66692 
66750 
66817 
66890 
66986 
67075 
67203 
67310 
67426 
67524 
67665 
67825 
67891 
67934 
67920 
67914 
67986 
68079 
68096 
68104 
68143 
68114 
68123 
68184 
68219 
68273 
68315 
68337 
68380 
68347 
68338 
68311 
68286 
68322 
68368 
68395 
68417 
68477 
68534 
68596 
68637 
68642 
68641 
68680 
68729 
68732 
68776 
68821 
68866 
68908 
68936 
68981 
69071 
69208 
69262 
69306 
69386 
69473 
69531 
69596 
69659 
69658 
69694 
69725 
69764 
69817 
69873 
69900 
69961 
70053 
70152 
70222 
70247 
70281 
70340 
70420 
70502 
70583 
70623 
70663 
70722 
70762 
70792 
70853 
70884 
70896 
70954 
71002 
71044 
71106 
71150 
71202 
71222 
71210 
71213 
71249 
71229 
71214 
71193 
71224 
71307 
71367 
71407 
71425 
71414 
71388 
71402 
71393 
71346 
71259 
71229 
71270 
71293 
71285 
71295 
71283 
71303 
71336 
71269 
71263 
71256 
71253 
71271 
71273 
71282 
71268 
71169 
71110 
71098 
71150 
71173 
71131 
71109 
71085 
71083 
71065 
71055 
71032 
71024 
71042 
71052 
71027 
71001 
70933 
70891 
70876 
70875 
70868 
70826 
70805 
70813 
70815 
70782 
70747 
70733 
70756 
70751 
70758 
70726 
70697 
70701 
70704 
70690 
70661 
70649 
70658 
70643 
70661 
70666 
70636 
70647 
70661 
70674 
70678 
70682 
70680 
70676 
70647 
70626 
70610 
70625 
70636 
70641 
70633 
70590 
70554 
70568 
70555 
70532 
70504 
70461 
70453 
70491 
70496 
70425 
70374 
70371 
70393 
70394 
70383 
70368 
70329 
70348 
70350 
70288 
70249 
70247 
70256 
70228 
70247 
70221 
70183 
70157 
70130 
70099 
70062 
70022 
70004 
69869 
69743 
69630 
69503 
69349 
69164 
68947 
68755 
68556 
68335 
68129 
67920 
67704 
67470 
67268 
67058 
66847 
66627 
66406 
66184 
65995 
65840 
65682 
65523 
65388 
65285 
65208 
65120 
65035 
64940 
64896 
64856 
64815 
64801 
64778 
64758 
64730 
64731 
64777 
64819 
64886 
64928 
64975 
65061 
65109 
65184 
65276 
65350 
65407 
65492 
65600 
65697 
65786 
65880 
65987 
66117 
66192 
66245 
66346 
66456 
66564 
66704 
66859 
66949 
67022 
67095 
67161 
67251 
67354 
67429 
67545 
67682 
67793 
67900 
67948 
67986 
68039 
68089 
68148 
68214 
68236 
68234 
68283 
68346 
68384 
68357 
68342 
68337 
68337 
68359 
68397 
68402 
68383 
68358 
68384 
68414 
68455 
68448 
68427 
68432 
68447 
68498 
68543 
68554 
68557 
68571 
68643 
68651 
68674 
68724 
68789 
68827 
68849 
68902 
68965 
69000 
69052 
69155 
69220 
69278 
69297 
69343 
69446 
69500 
69555 
69562 
69582 
69651 
69765 
69834 
69845 
69902 
69973 
70077 
70178 
70219 
70261 
70329 
70361 
70399 
70460 
70514 
70553 
70617 
70731 
70802 
70776 
70761 
70795 
70843 
70869 
70920 
70943 
70935 
70974 
71007 
71011 
71064 
71108 
71074 
71061 
71091 
71091 
71131 
71160 
71122 
71159 
71213 
71181 
71133 
71141 
71194 
71179 
71146 
71148 
71146 
71130 
71131 
71142 
71167 
71149 
71096 
71091 
71101 
71093 
71083 
71100 
71078 
71087 
71080 
71080 
71044 
71005 
70955 
70936 
70951 
70948 
70963 
70975 
70973 
70968 
70958 
71016 
70995 
70939 
70924 
70941 
70981 
70992 
70955 
70922 
70927 
70970 
70985 
70968 
71007 
71029 
71047 
71051 
71038 
71026 
71038 
71024 
70997 
70989 
70965 
70935 
70944 
70918 
70877 
70893 
70929 
70926 
70930 
70909 
70897 
70897 
70932 
70947 
70934 
70893 
70896 
70894 
70839 
70794 
70737 
70687 
70673 
70685 
70644 
70592 
70565 
70561 
70556 
70531 
70504 
70460 
70444 
70415 
70360 
70325 
70324 
70307 
70317 
70303 
70237 
70168 
70093 
70087 
70049 
70046 
70078 
70135 
70101 
70038 
70015 
70004 
70008 
70000 
70008 
69999 
69980 
69904 
69842 
69857 
69923 
69947 
69914 
69912 
69902 
69880 
69876 
69856 
69786 
69731 
69677 
69622 
69585 
69481 
69362 
69268 
69146 
68973 
68783 
68596 
68389 
68132 
67884 
67666 
67442 
67186 
66923 
66675 
66453 
66215 
66018 
65820 
65627 
65427 
65245 
65103 
64982 
64884 
64789 
64697 
64585 
64455 
64397 
64360 
64292 
64243 
64240 
64256 
64273 
64282 
64315 
64370 
64412 
64456 
64485 
64523 
64603 
64624 
64673 
64781 
64855 
64904 
64995 
65071 
65125 
65196 
65269 
65426 
65558 
65670 
65800 
65886 
66016 
66121 
66218 
66328 
66429 
66536 
66713 
66869 
66970 
67050 
67119 
67212 
67331 
67383 
67445 
67512 
67635 
67755 
67844 
67929 
67942 
67978 
68073 
68144 
68201 
68252 
68298 
68329 
68339 
68374 
68480 
68559 
68596 
68636 
68651 
68700 
68750 
68792 
68828 
68843 
68834 
68843 
68891 
68974 
68990 
69037 
69113 
69103 
69075 
69093 
69128 
69218 
69277 
69311 
69397 
69464 
69495 
69496 
69525 
69606 
69659 
69684 
69734 
69776 
69824 
69866 
69954 
70034 
70071 
70115 
70183 
70234 
70281 
70370 
70405 
70458 
70568 
70630 
70668 
70711 
70767 
70798 
70795 
70797 
70808 
70838 
70837 
70867 
70946 
70967 
70981 
71039 
71100 
71127 
71152 
71200 
71282 
71347 
71407 
71405 
71394 
71411 
71445 
71468 
71490 
71520 
71531 
71546 
71536 
71489 
71501 
71537 
71543 
71568 
71603 
71607 
71601 
71636 
71690 
71674 
71705 
71706 
71661 
71675 
71644 
71580 
71562 
71567 
71548 
71585 
71647 
71684 
71669 
71662 
71662 
71631 
71614 
71573 
71542 
71522 
71538 
71558 
71538 
71507 
71482 
71478 
71476 
71466 
71455 
71460 
71440 
71434 
71460 
71431 
71415 
71414 
71393 
71391 
71389 
71322 
71264 
71274 
71321 
71308 
71325 
71279 
71190 
71113 
71086 
71060 
71038 
70998 
70987 
70982 
70989 
71007 
70992 
70998 
70958 
70932 
70981 
71006 
70969 
70924 
70940 
70947 
70940 
70909 
70860 
70831 
70806 
70749 
70704 
70683 
70643 
70665 
70715 
70752 
70737 
70716 
70656 
70627 
70573 
70518 
70488 
70494 
70509 
70502 
70487 
70487 
70436 
70389 
70323 
70266 
70264 
70230 
70235 
70238 
70203 
70217 
70199 
70150 
70111 
70110 
70147 
70153 
70141 
70146 
70099 
70080 
70052 
69995 
69988 
69983 
69985 
69960 
69912 
69886 
69862 
69843 
69805 
69757 
69734 
69644 
69532 
69377 
69224 
69030 
68831 
68634 
68392 
68100 
67822 
67535 
67227 
67004 
66787 
66559 
66318 
66104 
65877 
65618 
65362 
65183 
65040 
64923 
64807 
64668 
64570 
64484 
64371 
64251 
64163 
64139 
64127 
64123 
64151 
64146 
64113 
64091 
64076 
64129 
64193 
64268 
64355 
64430 
64480 
64544 
64607 
64693 
64834 
64935 
65008 
65101 
65208 
65330 
65489 
65611 
65704 
65799 
65953 
66107 
66228 
66307 
66393 
66488 
66597 
66718 
66829 
66965 
67114 
67238 
67343 
67459 
67545 
67640 
67756 
67850 
67976 
68067 
68138 
68190 
68271 
68312 
68330 
68377 
68439 
68515 
68562 
68564 
68557 
68620 
68682 
68714 
68761 
68799 
68813 
68829 
68874 
68916 
68940 
68998 
69026 
68991 
68963 
68999 
69068 
69152 
69148 
69185 
69284 
69333 
69354 
69382 
69403 
69454 
69543 
69617 
69621 
69671 
69733 
69806 
69865 
69924 
69965 
69938 
69987 
70067 
70148 
70167 
70223 
70303 
70411 
70488 
70552 
70557 
70556 
70591 
70608 
70694 
70757 
70817 
70872 
70895 
70939 
71007 
71054 
71118 
71178 
71159 
71173 
71208 
71238 
71265 
71319 
71362 
71349 
71347 
71355 
71387 
71406 
71414 
71461 
71486 
71492 
71485 
71456 
71455 
71501 
71533 
71596 
71625 
71577 
71574 
71586 
71572 
71532 
71499 
71478 
71474 
71445 
71407 
71347 
71336 
71330 
71278 
71228 
71211 
71160 
71099 
71052 
71038 
71017 
70999 
71011 
71054 
71021 
70957 
70917 
70909 
70893 
70795 
70688 
70652 
70657 
70619 
70578 
70540 
70517 
70524 
70565 
70537 
70491 
70466 
70437 
70403 
70363 
70320 
70284 
70299 
70300 
70330 
70386 
70378 
70387 
70367 
70347 
70346 
70389 
70403 
70374 
70324 
70325 
70345 
70357 
70366 
70353 
70356 
70364 
70359 
70339 
70341 
70392 
70404 
70389 
70430 
70415 
70411 
70435 
70419 
70381 
70394 
70443 
70473 
70475 
70428 
70432 
70470 
70477 
70449 
70455 
70434 
70414 
70400 
70344 
70296 
70318 
70319 
70300 
70312 
70328 
70332 
70348 
70348 
70328 
70340 
70309 
70277 
70271 
70269 
70276 
70286 
70274 
70254 
70245 
70199 
70132 
70080 
70041 
70030 
70065 
70170 
70151 
70091 
70092 
70089 
70049 
70027 
69993 
69963 
69920 
69871 
69855 
69862 
69827 
69767 
69635 
69468 
69320 
69199 
69041 
68829 
68608 
68354 
68100 
67877 
67635 
67374 
67107 
66835 
66562 
66360 
66138 
65942 
65769 
65597 
65452 
65309 
65161 
65048 
65000 
64909 
64800 
64698 
64657 
64646 
64625 
64646 
64632 
64594 
64554 
64579 
64603 
64663 
64712 
64788 
64869 
64922 
64980 
65036 
65091 
65129 
65235 
65305 
65375 
65481 
65606 
65708 
65840 
65972 
66056 
66171 
66309 
66460 
66560 
66629 
66759 
66914 
67088 
67196 
67270 
67364 
67474 
67533 
67599 
67700 
67757 
67874 
68009 
68130 
68252 
68332 
68408 
68500 
68569 
68607 
68687 
68772 
68816 
68867 
68911 
68952 
68935 
68937 
68998 
69028 
69020 
69029 
69036 
69035 
69044 
69093 
69132 
69145 
69134 
69154 
69199 
69246 
69263 
69291 
69337 
69335 
69370 
69397 
69369 
69363 
69420 
69463 
69490 
69573 
69655 
69703 
69749 
69801 
69832 
69824 
69888 
69944 
69968 
69984 
70009 
70005 
70011 
70079 
70113 
70144 
70159 
70156 
70172 
70147 
70135 
70148 
70211 
70271 
70278 
70273 
70294 
70358 
70384 
70326 
70293 
70313 
70378 
70450 
70469 
70492 
70514 
70509 
70510 
70533 
70560 
70603 
70652 
70669 
70633 
70594 
70542 
70505 
70511 
70564 
70632 
70700 
70725 
70757 
70807 
70838 
70847 
70858 
70869 
70906 
70915 
70892 
70930 
71026 
71064 
71074 
71063 
71086 
71169 
71200 
71227 
71242 
71242 
71232 
71244 
71268 
71262 
71305 
71335 
71361 
71376 
71346 
71306 
71302 
71303 
71308 
71325 
71372 
71392 
71410 
71452 
71471 
71488 
71492 
71511 
71531 
71549 
71546 
71504 
71505 
71546 
71518 
71488 
71495 
71513 
71519 
71511 
71499 
71471 
71469 
71462 
71482 
71480 
71455 
71433 
71422 
71393 
71398 
71399 
71417 
71412 
71386 
71360 
71346 
71395 
71389 
71361 
71382 
71391 
71364 
71309 
71259 
71219 
71206 
71133 
71097 
71086 
71072 
71015 
70901 
70806 
70763 
70736 
70694 
70673 
70646 
70593 
70540 
70469 
70435 
70383 
70331 
70224 
70182 
70183 
70155 
70086 
70032 
70020 
69978 
69910 
69841 
69786 
69738 
69674 
69609 
69582 
69608 
69590 
69565 
69520 
69427 
69335 
69243 
69184 
69182 
69164 
69134 
69083 
69015 
68941 
68891 
68770 
68634 
68515 
68419 
68352 
68238 
68081 
67963 
67814 
67651 
67550 
67455 
67339 
67200 
67093 
67009 
66909 
66837 
66746 
66630 
66605 
66542 
66442 
66394 
66345 
66306 
66276 
66213 
66170 
66152 
66152 
66179 
66180 
66154 
66133 
66111 
66066 
66043 
66072 
66078 
66099 
66144 
66188 
66204 
66231 
66283 
66314 
66348 
66422 
66520 
66579 
66653 
66725 
66803 
66862 
66925 
66982 
67046 
67088 
67140 
67216 
67291 
67363 
67461 
67626 
67757 
67833 
67903 
67978 
68067 
68150 
68205 
68264 
68328 
68413 
68475 
68518 
68553 
68598 
68642 
68673 
68690 
68711 
68725 
68809 
68943 
69012 
69051 
69069 
69080 
69073 
69071 
69071 
69089 
69118 
69161 
69211 
69215 
69209 
69231 
69221 
69223 
69247 
69294 
69315 
69303 
69373 
69398 
69388 
69393 
69363 
69368 
69393 
69401 
69407 
69403 
69429 
69430 
69458 
69502 
69490 
69520 
69562 
69595 
69642 
69678 
69730 
69775 
69797 
69796 
69803 
69794 
69805 
69865 
69855 
69868 
69942 
69976 
69965 
69985 
69983 
69984 
69992 
69989 
69994 
70023 
70077 
70125 
70161 
70199 
70248 
70232 
70286 
70317 
70316 
70298 
70303 
70354 
70371 
70392 
70410 
70396 
70430 
70480 
70529 
70549 
70546 
70592 
70647 
70670 
70660 
70646 
70642 
70660 
70667 
70673 
70686 
70723 
70736 
70792 
70821 
70852 
70844 
70810 
70774 
70739 
70762 
70766 
70761 
70778 
70804 
70827 
70829 
70838 
70808 
70791 
70821 
70858 
70818 
70823 
70847 
70853 
70850 
70827 
70795 
70808 
70775 
70764 
70798 
70808 
70779 
70745 
70752 
70710 
70647 
70626 
70626 
70570 
70542 
70571 
70498 
70388 
70314 
70273 
70216 
70169 
70161 
70152 
70111 
70050 
69996 
69980 
69969 
69947 
69972 
69956 
69922 
69930 
69964 
69922 
69862 
69829 
69813 
69806 
69794 
69781 
69769 
69772 
69811 
69863 
69876 
69870 
69865 
69849 
69877 
69849 
69797 
69803 
69825 
69804 
69835 
69860 
69876 
69921 
69945 
69963 
69970 
69993 
70035 
70060 
70065 
70065 
70097 
70149 
70132 
70067 
70013 
69986 
70027 
70061 
70048 
70090 
70121 
70138 
70177 
70205 
70239 
70261 
70290 
70294 
70263 
70244 
70232 
70232 
70275 
70308 
70369 
70414 
70383 
70342 
70332 
70316 
70315 
70306 
70323 
70316 
70282 
70283 
70359 
70394 
70415 
70459 
70485 
70524 
70526 
70490 
70494 
70534 
70580 
70580 
70539 
70513 
70504 
70539 
70564 
70577 
70551 
70580 
70568 
70542 
70561 
70568 
70627 
70692 
70684 
70673 
70636 
70590 
70522 
70435 
70427 
70423 
70356 
70258 
70190 
70096 
70048 
69992 
69943 
69867 
69818 
69820 
69744 
69658 
69645 
69587 
69522 
69457 
69418 
69388 
69401 
69393 
69390 
69384 
69374 
69397 
69391 
69307 
69274 
69257 
69297 
69365 
69374 
69357 
69346 
69376 
69358 
69286 
69272 
69314 
69377 
69385 
69401 
69454 
69472 
69483 
69499 
69489 
69479 
69502 
69540 
69572 
69583 
69553 
69508 
69544 
69615 
69716 
69770 
69764 
69775 
69755 
69749 
69742 
69772 
69816 
69874 
69908 
69933 
69924 
69907 
69906 
69961 
70022 
70063 
70078 
70129 
70188 
70196 
70158 
70141 
70170 
70160 
70150 
70177 
70181 
70222 
70262 
70288 
70300 
70352 
70365 
70387 
70415 
70422 
70410 
70423 
70457 
70487 
70534 
70542 
70557 
70613 
70636 
70617 
70644 
70649 
70650 
70672 
70655 
70665 
70691 
70702 
70683 
70697 
70721 
70716 
70727 
70817 
70821 
70775 
70805 
70815 
70819 
70801 
70801 
70844 
70825 
70826 
70876 
70860 
70865 
70905 
70915 
70914 
70910 
70937 
70891 
70924 
70966 
70978 
70983 
70954 
70964 
70960 
70931 
70914 
70907 
70932 
70956 
70985 
70996 
70991 
70988 
70984 
70948 
70909 
70950 
71007 
70982 
70983 
70999 
70997 
71001 
70998 
70947 
70881 
70834 
70863 
70876 
70858 
70866 
70867 
70866 
70877 
70858 
70861 
70903 
70944 
70922 
70896 
70854 
70812 
70816 
70796 
70796 
70774 
70749 
70721 
70734 
70746 
70745 
70733 
70746 
70762 
70798 
70835 
70791 
70732 
70740 
70729 
70706 
70703 
70682 
70662 
70663 
70680 
70727 
70778 
70789 
70755 
70765 
70763 
70742 
70741 
70742 
70740 
70761 
70771 
70795 
70780 
70719 
70668 
70675 
70726 
70742 
70750 
70716 
70705 
70742 
70723 
70699 
70669 
70664 
70660 
70688 
70708 
70728 
70760 
70733 
70719 
70719 
70719 
70701 
70712 
70725 
70704 
70684 
70709 
70730 
70712 
70720 
70712 
70729 
70766 
70740 
70716 
70704 
70680 
70653 
70673 
70662 
70616 
70581 
70574 
70580 
70550 
70558 
70605 
70621 
70615 
70605 
70587 
70568 
70556 
70525 
70536 
70538 
70538 
70544 
70558 
70563 
70572 
70594 
70582 
70542 
70488 
70497 
70532 
70497 
70469 
70502 
70561 
70559 
70535 
70484 
70455 
70459 
70474 
70468 
70444 
70417 
70368 
70362 
70351 
70333 
70340 
70321 
70289 
70285 
70313 
70305 
70304 
70314 
70345 
70351 
70340 
70321 
70309 
70329 
70361 
70387 
70344 
70324 
70311 
70332 
70293 
70245 
70248 
70251 
70258 
70235 
70202 
70186 
70211 
70220 
70165 
70142 
70115 
70098 
70116 
70140 
70171 
70177 
70169 
70157 
70176 
70174 
70155 
70134 
70126 
70130 
70154 
70152 
70134 
70099 
70104 
70101 
70103 
70111 
70071 
70051 
70057 
70031 
70038 
70040 
70029 
70025 
70025 
70061 
70051 
70044 
70032 
69979 
69981 
70050 
70091 
70102 
70133 
70131 
70114 
70104 
70067 
70040 
70011 
70027 
70094 
70073 
70085 
70107 
70086 
70065 
70043 
70007 
69987 
69991 
70054 
70077 
70080 
70086 
70085 
70063 
70049 
70023 
70023 
70011 
69975 
69965 
70000 
70028 
70023 
70001 
70031 
70077 
70023 
69983 
69996 
69999 
70015 
70027 
70029 
70057 
70066 
70032 
70051 
70085 
70078 
70079 
70068 
70028 
70002 
70007 
70012 
70041 
70084 
70045 
70036 
70046 
70043 
70058 
70054 
70070 
70038 
69977 
69980 
70054 
70019 
69962 
69956 
69921 
69919 
69958 
69971 
69939 
69924 
69983 
70018 
70002 
70015 
69983 
69945 
69922 
69942 
69944 
69949 
69938 
69887 
69886 
69891 
69891 
69884 
69910 
69943 
69924 
69926 
69933 
69925 
69890 
69862 
69849 
69851 
69834 
69845 
69843 
69885 
69904 
69942 
69936 
69885 
69859 
69863 
69888 
69912 
69921 
69948 
69920 
69872 
69836 
69865 
69921 
69926 
69892 
69814 
69822 
69849 
69856 
69843 
69854 
69884 
69887 
69872 
69842 
69840 
69824 
69865 
69893 
69873 
69869 
69852 
69854 
69889 
69871 
69821 
69800 
69817 
69832 
69814 
69792 
69775 
69784 
69792 
69803 
69756 
69725 
69786 
69846 
69843 
69787 
69737 
69727 
69767 
69768 
69746 
69739 
69738 
69761 
69790 
69804 
69818 
69832 
69817 
69830 
69793 
69738 
69761 
69783 
69761 
69708 
69715 
69729 
69735 
69731 
69699 
69683 
69725 
69764 
69791 
69763 
69740 
69700 
69656 
69673 
69746 
69772 
69782 
69734 
69702 
69720 
69717 
69684 
69674 
69709 
69716 
69756 
69780 
69759 
69783 
69836 
69835 
69831 
69795 
69793 
69758 
69738 
69749 
69730 
69723 
69747 
69762 
69715 
69656 
69663 
69681 
69700 
69732 
69758 
69775 
69760 
69746 
69726 
69722 
69758 
69756 
69719 
69683 
69729 
69736 
69714 
69702 
69682 
69688 
69681 
69666 
69637 
69639 
69651 
69694 
69701 
69698 
69683 
69629 
69625 
69621 
69615 
69577 
69594 
69634 
69673 
69682 
69675 
69646 
69624 
69635 
69662 
69670 
69662 
69641 
69615 
69580 
69597 
69604 
69597 
69591 
69551 
69548 
69559 
69564 
69583 
69584 
69594 
69634 
69663 
69673 
69707 
69744 
69753 
69740 
69694 
69652 
69681 
69692 
69654 
69630 
69603 
69624 
69659 
69709 
69723 
69744 
69719 
69715 
69713 
69743 
69773 
69806 
69844 
69819 
69757 
69739 
69763 
69741 
69742 
69752 
69714 
69713 
69710 
69689 
69719 
69763 
69777 
69842 
69863 
69805 
69768 
69785 
69808 
69816 
69805 
69794 
69799 
69803 
69811 
69802 
69806 
69781 
69746 
69719 
69672 
69677 
69719 
69703 
69672 
69700 
69725 
69726 
69734 
69770 
69777 
69778 
69768 
69708 
69707 
69705 
69706 
69696 
69701 
69741 
69749 
69709 
69698 
69720 
69747 
69755 
69743 
69755 
69767 
69774 
69734 
69753 
69718 
69673 
69637 
69609 
69625 
69632 
69663 
69675 
69678 
69680 
69670 
69638 
69602 
69612 
69639 
69634 
69652 
69665 
69642 
69617 
69603 
69603 
69596 
69585 
69585 
69573 
69599 
69632 
69632 
69636 
69665 
69665 
69650 
69606 
69554 
69557 
69561 
69577 
69591 
69615 
69592 
69594 
69604 
69624 
69622 
69625 
69619 
69673 
69698 
69674 
69665 
69684 
69678 
69636 
69611 
69609 
69579 
69576 
69566 
69542 
69538 
69563 
69596 
69595 
69554 
69573 
69604 
69588 
69592 
69566 
69574 
69605 
69605 
69547 
69497 
69512 
69495 
69468 
69485 
69517 
69542 
69579 
69591 
69586 
69595 
69576 
69568 
69565 
69513 
69488 
69482 
69496 
69497 
69505 
69512 
69535 
69516 
69502 
69524 
69533 
69508 
69463 
69468 
69497 
69534 
69561 
69572 
69534 
69499 
69484 
69500 
69481 
69466 
69444 
69485 
69487 
69510 
69494 
69480 
69506 
69523 
69503 
69483 
69453 
69411 
69406 
69463 
69487 
69458 
69458 
69474 
69479 
69508 
69542 
69530 
69493 
69485 
69541 
69524 
69484 
69468 
69480 
69494 
69476 
69462 
69445 
69424 
69473 
69523 
69504 
69454 
69447 
69480 
69455 
69427 
69475 
69489 
69450 
69417 
69384 
69387 
69382 
69371 
69364 
69375 
69359 
69396 
69419 
69404 
69410 
69419 
69409 
69388 
69340 
69322 
69304 
69277 
69300 
69322 
69332 
69355 
69342 
69310 
69322 
69374 
69382 
69398 
69432 
69448 
69421 
69405 
69394 
69382 
69337 
69322 
69370 
69413 
69401 
69394 
69397 
69441 
69441 
69419 
69417 
69425 
69430 
69451 
69490 
69482 
69466 
69448 
69469 
69458 
69410 
69420 
69425 
69424 
69453 
69429 
69376 
69392 
69446 
69478 
69486 
69449 
69435 
69372 
69350 
69318 
69321 
69345 
69370 
69371 
69375 
69382 
69404 
69389 
69399 
69403 
69417 
69432 
69409 
69359 
69311 
69324 
69355 
69351 
69330 
69350 
69369 
69379 
69391 
69401 
69376 
69365 
69358 
69350 
69345 
69363 
69388 
69412 
69441 
69403 
69420 
69446 
69437 
69442 
69451 
69423 
69425 
69390 
69392 
69357 
69326 
69332 
69322 
69336 
69339 
69309 
69316 
69326 
69351 
69385 
69417 
69368 
69330 
69308 
69314 
69318 
69353 
69391 
69384 
69340 
69350 
69381 
69365 
69351 
69365 
69333 
69298 
69294 
69278 
69240 
69240 
69290 
69327 
69333 
69315 
69273 
69276 
69273 
69268 
69261 
69284 
69323 
69304 
69273 
69268 
69278 
69255 
69235 
69268 
69278 
69331 
69372 
69349 
69353 
69323 
69266 
69262 
69278 
69257 
69211 
69171 
69194 
69197 
69177 
69177 
69191 
69230 
69225 
69206 
69199 
69175 
69233 
69234 
69220 
69218 
69214 
69208 
69210 
69179 
69181 
69203 
69240 
69260 
69276 
69277 
69243 
69180 
69159 
69125 
69114 
69114 
69119 
69141 
69131 
69153 
69188 
69193 
69207 
69213 
69250 
69249 
69171 
69196 
69210 
69181 
69176 
69212 
69230 
69242 
69211 
69186 
69178 
69204 
69198 
69184 
69227 
69254 
69206 
69167 
69199 
69217 
69222 
69237 
69241 
69246 
69242 
69271 
69286 
69272 
69245 
69213 
69210 
69172 
69170 
69161 
69177 
69191 
69166 
69184 
69236 
69252 
69251 
69246 
69211 
69201 
69218 
69255 
69292 
69312 
69282 
69250 
69206 
69201 
69240 
69227 
69203 
69211 
69201 
69201 
69211 
69226 
69254 
69276 
69266 
69220 
69200 
69212 
69268 
69316 
69319 
69288 
69245 
69241 
69250 
69188 
69114 
69101 
69100 
69108 
69096 
69079 
69104 
69139 
69141 
69141 
69159 
69163 
69199 
69174 
69159 
69131 
69110 
69111 
69145 
69150 
69158 
69165 
69154 
69121 
69105 
69113 
69103 
69099 
69084 
69111 
69163 
69187 
69185 
69142 
69098 
69006 
68948 
68968 
69016 
69040 
69041 
68996 
68990 
68995 
69011 
68991 
68981 
68980 
68968 
68927 
68886 
68884 
68921 
68964 
68999 
69022 
69042 
69031 
69001 
68984 
68968 
68971 
69008 
69038 
68993 
68987 
68975 
68947 
68919 
68858 
68868 
68911 
68946 
68991 
69005 
69029 
69042 
69043 
69013 
68969 
68932 
68960 
68987 
69004 
68972 
68957 
68941 
68971 
69004 
68968 
68949 
68970 
69018 
69019 
68977 
68959 
68983 
68971 
68953 
68966 
68973 
68905 
68906 
68929 
68928 
68905 
68883 
68886 
68912 
68944 
68992 
68974 
68947 
68952 
68935 
68921 
68912 
68969 
69003 
69025 
69060 
69065 
69050 
69058 
69065 
69043 
68975 
68869 
68840 
68890 
68933 
68949 
68973 
68931 
68894 
68937 
68944 
68941 
68951 
68940 
68927 
68889 
68890 
68929 
68978 
68972 
68958 
68979 
69001 
69014 
69001 
68991 
68989 
68983 
68999 
68996 
68966 
68983 
68998 
69016 
69021 
68997 
68972 
68953 
68973 
68977 
68983 
68962 
68981 
68978 
68933 
68907 
68940 
69014 
69032 
68999 
68954 
68961 
68943 
68948 
68950 
68949 
68943 
68945 
68935 
68947 
68933 
68912 
68911 
68947 
68928 
68924 
68920 
68934 
68926 
68907 
68897 
68921 
68932 
68907 
68943 
68962 
69029 
69044 
68984 
68922 
68931 
68963 
68950 
68919 
68921 
68914 
68913 
68963 
68954 
68954 
68953 
68962 
68931 
68898 
68884 
68922 
69001 
69011 
68997 
68968 
68954 
68968 
68950 
68920 
68908 
68901 
68879 
68886 
68894 
68890 
68928 
68949 
68945 
68922 
68908 
68883 
68868 
68865 
68894 
68873 
68877 
68894 
68887 
68923 
68937 
68922 
68877 
68826 
68864 
68898 
68899 
68886 
68889 
68872 
68848 
68849 
68873 
68907 
68902 
68901 
68899 
68891 
68908 
68936 
68973 
68959 
68977 
68993 
68995 
69004 
68926 
68852 
68842 
68859 
68899 
68934 
68933 
68886 
68867 
68882 
68946 
69013 
68998 
68933 
68928 
68918 
68904 
68875 
68841 
68806 
68785 
68784 
68822 
68904 
68912 
68864 
68857 
68886 
68890 
68863 
68829 
68830 
68877 
68897 
68914 
68943 
68941 
68899 
68876 
68870 
68901 
68916 
68869 
68836 
68841 
68855 
68840 
68833 
68808 
68779 
68770 
68770 
68751 
68787 
68816 
68827 
68844 
68860 
68843 
68835 
68838 
68841 
68858 
68887 
68891 
68877 
68852 
68833 
68809 
68815 
68840 
68854 
68836 
68836 
68876 
68909 
68907 
68895 
68888 
68907 
68875 
68840 
68833 
68803 
68770 
68771 
68772 
68771 
68737 
68705 
68739 
68742 
68739 
68743 
68790 
68838 
68820 
68818 
68825 
68806 
68788 
68853 
68860 
68852 
68843 
68826 
68819 
68806 
68791 
68820 
68853 
68843 
68812 
68797 
68790 
68802 
68892 
68947 
68959 
68918 
68897 
68857 
68821 
68788 
68778 
68783 
68835 
68861 
68849 
68807 
68780 
68768 
68748 
68708 
68705 
68726 
68797 
68832 
68831 
68811 
68822 
68829 
68817 
68833 
68833 
68815 
68806 
68810 
68805 
68772 
68769 
68779 
68715 
68687 
68726 
68742 
68778 
68777 
68779 
68779 
68801 
68831 
68832 
68822 
68828 
68801 
68768 
68792 
68781 
68785 
68796 
68821 
68853 
68860 
68861 
68913 
68899 
68865 
68842 
68813 
68804 
68785 
68771 
68723 
68668 
68636 
68668 
68708 
68725 
68772 
68800 
68776 
68798 
68794 
68787 
68796 
68772 
68760 
68790 
68810 
68807 
68801 
68825 
68848 
68843 
68824 
68838 
68819 
68801 
68761 
68726 
68710 
68729 
68732 
68706 
68694 
68724 
68744 
68773 
68816 
68832 
68810 
68795 
68817 
68796 
68761 
68778 
68793 
68778 
68784 
68766 
68742 
68729 
68729 
68745 
68767 
68754 
68812 
68853 
68833 
68807 
68808 
68860 
68853 
68823 
68810 
68828 
68833 
68795 
68813 
68807 
68800 
68813 
68801 
68814 
68853 
68910 
68872 
68853 
68893 
68852 
68814 
68761 
68725 
68718 
68724 
68756 
68785 
68765 
68746 
68742 
68733 
68726 
68716 
68727 
68764 
68813 
68792 
68776 
68770 
68795 
68834 
68831 
68780 
68747 
68732 
68719 
68717 
68669 
68650 
68698 
68720 
68730 
68750 
68762 
68776 
68777 
68780 
68783 
68770 
68749 
68734 
68732 
68744 
68750 
68770 
68746 
68731 
68742 
68754 
68769 
68777 
68775 
68789 
68759 
68741 
68743 
68764 
68758 
68758 
68752 
68751 
68769 
68760 
68764 
68788 
68776 
68734 
68703 
68717 
68769 
68763 
68786 
68829 
68807 
68775 
68755 
68756 
68768 
68759 
68750 
68766 
68807 
68792 
68752 
68744 
68758 
68758 
68746 
68749 
68776 
68825 
68842 
68803 
68719 
68662 
68653 
68657 
68679 
68663 
68636 
68634 
68641 
68696 
68703 
68736 
68752 
68774 
68792 
68797 
68810 
68831 
68813 
68833 
68810 
68773 
68755 
68759 
68762 
68757 
68771 
68823 
68826 
68784 
68757 
68715 
68684 
68701 
68735 
68758 
68742 
68750 
68743 
68732 
68753 
68741 
68727 
68708 
68656 
68623 
68624 
68652 
68713 
68721 
68713 
68721 
68778 
68764 
68714 
68696 
68706 
68760 
68797 
68767 
68740 
68718 
68692 
68705 
68678 
68657 
68619 
68603 
68690 
68742 
68754 
68746 
68723 
68698 
68673 
68677 
68708 
68730 
68767 
68799 
68753 
68692 
68662 
68654 
68671 
68650 
68632 
68652 
68680 
68714 
68735 
68747 
68771 
68751 
68762 
68772 
68781 
68765 
68788 
68790 
68773 
68750 
68757 
68747 
68754 
68756 
68736 
68705 
68712 
68696 
68670 
68691 
68685 
68682 
68674 
68680 
68686 
68714 
68704 
68722 
68781 
68803 
68765 
68745 
68768 
68782 
68765 
68718 
68695 
68736 
68732 
68722 
68664 
68642 
68625 
68595 
68611 
68632 
68613 
68628 
68656 
68682 
68696 
68677 
68670 
68673 
68674 
68679 
68668 
68656 
68671 
68659 
68648 
68647 
68644 
68642 
68620 
68601 
68607 
68627 
68641 
68660 
68709 
68684 
68655 
68656 
68641 
68634 
68648 
68635 
68623 
68624 
68600 
68569 
68547 
68532 
68560 
68631 
68687 
68662 
68626 
68634 
68637 
68644 
68605 
68577 
68558 
68519 
68561 
68575 
68615 
68635 
68636 
68627 
68619 
68627 
68636 
68632 
68635 
68622 
68620 
68645 
68598 
68554 
68558 
68592 
68570 
68564 
68591 
68592 
68546 
68528 
68544 
68535 
68539 
68531 
68542 
68557 
68573 
68606 
68561 
68538 
68538 
68543 
68575 
68583 
68542 
68468 
68449 
68472 
68477 
68469 
68474 
68456 
68469 
68444 
68417 
68429 
68427 
68431 
68476 
68506 
68510 
68496 
68508 
68525 
68533 
68566 
68579 
68551 
68548 
68569 
68536 
68505 
68492 
68475 
68462 
68452 
68490 
68503 
68486 
68477 
68467 
68465 
68485 
68481 
68496 
68491 
68465 
68389 
68351 
68407 
68441 
68423 
68430 
68422 
68432 
68440 
68425 
68435 
68443 
68435 
68428 
68433 
68449 
68438 
68386 
68347 
68361 
68400 
68395 
68345 
68355 
68366 
68383 
68340 
68287 
68290 
68319 
68329 
68317 
68349 
68333 
68341 
68338 
68278 
68296 
68344 
68378 
68364 
68334 
68316 
68323 
68301 
68279 
68237 
68195 
68147 
68190 
68275 
68292 
68267 
68281 
68309 
68323 
68313 
68304 
68319 
68347 
68342 
68349 
68365 
68383 
68414 
68404 
68373 
68359 
68365 
68437 
68467 
68471 
68433 
68414 
68418 
68396 
68391 
68399 
68392 
68395 
68393 
68395 
68353 
68346 
68322 
68311 
68321 
68351 
68356 
68348 
68375 
68345 
68286 
68266 
68278 
68287 
68304 
68294 
68266 
68248 
68253 
68287 
68305 
68342 
68346 
68340 
68342 
68360 
68371 
68323 
68313 
68349 
68356 
68378 
68389 
68346 
68329 
68369 
68355 
68340 
68306 
68310 
68377 
68428 
68414 
68366 
68356 
68349 
68348 
68343 
68319 
68314 
68347 
68349 
68361 
68402 
68414 
68355 
68322 
68312 
68324 
68330 
68340 
68320 
68241 
68265 
68295 
68270 
68277 
68288 
68353 
68372 
68372 
68375 
68377 
68399 
68419 
68396 
68339 
68297 
68281 
68314 
68329 
68321 
68321 
68294 
68279 
68253 
68270 
68329 
68389 
68399 
68379 
68384 
68341 
68342 
68341 
68339 
68301 
68293 
68321 
68300 
68274 
68275 
68260 
68291 
68330 
68316 
68303 
68371 
68404 
68361 
68342 
68348 
68304 
68283 
68295 
68268 
68255 
68316 
68316 
68302 
68316 
68294 
68302 
68308 
68313 
68300 
68307 
68309 
68336 
68336 
68365 
68363 
68317 
68319 
68354 
68347 
68339 
68355 
68355 
68368 
68340 
68313 
68248 
68203 
68161 
68166 
68225 
68274 
68295 
68282 
68269 
68267 
68270 
68261 
68240 
68244 
68257 
68234 
68248 
68269 
68276 
68310 
68335 
68336 
68347 
68306 
68312 
68325 
68333 
68352 
68351 
68334 
68321 
68331 
68343 
68344 
68335 
68364 
68384 
68357 
68309 
68285 
68264 
68289 
68292 
68275 
68259 
68272 
68263 
68282 
68288 
68289 
68311 
68300 
68274 
68296 
68263 
68259 
68261 
68251 
68249 
68245 
68235 
68253 
68320 
68345 
68318 
68307 
68318 
68356 
68358 
68347 
68352 
68330 
68362 
68383 
68366 
68349 
68329 
68312 
68318 
68293 
68293 
68284 
68317 
68296 
68302 
68287 
68244 
68219 
68235 
68293 
68344 
68366 
68360 
68345 
68305 
68257 
68226 
68257 
68279 
68312 
68336 
68292 
68287 
68276 
68274 
68283 
68304 
68304 
68329 
68336 
68301 
68286 
68302 
68324 
68342 
68330 
68311 
68323 
68315 
68284 
68280 
68289 
68314 
68356 
68352 
68325 
68315 
68323 
68341 
68339 
68343 
68315 
68272 
68212 
68202 
68239 
68282 
68278 
68251 
68254 
68237 
68243 
68275 
68332 
68357 
68357 
68363 
68359 
68374 
68371 
68359 
68319 
68311 
68353 
68377 
68353 
68324 
68316 
68282 
68247 
68258 
68255 
68258 
68287 
68323 
68309 
68275 
68197 
68181 
68208 
68214 
68206 
68201 
68200 
68247 
68305 
68352 
68351 
68335 
68321 
68306 
68312 
68328 
68314 
68322 
68318 
68326 
68352 
68331 
68254 
68181 
68172 
68186 
68206 
68225 
68237 
68291 
68326 
68320 
68324 
68341 
68355 
68330 
68298 
68290 
68277 
68299 
68302 
68291 
68284 
68274 
68281 
68293 
68260 
68243 
68200 
68188 
68198 
68187 
68182 
68199 
68220 
68248 
68250 
68262 
68285 
68313 
68329 
68325 
68342 
68317 
68266 
68235 
68207 
68221 
68201 
68211 
68272 
68297 
68270 
68256 
68241 
68231 
68233 
68240 
68240 
68220 
68184 
68149 
68183 
68233 
68238 
68236 
68192 
68215 
68265 
68253 
68243 
68246 
68248 
68218 
68250 
68272 
68307 
68349 
68338 
68303 
68313 
68316 
68319 
68321 
68253 
68247 
68275 
68255 
68259 
68269 
68293 
68279 
68298 
68340 
68335 
68299 
68277 
68252 
68225 
68200 
68205 
68184 
68184 
68180 
68167 
68146 
68149 
68119 
68113 
68126 
68122 
68158 
68139 
68094 
68064 
68092 
68162 
68194 
68174 
68152 
68124 
68128 
68132 
68135 
68112 
68081 
68077 
68108 
68109 
68074 
68045 
68071 
68098 
68091 
68101 
68091 
68083 
68089 
68071 
68063 
68065 
68080 
68076 
68054 
68058 
68093 
68123 
68089 
68072 
68103 
68100 
68102 
68141 
68159 
68162 
68149 
68115 
68122 
68107 
68119 
68140 
68139 
68120 
68168 
68212 
68250 
68254 
68216 
68174 
68175 
68202 
68234 
68196 
68192 
68170 
68151 
68140 
68150 
68156 
68165 
68165 
68187 
68195 
68225 
68235 
68203 
68157 
68139 
68148 
68138 
68113 
68116 
68120 
68112 
68146 
68211 
68224 
68204 
68203 
68189 
68197 
68213 
68270 
68295 
68288 
68269 
68251 
68237 
68246 
68242 
68231 
68276 
68331 
68270 
68240 
68249 
68250 
68267 
68266 
68245 
68217 
68178 
68198 
68249 
68276 
68265 
68276 
68291 
68286 
68279 
68289 
68290 
68336 
68321 
68294 
68303 
68292 
68302 
68299 
68258 
68253 
68232 
68207 
68197 
68220 
68224 
68223 
68243 
68255 
68216 
68200 
68207 
68236 
68247 
68214 
68247 
68302 
68327 
68311 
68309 
68269 
68287 
68327 
68330 
68273 
68255 
68285 
68272 
68282 
68325 
68343 
68323 
68324 
68323 
68336 
68356 
68338 
68315 
68292 
68300 
68335 
68329 
68332 
68354 
68353 
68364 
68353 
68351 
68373 
68363 
68383 
68390 
68374 
68363 
68364 
68316 
68258 
68216 
68208 
68233 
68319 
68368 
68381 
68363 
68320 
68247 
68209 
68214 
68233 
68290 
68338 
68378 
68409 
68364 
68354 
68366 
68352 
68357 
68343 
68320 
68334 
68329 
68318 
68319 
68300 
68286 
68278 
68259 
68262 
68303 
68333 
68283 
68236 
68227 
68250 
68270 
68297 
68320 
68327 
68370 
68346 
68274 
68225 
68241 
68273 
68301 
68301 
68271 
68272 
68292 
68284 
68283 
68311 
68324 
68305 
68296 
68317 
68356 
68346 
68322 
68304 
68294 
68309 
68299 
68290 
68277 
68275 
68299 
68327 
68291 
68259 
68243 
68257 
68266 
68240 
68225 
68240 
68247 
68304 
68335 
68351 
68360 
68353 
68349 
68374 
68389 
68356 
68356 
68364 
68353 
68335 
68294 
68258 
68280 
68320 
68264 
68230 
68208 
68184 
68162 
68128 
68084 
68052 
67969 
67922 
67868 
67783 
67735 
67721 
67728 
67690 
67660 
67633 
67598 
67532 
67497 
67535 
67497 
67413 
67339 
67309 
67290 
67270 
67275 
67247 
67215 
67206 
67233 
67269 
67242 
67196 
67160 
67155 
67134 
67097 
67080 
67054 
67047 
67055 
67114 
67155 
67157 
67117 
67130 
67141 
67150 
67148 
67126 
67136 
67146 
67141 
67182 
67179 
67149 
67144 
67180 
67155 
67154 
67172 
67237 
67315 
67307 
67291 
67282 
67279 
67329 
67335 
67325 
67368 
67399 
67394 
67408 
67420 
67424 
67437 
67448 
67478 
67514 
67538 
67545 
67543 
67542 
67569 
67558 
67546 
67552 
67584 
67612 
67664 
67708 
67759 
67759 
67749 
67711 
67696 
67707 
67731 
67754 
67791 
67843 
67886 
67950 
68011 
68050 
68030 
67977 
67994 
68037 
68064 
68097 
68127 
68169 
68195 
68185 
68181 
68207 
68221 
68244 
68285 
68290 
68293 
68304 
68323 
68342 
68335 
68358 
68436 
68457 
68469 
68471 
68473 
68453 
68465 
68510 
68553 
68584 
68586 
68553 
68555 
68581 
68595 
68620 
68618 
68565 
68551 
68564 
68604 
68622 
68626 
68652 
68673 
68704 
68703 
68679 
68691 
68725 
68787 
68831 
68821 
68803 
68794 
68790 
68785 
68799 
68866 
68934 
68951 
68950 
68918 
68900 
68926 
68942 
68981 
68980 
68959 
68935 
68902 
68888 
68874 
68890 
68931 
68928 
68891 
68876 
68868 
68889 
68945 
68986 
68992 
68989 
68959 
68975 
68997 
69014 
68991 
68966 
68921 
68906 
68921 
68938 
68992 
68976 
68976 
68962 
68920 
68900 
68914 
68949 
68959 
68939 
68965 
68924 
68855 
68864 
68872 
68921 
68934 
68921 
68919 
68906 
68919 
68945 
68978 
68949 
68941 
68973 
68996 
69005 
68991 
68967 
68961 
68951 
68922 
68919 
68915 
68894 
68861 
68874 
68875 
68891 
68913 
68870 
68904 
68936 
68916 
68895 
68923 
68944 
68931 
68913 
68875 
68850 
68848 
68864 
68875 
68900 
68904 
68883 
68913 
68947 
68928 
68921 
68917 
68910 
68875 
68834 
68838 
68841 
68838 
68832 
68837 
68871 
68893 
68897 
68883 
68886 
68866 
68782 
68681 
68667 
68743 
68738 
68708 
68696 
68704 
68700 
68755 
68783 
68802 
68830 
68805 
68780 
68768 
68759 
68712 
68738 
68749 
68760 
68793 
68778 
68785 
68831 
68817 
68764 
68760 
68755 
68734 
68704 
68674 
68699 
68719 
68702 
68698 
68696 
68681 
68694 
68674 
68685 
68710 
68671 
68611 
68508 
68440 
68363 
68309 
68248 
68177 
68093 
67999 
67929 
67878 
67832 
67799 
67769 
67753 
67679 
67578 
67486 
67429 
67361 
67311 
67266 
67235 
67221 
67190 
67123 
67045 
66994 
66963 
66968 
66947 
66953 
66956 
66924 
66871 
66858 
66874 
66883 
66920 
66890 
66861 
66852 
66841 
66849 
66847 
66826 
66837 
66837 
66827 
66810 
66845 
66889 
66893 
66934 
66936 
66951 
66957 
66943 
66949 
66981 
67028 
67075 
67076 
67066 
67074 
67063 
67104 
67156 
67153 
67168 
67197 
67274 
67307 
67330 
67344 
67359 
67392 
67375 
67350 
67366 
67430 
67480 
67500 
67572 
67626 
67618 
67626 
67698 
67742 
67766 
67751 
67754 
67778 
67813 
67845 
67884 
67921 
67931 
67940 
67946 
67934 
67984 
68037 
68025 
68000 
68029 
68041 
68003 
68058 
68136 
68164 
68214 
68260 
68333 
68317 
68335 
68340 
68317 
68324 
68321 
68366 
68427 
68443 
68487 
68458 
68423 
68461 
68538 
68635 
68668 
68681 
68658 
68671 
68690 
68728 
68727 
68716 
68735 
68791 
68795 
68818 
68839 
68853 
68845 
68842 
68842 
68848 
68856 
68894 
68920 
68973 
69040 
69036 
69030 
69070 
69089 
69101 
69145 
69164 
69164 
69136 
69109 
69126 
69139 
69116 
69095 
69089 
69110 
69125 
69118 
69161 
69171 
69191 
69166 
69175 
69198 
69215 
69307 
69314 
69278 
69262 
69271 
69257 
69249 
69243 
69243 
69261 
69308 
69353 
69343 
69324 
69326 
69320 
69337 
69326 
69342 
69340 
69331 
69357 
69353 
69379 
69367 
69317 
69304 
69311 
69313 
69294 
69321 
69344 
69332 
69326 
69324 
69318 
69293 
69283 
69322 
69316 
69308 
69335 
69338 
69359 
69333 
69303 
69338 
69349 
69337 
69288 
69288 
69279 
69262 
69289 
69296 
69314 
69323 
69282 
69283 
69293 
69301 
69341 
69353 
69295 
69256 
69252 
69246 
69232 
69226 
69222 
69196 
69166 
69223 
69215 
69230 
69238 
69225 
69235 
69242 
69214 
69163 
69112 
69090 
69139 
69139 
69131 
69151 
69185 
69193 
69147 
69120 
69119 
69144 
69138 
69146 
69141 
69126 
69118 
69119 
69152 
69159 
69125 
69132 
69110 
69070 
69074 
69098 
69107 
69089 
69068 
69110 
69059 
69003 
69011 
69004 
68973 
68963 
68963 
68952 
68887 
68798 
68766 
68720 
68606 
68525 
68467 
68345 
68197 
68095 
68015 
67891 
67763 
67643 
67565 
67493 
67437 
67324 
67246 
67163 
67111 
67026 
66919 
66868 
66802 
66701 
66607 
66534 
66466 
66402 
66377 
66338 
66278 
66211 
66132 
66086 
66058 
66027 
65996 
65948 
65914 
65920 
65961 
65995 
66000 
65973 
65934 
65906 
65878 
65863 
65846 
65860 
65883 
65915 
65965 
65981 
66019 
66017 
66003 
66048 
66149 
66180 
66241 
66271 
66266 
66265 
66299 
66329 
66352 
66329 
66299 
66327 
66330 
66355 
66434 
66485 
66552 
66610 
66600 
66651 
66712 
66765 
66825 
66894 
66908 
66941 
66991 
67032 
67099 
67154 
67174 
67195 
67245 
67340 
67372 
67383 
67388 
67411 
67471 
67517 
67555 
67575 
67617 
67670 
67721 
67748 
67777 
67791 
67815 
67831 
67911 
68003 
68037 
68095 
68113 
68156 
68165 
68147 
68178 
68264 
68324 
68353 
68380 
68421 
68438 
68506 
68552 
68542 
68546 
68622 
68664 
68664 
68720 
68747 
68786 
68831 
68865 
68903 
68910 
68924 
68946 
68982 
69038 
69106 
69141 
69169 
69197 
69207 
69243 
69302 
69317 
69327 
69368 
69428 
69440 
69437 
69410 
69381 
69400 
69426 
69468 
69477 
69518 
69530 
69557 
69566 
69551 
69567 
69638 
69691 
69706 
69723 
69755 
69785 
69783 
69803 
69845 
69885 
69903 
69960 
70020 
70000 
69960 
69968 
69995 
70019 
70038 
70089 
70135 
70155 
70108 
70060 
70026 
70049 
70075 
70088 
70116 
70143 
70111 
70141 
70197 
70204 
70227 
70231 
70211 
70226 
70259 
70282 
70304 
70254 
70231 
70270 
70258 
70210 
70200 
70237 
70273 
70271 
70292 
70308 
70274 
70310 
70339 
70322 
70288 
70273 
70330 
70358 
70359 
70374 
70384 
70378 
70338 
70293 
70340 
70395 
70389 
70395 
70389 
70371 
70368 
70357 
70389 
70399 
70385 
70365 
70363 
70383 
70404 
70435 
70440 
70426 
70429 
70403 
70399 
70406 
70414 
70424 
70381 
70369 
70390 
70441 
70441 
70406 
70365 
70340 
70332 
70346 
70350 
70324 
70270 
70235 
70224 
70235 
70194 
70171 
70233 
70271 
70257 
70257 
70249 
70251 
70223 
70198 
70229 
70218 
70213 
70195 
70194 
70183 
70181 
70126 
70082 
70112 
70128 
70101 
70094 
70086 
70075 
70059 
70065 
70030 
70006 
69997 
69997 
70004 
69954 
69895 
69851 
69827 
69821 
69845 
69833 
69755 
69675 
69583 
69460 
69316 
69163 
68989 
68880 
68768 
68651 
68548 
68423 
68309 
68177 
68068 
67971 
67873 
67766 
67637 
67541 
67451 
67391 
67357 
67290 
67204 
67169 
67133 
67058 
66964 
66893 
66848 
66857 
66843 
66783 
66701 
66681 
66681 
66663 
66645 
66667 
66720 
66732 
66697 
66672 
66725 
66775 
66743 
66759 
66781 
66731 
66711 
66786 
66858 
66926 
66969 
67013 
67033 
67085 
67139 
67195 
67198 
67196 
67269 
67325 
67374 
67451 
67483 
67556 
67594 
67641 
67698 
67709 
67760 
67798 
67807 
67879 
67898 
67893 
67938 
67996 
68005 
68020 
68088 
68142 
68205 
68264 
68323 
68322 
68317 
68367 
68430 
68497 
68526 
68537 
68569 
68566 
68593 
68673 
68748 
68805 
68849 
68870 
68884 
68894 
68906 
68943 
68993 
69037 
69084 
69112 
69147 
69220 
69271 
69330 
69381 
69432 
69490 
69544 
69579 
69545 
69508 
69530 
69556 
69645 
69707 
69704 
69753 
69819 
69828 
69840 
69866 
69902 
69936 
69986 
70057 
70104 
70128 
70127 
70133 
70163 
70203 
70186 
70204 
70241 
70247 
70271 
70237 
70211 
70237 
70273 
70295 
70362 
70446 
70445 
70440 
70439 
70422 
70405 
70409 
70431 
70467 
70532 
70579 
70580 
70565 
70546 
70547 
70562 
70551 
70562 
70538 
70508 
70491 
70457 
70466 
70464 
70469 
70506 
70548 
70613 
70634 
70655 
70644 
70596 
70594 
70636 
70653 
70641 
70659 
70652 
70635 
70600 
70575 
70578 
70604 
70618 
70612 
70616 
70614 
70619 
70647 
70640 
70613 
70609 
70606 
70596 
70591 
70592 
70612 
70640 
70666 
70700 
70695 
70670 
70658 
70694 
70684 
70661 
70660 
70659 
70640 
70582 
70579 
70578 
70545 
70545 
70561 
70583 
70596 
70625 
70661 
70644 
70616 
70604 
70558 
70510 
70512 
70525 
70527 
70563 
70564 
70528 
70542 
70598 
70584 
70532 
70520 
70502 
70463 
70457 
70493 
70511 
70504 
70500 
70506 
70533 
70549 
70575 
70571 
70537 
70513 
70489 
70454 
70441 
70461 
70493 
70451 
70449 
70443 
70439 
70447 
70420 
70375 
70399 
70434 
70426 
70421 
70412 
70425 
70409 
70348 
70324 
70342 
70347 
70355 
70350 
70366 
70325 
70273 
70296 
70313 
70308 
70284 
70254 
70235 
70252 
70322 
70341 
70352 
70373 
70312 
70261 
70186 
70115 
70019 
69889 
69769 
69641 
69543 
69453 
69340 
69219 
69122 
69026 
68886 
68740 
68614 
68521 
68434 
68339 
68264 
68162 
68059 
67958 
67881 
67815 
67709 
67622 
67540 
67514 
67499 
67456 
67383 
67302 
67264 
67263 
67261 
67246 
67217 
67261 
67318 
67275 
67250 
67268 
67365 
67403 
67409 
67415 
67428 
67466 
67555 
67581 
67570 
67590 
67627 
67631 
67663 
67751 
67796 
67812 
67845 
67925 
68032 
68089 
68098 
68137 
68183 
68216 
68257 
68318 
68355 
68360 
68413 
68465 
68467 
68545 
68629 
68708 
68766 
68758 
68739 
68754 
68788 
68858 
68870 
68887 
68953 
68973 
68995 
69039 
69071 
69101 
69128 
69162 
69168 
69136 
69159 
69203 
69219 
69235 
69304 
69350 
69393 
69477 
69535 
69525 
69546 
69552 
69575 
69629 
69661 
69676 
69703 
69752 
69788 
69812 
69837 
69860 
69890 
69902 
69889 
69927 
69954 
69977 
70034 
70046 
70075 
70105 
70130 
70151 
70176 
70210 
70191 
70187 
70218 
70308 
70320 
70302 
70316 
70345 
70403 
70432 
70434 
70503 
70552 
70584 
70553 
70556 
70575 
70591 
70617 
70620 
70638 
70672 
70664 
70662 
70659 
70648 
70666 
70692 
70724 
70739 
70761 
70745 
70715 
70742 
70789 
70784 
70767 
70792 
70807 
70835 
70857 
70825 
70825 
70815 
70815 
70797 
70792 
70817 
70829 
70799 
70758 
70765 
70757 
70701 
70695 
70734 
70778 
70803 
70846 
70836 
70861 
70841 
70767 
70727 
70754 
70778 
70740 
70706 
70732 
70761 
70789 
70836 
70825 
70774 
70737 
70734 
70734 
70717 
70729 
70764 
70781 
70788 
70768 
70733 
70708 
70694 
70694 
70645 
70623 
70624 
70639 
70656 
70647 
70642 
70648 
70645 
70666 
70657 
70626 
70615 
70629 
70628 
70588 
70536 
70555 
70590 
70567 
70563 
70563 
70574 
70534 
70538 
70557 
70563 
70561 
70565 
70548 
70530 
70558 
70534 
70529 
70509 
70497 
70514 
70493 
70458 
70412 
70392 
70379 
70422 
70459 
70447 
70434 
70379 
70348 
70334 
70298 
70297 
70319 
70349 
70365 
70386 
70376 
70349 
70332 
70312 
70279 
70270 
70264 
70255 
70282 
70274 
70252 
70254 
70249 
70224 
70218 
70228 
70210 
70198 
70179 
70141 
70154 
70068 
69961 
69840 
69677 
69526 
69382 
69254 
69085 
68928 
68790 
68669 
68546 
68385 
68229 
68092 
67984 
67909 
67783 
67641 
67506 
67401 
67329 
67250 
67151 
67067 
66957 
66881 
66879 
66888 
66823 
66762 
66742 
66788 
66804 
66804 
66803 
66825 
66807 
66772 
66810 
66887 
66977 
67008 
67026 
67050 
67095 
67159 
67199 
67254 
67340 
67396 
67435 
67500 
67591 
67625 
67661 
67712 
67732 
67806 
67901 
67978 
68045 
68069 
68055 
68094 
68189 
68319 
68408 
68460 
68536 
68627 
68674 
68711 
68777 
68852 
68912 
68941 
69003 
69077 
69180 
69254 
69306 
69329 
69359 
69399 
69415 
69446 
69508 
69550 
69587 
69623 
69614 
69606 
69623 
69694 
69765 
69764 
69761 
69791 
69829 
69851 
69892 
69973 
70049 
70042 
70070 
70125 
70145 
70125 
70116 
70168 
70235 
70292 
70328 
70353 
70399 
70457 
70515 
70561 
70548 
70571 
70609 
70623 
70612 
70632 
70677 
70747 
70800 
70837 
70895 
70912 
70959 
71002 
71009 
71068 
71100 
71057 
71055 
71103 
71127 
71167 
71191 
71181 
71209 
71196 
71200 
71274 
71291 
71329 
71415 
71460 
71470 
71445 
71418 
71402 
71411 
71454 
71502 
71508 
71528 
71540 
71503 
71540 
71530 
71539 
71584 
71580 
71570 
71550 
71545 
71594 
71591 
71611 
71595 
71618 
71633 
71570 
71571 
71614 
71622 
71581 
71572 
71558 
71551 
71532 
71525 
71495 
71437 
71418 
71452 
71477 
71449 
71426 
71432 
71400 
71360 
71318 
71337 
71363 
71349 
71343 
71348 
71334 
71281 
71300 
71322 
71322 
71310 
71308 
71282 
71283 
71283 
71282 
71284 
71280 
71291 
71265 
71238 
71247 
71213 
71146 
71133 
71124 
71091 
71061 
71024 
70990 
70945 
70909 
70921 
70905 
70863 
70870 
70843 
70826 
70805 
70757 
70734 
70743 
70778 
70763 
70760 
70754 
70739 
70722 
70723 
70731 
70711 
70704 
70723 
70738 
70712 
70673 
70672 
70644 
70634 
70598 
70594 
70581 
70559 
70553 
70545 
70562 
70553 
70498 
70462 
70443 
70467 
70475 
70465 
70438 
70418 
70422 
70434 
70389 
70357 
70348 
70319 
70287 
70239 
70224 
70240 
70255 
70242 
70244 
70244 
70243 
70251 
70236 
70202 
70176 
70189 
70199 
70251 
70261 
70218 
70209 
70207 
70159 
70121 
70127 
70132 
70128 
70119 
70145 
70166 
70171 
70164 
70161 
70156 
70113 
70047 
70004 
69946 
69805 
69605 
69479 
69379 
69230 
69013 
68805 
68608 
68420 
68234 
68096 
67936 
67751 
67595 
67462 
67364 
67228 
67088 
66969 
66905 
66790 
66665 
66571 
66494 
66437 
66388 
66320 
66277 
66242 
66219 
66262 
66304 
66296 
66278 
66248 
66249 
66320 
66342 
66338 
66326 
66328 
66390 
66495 
66569 
66600 
66629 
66665 
66711 
66743 
66752 
66853 
66939 
67033 
67114 
67214 
67310 
67394 
67517 
67571 
67637 
67725 
67846 
67941 
68012 
68115 
68176 
68280 
68388 
68468 
68559 
68657 
68734 
68817 
68895 
68963 
69020 
69079 
69127 
69150 
69187 
69263 
69310 
69383 
69433 
69466 
69505 
69558 
69594 
69595 
69642 
69684 
69739 
69760 
69804 
69853 
69863 
69931 
69979 
70042 
70095 
70099 
70128 
70238 
70287 
70307 
70336 
70366 
70390 
70392 
70453 
70509 
70513 
70502 
70522 
70555 
70588 
70625 
70674 
70730 
70786 
70836 
70856 
70848 
70867 
70859 
70897 
70966 
71017 
71025 
71060 
71150 
71242 
71259 
71231 
71237 
71285 
71317 
71324 
71330 
71322 
71313 
71335 
71348 
71372 
71425 
71483 
71501 
71523 
71543 
71527 
71523 
71558 
71593 
71636 
71698 
71728 
71743 
71765 
71793 
71823 
71807 
71775 
71776 
71768 
71736 
71696 
71687 
71672 
71643 
71668 
71711 
71737 
71796 
71808 
71785 
71771 
71741 
71690 
71698 
71757 
71796 
71807 
71762 
71736 
71742 
71765 
71752 
71717 
71715 
71717 
71729 
71743 
71725 
71707 
71679 
71691 
71720 
71694 
71669 
71697 
71726 
71703 
71674 
71651 
71619 
71586 
71559 
71562 
71571 
71525 
71509 
71465 
71481 
71487 
71463 
71473 
71480 
71419 
71387 
71401 
71399 
71363 
71359 
71405 
71415 
71431 
71402 
71380 
71382 
71372 
71359 
71366 
71367 
71349 
71283 
71257 
71250 
71245 
71188 
71169 
71144 
71145 
71167 
71172 
71170 
71149 
71103 
71087 
71068 
71048 
71050 
71002 
70954 
70936 
70902 
70890 
70924 
70980 
70969 
70924 
70924 
70926 
70904 
70878 
70835 
70774 
70740 
70693 
70671 
70726 
70743 
70750 
70677 
70654 
70700 
70715 
70684 
70643 
70585 
70544 
70553 
70536 
70505 
70479 
70475 
70501 
70506 
70488 
70451 
70421 
70384 
70355 
70371 
70404 
70406 
70395 
70380 
70352 
70346 
70363 
70331 
70314 
70254 
70164 
70079 
69975 
69840 
69631 
69398 
69198 
68998 
68823 
68620 
68407 
68186 
67953 
67846 
67738 
67570 
67361 
67134 
66942 
66806 
66699 
66576 
66468 
66374 
66281 
66182 
66075 
66028 
65977 
65900 
65868 
65867 
65844 
65813 
65816 
65845 
65897 
65895 
65925 
65946 
65945 
65969 
66019 
66067 
66120 
66203 
66256 
66319 
66397 
66499 
66593 
66707 
66791 
66831 
66907 
66993 
67090 
67214 
67307 
67373 
67424 
67518 
67645 
67737 
67846 
67991 
68057 
68154 
68236 
68305 
68376 
68436 
68525 
68613 
68659 
68685 
68738 
68808 
68907 
68999 
69075 
69131 
69182 
69237 
69284 
69320 
69336 
69358 
69401 
69446 
69476 
69534 
69605 
69661 
69695 
69727 
69781 
69833 
69875 
69909 
69942 
69945 
69937 
69994 
70019 
70056 
70113 
70126 
70145 
70165 
70202 
70275 
70324 
70351 
70373 
70369 
70403 
70426 
70474 
70538 
70599 
70652 
70677 
70701 
70716 
70761 
70821 
70885 
70940 
70983 
70976 
70958 
70983 
71061 
71112 
71155 
71197 
71245 
71259 
71256 
71254 
71252 
71280 
71313 
71351 
71393 
71384 
71338 
71334 
71418 
71487 
71482 
71489 
71510 
71566 
71581 
71562 
71556 
71553 
71611 
71632 
71622 
71630 
71634 
71668 
71730 
71698 
71658 
71683 
71718 
71741 
71765 
71774 
71750 
71744 
71727 
71693 
71704 
71756 
71765 
71754 
71781 
71774 
71775 
71736 
71697 
71706 
71728 
71764 
71808 
71781 
71754 
71725 
71668 
71621 
71584 
71572 
71616 
71637 
71639 
71642 
71688 
71698 
71708 
71680 
71688 
71687 
71630 
71587 
71566 
71577 
71576 
71579 
71545 
71489 
71474 
71472 
71476 
71450 
71419 
71434 
71412 
71388 
71411 
71394 
71305 
71267 
71315 
71361 
71386 
71398 
71379 
71355 
71329 
71289 
71307 
71317 
71285 
71244 
71187 
71155 
71138 
71122 
71152 
71189 
71194 
71186 
71176 
71199 
71195 
71175 
71151 
71139 
71134 
71160 
71119 
71058 
71023 
70994 
70955 
70960 
70973 
70972 
70974 
70958 
70959 
70977 
70935 
70887 
70867 
70838 
70800 
70774 
70785 
70797 
70789 
70777 
70779 
70773 
70764 
70727 
70680 
70653 
70643 
70680 
70698 
70693 
70695 
70650 
70595 
70569 
70557 
70553 
70591 
70578 
70531 
70502 
70485 
70465 
70436 
70422 
70428 
70413 
70402 
70442 
70431 
70384 
70381 
70380 
70378 
70391 
70358 
70324 
70317 
70301 
70281 
70256 
70235 
70233 
70198 
70175 
70165 
70108 
70103 
70140 
70141 
70077 
69929 
69770 
69658 
69490 
69340 
69125 
68902 
68686 
68447 
68207 
67945 
67723 
67503 
67270 
67046 
66845 
66689 
66534 
66375 
66200 
66033 
65867 
65692 
65555 
65436 
65345 
65277 
65219 
65165 
65119 
65107 
65123 
65078 
65041 
65037 
65068 
65105 
65131 
65131 
65113 
65117 
65120 
65180 
65249 
65347 
65456 
65520 
65575 
65638 
65723 
65796 
65893 
65992 
66072 
66161 
66260 
66356 
66493 
66628 
66774 
66874 
66971 
67068 
67173 
67316 
67386 
67425 
67525 
67635 
67719 
67861 
67948 
68003 
68079 
68159 
68243 
68349 
68462 
68534 
68619 
68709 
68798 
68883 
68963 
69028 
69065 
69075 
69095 
69138 
69206 
69264 
69276 
69307 
69316 
69377 
69475 
69550 
69613 
69650 
69699 
69718 
69739 
69750 
69770 
69800 
69869 
69941 
69996 
70003 
70065 
70156 
70190 
70213 
70264 
70294 
70293 
70294 
70396 
70482 
70547 
70579 
70599 
70613 
70668 
70721 
70716 
70743 
70784 
70793 
70849 
70903 
70989 
71023 
71077 
71118 
71198 
71295 
71356 
71382 
71417 
71414 
71412 
71503 
71552 
71583 
71648 
71690 
71736 
71745 
71749 
71767 
71771 
71751 
71767 
71778 
71806 
71816 
71848 
71865 
71899 
71918 
71934 
71946 
71970 
72005 
72027 
72057 
72050 
72047 
72068 
72067 
72055 
72052 
72063 
72095 
72067 
72066 
72053 
72043 
72082 
72094 
72067 
72025 
72005 
71957 
71942 
71942 
71958 
71956 
71966 
71965 
71946 
71882 
71856 
71875 
71895 
71887 
71897 
71926 
71917 
71929 
71879 
71806 
71800 
71819 
71795 
71786 
71789 
71799 
71786 
71771 
71753 
71729 
71669 
71663 
71668 
71636 
71644 
71686 
71698 
71648 
71599 
71562 
71538 
71544 
71550 
71534 
71510 
71466 
71420 
71376 
71395 
71458 
71472 
71490 
71471 
71435 
71427 
71425 
71416 
71356 
71366 
71384 
71355 
71344 
71345 
71327 
71340 
71337 
71329 
71358 
71311 
71286 
71230 
71215 
71207 
71225 
71238 
71204 
71181 
71111 
71087 
71095 
71043 
71002 
71014 
71064 
71071 
71065 
71111 
71099 
71066 
71043 
71003 
70975 
70983 
70990 
70985 
70947 
70946 
70976 
70952 
70951 
70918 
70889 
70888 
70862 
70875 
70859 
70797 
70836 
70870 
70814 
70752 
70716 
70676 
70636 
70617 
70633 
70625 
70619 
70619 
70585 
70561 
70604 
70646 
70643 
70610 
70603 
70574 
70507 
70456 
70454 
70444 
70466 
70461 
70425 
70391 
70326 
70198 
70055 
69913 
69750 
69521 
69289 
69093 
68889 
68633 
68357 
68102 
67880 
67652 
67423 
67234 
67021 
66818 
66620 
66434 
66278 
66098 
65891 
65724 
65620 
65519 
65453 
65414 
65365 
65333 
65281 
65250 
65249 
65234 
65190 
65208 
65205 
65224 
65278 
65360 
65400 
65444 
65492 
65526 
65576 
65624 
65661 
65700 
65750 
65819 
65925 
66020 
66104 
66222 
66336 
66428 
66514 
66626 
66723 
66835 
66996 
67116 
67175 
67245 
67366 
67473 
67591 
67699 
67785 
67903 
67980 
68018 
68084 
68150 
68226 
68325 
68414 
68524 
68563 
68640 
68723 
68788 
68826 
68849 
68904 
68951 
68989 
69045 
69115 
69154 
69174 
69196 
69252 
69287 
69351 
69419 
69462 
69452 
69446 
69520 
69587 
69566 
69601 
69651 
69646 
69686 
69696 
69766 
69851 
69826 
69818 
69844 
69866 
69926 
70001 
70071 
70150 
70187 
70236 
70299 
70327 
70378 
70410 
70454 
70485 
70531 
70547 
70560 
70579 
70617 
70652 
70703 
70759 
70782 
70828 
70882 
70918 
70948 
71018 
71082 
71127 
71184 
71232 
71228 
71220 
71236 
71314 
71418 
71416 
71425 
71427 
71428 
71430 
71434 
71471 
71538 
71563 
71566 
71568 
71616 
71664 
71661 
71634 
71636 
71684 
71722 
71729 
71684 
71637 
71630 
71679 
71711 
71725 
71777 
71813 
71849 
71863 
71815 
71750 
71754 
71790 
71768 
71729 
71758 
71761 
71750 
71741 
71802 
71844 
71843 
71825 
71784 
71743 
71676 
71689 
71742 
71729 
71708 
71720 
71702 
71651 
71631 
71672 
71679 
71624 
71587 
71584 
71585 
71611 
71594 
71592 
71596 
71643 
71644 
71619 
71581 
71561 
71519 
71509 
71488 
71493 
71518 
71530 
71494 
71487 
71482 
71448 
71454 
71436 
71406 
71362 
71320 
71283 
71300 
71346 
71344 
71355 
71326 
71304 
71299 
71288 
71253 
71200 
71162 
71153 
71153 
71137 
71129 
71157 
71149 
71121 
71106 
71136 
71129 
71124 
71110 
71085 
71096 
71108 
71068 
71016 
70969 
70955 
70998 
70987 
70938 
70903 
70843 
70817 
70830 
70795 
70796 
70801 
70794 
70790 
70807 
70796 
70746 
70741 
70759 
70723 
70741 
70772 
70776 
70733 
70697 
70702 
70691 
70638 
70627 
70620 
70592 
70556 
70533 
70545 
70528 
70519 
70549 
70570 
70579 
70533 
70456 
70412 
70355 
70250 
70204 
70101 
69956 
69785 
69604 
69422 
69170 
68900 
68668 
68432 
68189 
67962 
67689 
67408 
67151 
66945 
66709 
66491 
66336 
66159 
65944 
65797 
65679 
65565 
65454 
65328 
65231 
65142 
65082 
65025 
64980 
64969 
64934 
64942 
64946 
64909 
64905 
64936 
64976 
65056 
65092 
65142 
65239 
65356 
65412 
65479 
65481 
65471 
65536 
65660 
65765 
65856 
65952 
66065 
66191 
66311 
66425 
66511 
66628 
66808 
66938 
67019 
67152 
67265 
67313 
67420 
67545 
67695 
67849 
67979 
68056 
68100 
68136 
68212 
68345 
68505 
68591 
68655 
68728 
68773 
68836 
68913 
68985 
69012 
69061 
69102 
69124 
69119 
69142 
69215 
69288 
69360 
69406 
69441 
69501 
69556 
69606 
69636 
69678 
69732 
69741 
69759 
69780 
69852 
69899 
69899 
69931 
70011 
70065 
70081 
70130 
70167 
70202 
70225 
70256 
70307 
70351 
70411 
70460 
70488 
70503 
70511 
70549 
70630 
70711 
70750 
70795 
70828 
70855 
70887 
70901 
70957 
71033 
71108 
71163 
71187 
71209 
71260 
71308 
71367 
71398 
71438 
71465 
71459 
71461 
71488 
71534 
71607 
71636 
71645 
71689 
71738 
71748 
71759 
71812 
71830 
71841 
71865 
71888 
71908 
71890 
71900 
71971 
72045 
72031 
72001 
72015 
72003 
71984 
71972 
71963 
72002 
72012 
72071 
72070 
72043 
72060 
72035 
72013 
72025 
72005 
71976 
71978 
72040 
72075 
72051 
72038 
71993 
71961 
71937 
71922 
71926 
71931 
71927 
71948 
71930 
71906 
71873 
71838 
71838 
71873 
71867 
71870 
71899 
71880 
71856 
71838 
71801 
71791 
71804 
71768 
71730 
71711 
71698 
71627 
71566 
71620 
71668 
71665 
71667 
71675 
71664 
71644 
71641 
71610 
71607 
71576 
71543 
71526 
71512 
71563 
71566 
71541 
71523 
71491 
71480 
71497 
71535 
71532 
71479 
71441 
71439 
71399 
71349 
71331 
71359 
71364 
71332 
71283 
71269 
71258 
71261 
71236 
71224 
71219 
71209 
71200 
71166 
71128 
71165 
71195 
71139 
71100 
71080 
71065 
71089 
71116 
71087 
71040 
71001 
70976 
70937 
70891 
70872 
70886 
70918 
70924 
70937 
70911 
70881 
70868 
70840 
70788 
70724 
70732 
70776 
70723 
70709 
70702 
70672 
70676 
70656 
70647 
70630 
70634 
70635 
70586 
70540 
70568 
70581 
70550 
70520 
70509 
70512 
70504 
70461 
70406 
70360 
70285 
70131 
69975 
69846 
69642 
69396 
69169 
68919 
68637 
68376 
68131 
67855 
67623 
67379 
67136 
66865 
66620 
66446 
66248 
66043 
65883 
65744 
65589 
65402 
65250 
65157 
65060 
64983 
64936 
64901 
64919 
64930 
64919 
64924 
64949 
65016 
65065 
65056 
65040 
65026 
65060 
65111 
65189 
65295 
65367 
65397 
65506 
65612 
65676 
65751 
65826 
65895 
65959 
66079 
66208 
66318 
66414 
66503 
66591 
66690 
66803 
66899 
67029 
67196 
67296 
67424 
67519 
67596 
67708 
67825 
67918 
67993 
68045 
68166 
68303 
68358 
68414 
68458 
68521 
68594 
68631 
68670 
68710 
68786 
68855 
68893 
68901 
68905 
68944 
68943 
68980 
69047 
69097 
69162 
69221 
69265 
69306 
69307 
69302 
69333 
69374 
69428 
69465 
69479 
69506 
69552 
69594 
69612 
69631 
69704 
69771 
69841 
69917 
69958 
70014 
70053 
70097 
70099 
70120 
70204 
70216 
70249 
70345 
70371 
70394 
70416 
70467 
70538 
70606 
70663 
70712 
70756 
70802 
70829 
70862 
70895 
70967 
71006 
70986 
71017 
71042 
71099 
71144 
71178 
71220 
71284 
71337 
71360 
71382 
71403 
71397 
71434 
71473 
71507 
71546 
71564 
71599 
71658 
71658 
71650 
71648 
71583 
71568 
71586 
71640 
71694 
71674 
71684 
71727 
71767 
71741 
71700 
71701 
71757 
71786 
71790 
71783 
71747 
71695 
71683 
71699 
71749 
71785 
71748 
71715 
71723 
71713 
71698 
71684 
71696 
71699 
71713 
71684 
71633 
71613 
71610 
71646 
71643 
71635 
71637 
71630 
71606 
71603 
71605 
71615 
71584 
71549 
71538 
71540 
71564 
71564 
71551 
71537 
71506 
71472 
71483 
71513 
71519 
71488 
71506 
71533 
71500 
71477 
71434 
71396 
71342 
71334 
71328 
71304 
71342 
71368 
71349 
71316 
71291 
71281 
71238 
71203 
71193 
71189 
71192 
71188 
71176 
71133 
71141 
71235 
71216 
71183 
71184 
71169 
71126 
71100 
71046 
71015 
71024 
71048 
70991 
70932 
70936 
70939 
70949 
70943 
70920 
70884 
70868 
70862 
70865 
70877 
70886 
70864 
70819 
70804 
70794 
70846 
70824 
70777 
70783 
70761 
70733 
70760 
70754 
70737 
70718 
70661 
70608 
70596 
70629 
70642 
70622 
70626 
70572 
70492 
70470 
70513 
70508 
70480 
70502 
70452 
70466 
70503 
70494 
70521 
70559 
70540 
70495 
70432 
70407 
70328 
70196 
70113 
70040 
69986 
69840 
69641 
69444 
69233 
69019 
68765 
68484 
68235 
68013 
67773 
67509 
67265 
67000 
66744 
66519 
66298 
66120 
65929 
65771 
65663 
65570 
65454 
65303 
65194 
65075 
64986 
64944 
64898 
64852 
64788 
64775 
64795 
64840 
64893 
64940 
64982 
65019 
65074 
65150 
65208 
65274 
65342 
65419 
65471 
65549 
65596 
65659 
65736 
65847 
65982 
66139 
66223 
66323 
66436 
66553 
66689 
66824 
66960 
67069 
67154 
67300 
67449 
67581 
67676 
67761 
67852 
67948 
68091 
68200 
68306 
68405 
68472 
68524 
68574 
68652 
68730 
68773 
68820 
68877 
68903 
68970 
69092 
69207 
69231 
69219 
69251 
69300 
69307 
69336 
69415 
69452 
69452 
69480 
69508 
69543 
69576 
69588 
69656 
69681 
69675 
69708 
69741 
69731 
69741 
69795 
69846 
69878 
69924 
69972 
69964 
69987 
70055 
70082 
70176 
70235 
70255 
70292 
70342 
70369 
70442 
70477 
70506 
70572 
70622 
70675 
70716 
70777 
70845 
70923 
70988 
70967 
71009 
71069 
71123 
71166 
71191 
71241 
71304 
71349 
71372 
71438 
71504 
71528 
71563 
71623 
71673 
71670 
71683 
71750 
71793 
71825 
71838 
71900 
71952 
71912 
71898 
71873 
71897 
71957 
71993 
72038 
72074 
72059 
72068 
72100 
72051 
72009 
72014 
72001 
71992 
72037 
72037 
72029 
72044 
72033 
72021 
72023 
72044 
72075 
72125 
72140 
72088 
72072 
72072 
72068 
72064 
72031 
72044 
72032 
72037 
72076 
72106 
72096 
72108 
72088 
72081 
72050 
72021 
72013 
72027 
72011 
71971 
71957 
71893 
71899 
71922 
71909 
71891 
71878 
71842 
71814 
71857 
71846 
71850 
71843 
71831 
71814 
71752 
71742 
71760 
71709 
71709 
71744 
71713 
71695 
71699 
71684 
71691 
71669 
71620 
71563 
71511 
71512 
71502 
71477 
71472 
71468 
71437 
71466 
71462 
71403 
71330 
71329 
71347 
71401 
71395 
71372 
71353 
71350 
71304 
71302 
71263 
71219 
71181 
71185 
71194 
71217 
71237 
71242 
71245 
71239 
71234 
71207 
71185 
71166 
71147 
71133 
71117 
71095 
71116 
71116 
71076 
71061 
71052 
71048 
71075 
71018 
71020 
71028 
70998 
70991 
71002 
70959 
70944 
70967 
70964 
70920 
70914 
70929 
70883 
70852 
70831 
70819 
70811 
70804 
70790 
70788 
70777 
70757 
70733 
70696 
70672 
70688 
70732 
70731 
70692 
70660 
70652 
70627 
70637 
70639 
70615 
70578 
70574 
70583 
70575 
70540 
70495 
70497 
70492 
70448 
70399 
70362 
70333 
70358 
70378 
70382 
70394 
70441 
70418 
70352 
70311 
70319 
70295 
70241 
70146 
70000 
69869 
69715 
69545 
69323 
69124 
68927 
68682 
68381 
68090 
67849 
67619 
67349 
67062 
66789 
66559 
66291 
66066 
65853 
65671 
65536 
65384 
65245 
65091 
64964 
64868 
64824 
64750 
64670 
64609 
64572 
64567 
64510 
64461 
64457 
64507 
64514 
64562 
64697 
64775 
64842 
64960 
65070 
65151 
65231 
65292 
65367 
65486 
65582 
65644 
65785 
65942 
66064 
66180 
66286 
66403 
66526 
66677 
66794 
66940 
67086 
67187 
67307 
67436 
67567 
67709 
67848 
67987 
68090 
68140 
68206 
68278 
68324 
68409 
68542 
68630 
68697 
68809 
68872 
68936 
69004 
69038 
69094 
69183 
69234 
69324 
69388 
69438 
69442 
69443 
69466 
69527 
69574 
69593 
69669 
69701 
69708 
69707 
69731 
69715 
69694 
69721 
69733 
69715 
69794 
69868 
69923 
69939 
69930 
69939 
69955 
69988 
70050 
70066 
70130 
70199 
70266 
70336 
70382 
70401 
70386 
70384 
70443 
70503 
70538 
70571 
70687 
70781 
70799 
70834 
70868 
70906 
70965 
71016 
71059 
71110 
71132 
71138 
71140 
71190 
71268 
71348 
71395 
71441 
71483 
71493 
71476 
71451 
71523 
71657 
71702 
71704 
71707 
71751 
71785 
71803 
71857 
71897 
71924 
71933 
71939 
71954 
71965 
71956 
71934 
71868 
71876 
71925 
71984 
71981 
72015 
72046 
72056 
72056 
72062 
72094 
72099 
72139 
72171 
72164 
72139 
72138 
72129 
72084 
72079 
72045 
72035 
72088 
72068 
72061 
72047 
72000 
72000 
71974 
71934 
71964 
71972 
71940 
71948 
71912 
71883 
71824 
71802 
71807 
71803 
71831 
71824 
71799 
71771 
71740 
71729 
71692 
71656 
71634 
71617 
71615 
71608 
71585 
71549 
71536 
71542 
71526 
71507 
71447 
71400 
71383 
71406 
71397 
71374 
71377 
71380 
71373 
71343 
71289 
71286 
71280 
71224 
71202 
71121 
71046 
71006 
70997 
71000 
71002 
71008 
70984 
70985 
70978 
70963 
70979 
70965 
70923 
70868 
70802 
70782 
70783 
70794 
70782 
70767 
70763 
70743 
70715 
70701 
70655 
70590 
70545 
70539 
70546 
70560 
70599 
70613 
70586 
70533 
70512 
70537 
70536 
70520 
70527 
70511 
70456 
70412 
70373 
70341 
70322 
70282 
70285 
70261 
70264 
70294 
70249 
70191 
70198 
70188 
70111 
70050 
69968 
69854 
69749 
69628 
69486 
69315 
69113 
68948 
68754 
68506 
68257 
67980 
67672 
67400 
67163 
66961 
66734 
66514 
66254 
66024 
65813 
65647 
65499 
65311 
65121 
64993 
64882 
64767 
64669 
64571 
64457 
64385 
64398 
64397 
64358 
64370 
64395 
64407 
64461 
64509 
64508 
64564 
64679 
64763 
64818 
64850 
64923 
65024 
65120 
65199 
65337 
65422 
65522 
65638 
65742 
65903 
66047 
66104 
66202 
66349 
66493 
66607 
66747 
66986 
67092 
67204 
67330 
67451 
67597 
67690 
67793 
67876 
67967 
68036 
68135 
68211 
68288 
68398 
68502 
68570 
68615 
68690 
68749 
68779 
68848 
68879 
68906 
68945 
68949 
68947 
68961 
68960 
68955 
68958 
68971 
69015 
69065 
69064 
69037 
69052 
69073 
69024 
69018 
69065 
69090 
69128 
69184 
69192 
69207 
69223 
69268 
69298 
69303 
69344 
69407 
69450 
69435 
69438 
69452 
69496 
69550 
69624 
69665 
69693 
69671 
69676 
69736 
69791 
69821 
69852 
69920 
70011 
70078 
70085 
70120 
70163 
70188 
70226 
70273 
70293 
70327 
70360 
70405 
70458 
70500 
70585 
70653 
70687 
70739 
70731 
70732 
70750 
70785 
70818 
70837 
70851 
70918 
70980 
71015 
70999 
71027 
71072 
71099 
71131 
71129 
71151 
71121 
71102 
71150 
71192 
71150 
71101 
71079 
71128 
71164 
71178 
71181 
71160 
71156 
71196 
71198 
71209 
71214 
71203 
71157 
71130 
71118 
71116 
71127 
71169 
71157 
71119 
71103 
71126 
71128 
71103 
71045 
71028 
71016 
71007 
70984 
71005 
71005 
70980 
70978 
70967 
70993 
71053 
71050 
71037 
71049 
71021 
70994 
70984 
70955 
70918 
70890 
70859 
70819 
70800 
70764 
70759 
70785 
70814 
70799 
70766 
70744 
70729 
70700 
70694 
70713 
70701 
70639 
70610 
70586 
70556 
70565 
70588 
70574 
70556 
70520 
70504 
70508 
70491 
70475 
70453 
70372 
70330 
70298 
70317 
70349 
70374 
70402 
70410 
70381 
70384 
70339 
70268 
70245 
70272 
70280 
70269 
70261 
70278 
70266 
70224 
70177 
70135 
70129 
70101 
70043 
70036 
70070 
70090 
70088 
70103 
70065 
70015 
70006 
70029 
69981 
69947 
69994 
70025 
70006 
69995 
69931 
69851 
69830 
69880 
69883 
69853 
69825 
69789 
69754 
69739 
69694 
69583 
69443 
69281 
69078 
68837 
68576 
68371 
68155 
67904 
67643 
67368 
67111 
66864 
66590 
66313 
66021 
65788 
65576 
65344 
65113 
64926 
64752 
64591 
64400 
64242 
64147 
64027 
63923 
63883 
63837 
63760 
63704 
63707 
63750 
63747 
63749 
63743 
63732 
63765 
63800 
63837 
63925 
64038 
64123 
64174 
64205 
64290 
64422 
64571 
64682 
64784 
64891 
64995 
65082 
65159 
65304 
65416 
65557 
65655 
65717 
65829 
66033 
66201 
66310 
66431 
66587 
66703 
66855 
67000 
67106 
67212 
67296 
67366 
67441 
67547 
67661 
67769 
67892 
68008 
68076 
68125 
68181 
68221 
68243 
68310 
68402 
68489 
68543 
68574 
68602 
68624 
68614 
68613 
68640 
68674 
68660 
68668 
68688 
68707 
68687 
68681 
68696 
68686 
68661 
68647 
68668 
68685 
68642 
68620 
68600 
68604 
68629 
68648 
68681 
68681 
68715 
68758 
68832 
68890 
68901 
68913 
68972 
69054 
69134 
69157 
69207 
69277 
69319 
69357 
69401 
69454 
69527 
69603 
69659 
69732 
69849 
69941 
69976 
70019 
70113 
70170 
70226 
70268 
70322 
70408 
70463 
70512 
70617 
70683 
70722 
70752 
70781 
70823 
70854 
70876 
70917 
71018 
71098 
71134 
71131 
71147 
71206 
71289 
71359 
71417 
71422 
71446 
71482 
71469 
71464 
71482 
71559 
71602 
71640 
71685 
71713 
71707 
71688 
71711 
71749 
71741 
71737 
71763 
71773 
71778 
71745 
71707 
71712 
71731 
71770 
71795 
71766 
71739 
71744 
71733 
71716 
71694 
71696 
71725 
71685 
71635 
71622 
71617 
71617 
71625 
71617 
71574 
71557 
71558 
71556 
71546 
71587 
71557 
71530 
71504 
71507 
71499 
71462 
71410 
71387 
71394 
71369 
71315 
71266 
71214 
71195 
71174 
71129 
71094 
71058 
71021 
71019 
71002 
70916 
70806 
70716 
70629 
70570 
70552 
70567 
70568 
70548 
70499 
70440 
70418 
70406 
70352 
70343 
70321 
70311 
70317 
70274 
70211 
70145 
70167 
70194 
70136 
70123 
70139 
70059 
70045 
70063 
70037 
70055 
70074 
70087 
70094 
70122 
70135 
70116 
70109 
70089 
70085 
70112 
70147 
70139 
70136 
70174 
70237 
70263 
70262 
70270 
70301 
70317 
70308 
70283 
70279 
70282 
70334 
70370 
70377 
70404 
70441 
70426 
70348 
70336 
70348 
70340 
70333 
70396 
70448 
70447 
70473 
70491 
70476 
70438 
70430 
70436 
70451 
70447 
70476 
70441 
70407 
70375 
70386 
70376 
70352 
70357 
70364 
70305 
70183 
70070 
69971 
69808 
69621 
69429 
69239 
69048 
68827 
68588 
68339 
68134 
67935 
67749 
67588 
67420 
67214 
66990 
66774 
66582 
66416 
66306 
66159 
66009 
65859 
65708 
65568 
65522 
65469 
65361 
65290 
65232 
65197 
65180 
65195 
65217 
65224 
65245 
65270 
65279 
65292 
65283 
65289 
65291 
65300 
65354 
65402 
65436 
65481 
65530 
65597 
65677 
65751 
65824 
65924 
65985 
66060 
66124 
66206 
66268 
66291 
66369 
66463 
66546 
66642 
66737 
66761 
66790 
66845 
66907 
66950 
67085 
67227 
67301 
67378 
67457 
67525 
67568 
67654 
67741 
67794 
67882 
67979 
68081 
68189 
68250 
68299 
68371 
68486 
68547 
68608 
68633 
68697 
68753 
68830 
68905 
68953 
69000 
69064 
69144 
69218 
69312 
69394 
69445 
69457 
69502 
69524 
69550 
69596 
69670 
69753 
69822 
69860 
69892 
69958 
70053 
70114 
70150 
70201 
70231 
70255 
70283 
70325 
70423 
70497 
70496 
70504 
70543 
70595 
70641 
70676 
70704 
70725 
70757 
70757 
70780 
70821 
70862 
70873 
70885 
70904 
70978 
70993 
71019 
71054 
71078 
71128 
71183 
71188 
71194 
71194 
71219 
71285 
71300 
71289 
71276 
71305 
71263 
71206 
71215 
71228 
71242 
71270 
71292 
71317 
71359 
71381 
71374 
71327 
71330 
71344 
71327 
71339 
71308 
71290 
71304 
71307 
71278 
71264 
71254 
71214 
71165 
71121 
71093 
71031 
70961 
70955 
70964 
70880 
70835 
70797 
70743 
70636 
70559 
70497 
70457 
70457 
70439 
70389 
70339 
70308 
70264 
70216 
70177 
70150 
70114 
70071 
70023 
70016 
69995 
69969 
69969 
69952 
69940 
69880 
69851 
69845 
69844 
69866 
69846 
69810 
69801 
69753 
69716 
69712 
69690 
69688 
69700 
69690 
69682 
69702 
69702 
69698 
69678 
69695 
69759 
69813 
69802 
69799 
69832 
69848 
69870 
69865 
69886 
69880 
69909 
69903 
69914 
69930 
69946 
69932 
69931 
69903 
69940 
69969 
69982 
70004 
69992 
69995 
69996 
69971 
70002 
70013 
70016 
70042 
70092 
70117 
70077 
70089 
70116 
70122 
70137 
70142 
70118 
70105 
70122 
70129 
70146 
70146 
70182 
70223 
70225 
70246 
70274 
70247 
70244 
70249 
70221 
70204 
70254 
70297 
70297 
70253 
70222 
70264 
70290 
70274 
70272 
70315 
70363 
70342 
70294 
70278 
70286 
70289 
70247 
70230 
70237 
70228 
70247 
70216 
70213 
70207 
70174 
70147 
70127 
70101 
70083 
70042 
70010 
69977 
69999 
69982 
69968 
69966 
69933 
69900 
69872 
69837 
69828 
69799 
69805 
69817 
69768 
69720 
69720 
69724 
69701 
69698 
69707 
69702 
69678 
69647 
69645 
69660 
69642 
69667 
69662 
69625 
69603 
69572 
69534 
69484 
69467 
69483 
69484 
69450 
69430 
69412 
69341 
69274 
69245 
69229 
69256 
69293 
69299 
69291 
69263 
69229 
69239 
69221 
69213 
69198 
69182 
69169 
69210 
69245 
69291 
69296 
69313 
69311 
69302 
69289 
69282 
69318 
69341 
69321 
69303 
69283 
69251 
69246 
69260 
69274 
69279 
69317 
69326 
69337 
69344 
69382 
69411 
69417 
69404 
69396 
69421 
69436 
69436 
69412 
69401 
69431 
69485 
69520 
69528 
69535 
69526 
69532 
69545 
69527 
69562 
69581 
69565 
69581 
69640 
69650 
69665 
69663 
69653 
69653 
69678 
69722 
69690 
69637 
69642 
69639 
69643 
69653 
69640 
69623 
69635 
69687 
69686 
69671 
69744 
69818 
69814 
69764 
69742 
69730 
69758 
69738 
69714 
69732 
69744 
69753 
69739 
69722 
69732 
69721 
69699 
69689 
69695 
69731 
69745 
69742 
69706 
69667 
69625 
69584 
69560 
69556 
69569 
69610 
69627 
69624 
69633 
69602 
69602 
69625 
69596 
69573 
69619 
69681 
69661 
69635 
69619 
69651 
69651 
69650 
69632 
69618 
69603 
69616 
69665 
69667 
69643 
69628 
69631 
69651 
69660 
69629 
69624 
69619 
69598 
69654 
69674 
69695 
69705 
69674 
69688 
69730 
69735 
69721 
69722 
69764 
69774 
69750 
69721 
69709 
69717 
69722 
69730 
69761 
69787 
69757 
69751 
69745 
69745 
69767 
69772 
69776 
69789 
69794 
69794 
69782 
69814 
69821 
69845 
69869 
69857 
69832 
69843 
69858 
69809 
69780 
69777 
69778 
69755 
69695 
69684 
69702 
69729 
69776 
69800 
69826 
69837 
69842 
69825 
69821 
69837 
69822 
69802 
69760 
69769 
69787 
69830 
69832 
69799 
69784 
69789 
69710 
69694 
69737 
69758 
69757 
69781 
69794 
69791 
69767 
69719 
69709 
69683 
69638 
69639 
69645 
69661 
69639 
69642 
69617 
69561 
69571 
69596 
69547 
69523 
69567 
69562 
69553 
69507 
69487 
69489 
69482 
69478 
69481 
69456 
69437 
69417 
69423 
69431 
69414 
69431 
69466 
69460 
69472 
69439 
69404 
69392 
69448 
69466 
69450 
69460 
69471 
69437 
69397 
69370 
69394 
69392 
69378 
69388 
69393 
69412 
69435 
69418 
69392 
69372 
69348 
69321 
69318 
69328 
69357 
69395 
69406 
69453 
69477 
69480 
69489 
69466 
69398 
69408 
69402 
69427 
69395 
69386 
69370 
69357 
69394 
69409 
69381 
69370 
69383 
69427 
69429 
69420 
69407 
69396 
69401 
69392 
69422 
69430 
69410 
69400 
69402 
69424 
69425 
69429 
69438 
69441 
69409 
69379 
69372 
69415 
69438 
69419 
69401 
69362 
69370 
69405 
69408 
69389 
69416 
69458 
69456 
69431 
69432 
69440 
69458 
69435 
69455 
69464 
69476 
69486 
69452 
69405 
69394 
69389 
69373 
69405 
69406 
69387 
69392 
69419 
69437 
69432 
69425 
69445 
69457 
69436 
69451 
69398 
69323 
69321 
69324 
69338 
69349 
69325 
69323 
69318 
69343 
69343 
69358 
69351 
69315 
69323 
69353 
69387 
69442 
69459 
69443 
