8229 
8175 
8244 
8308 
8278 
8211 
8245 
8299 
8292 
8314 
8399 
8481 
8499 
8458 
8485 
8510 
8529 
8443 
8354 
8264 
8264 
8230 
8220 
8270 
8304 
8255 
8230 
8283 
8324 
8271 
8224 
8282 
8336 
8299 
8231 
8268 
8311 
8341 
8255 
8256 
8316 
8337 
8280 
8264 
8290 
8318 
8319 
8283 
8308 
8351 
8312 
8277 
8298 
8380 
8349 
8288 
8326 
8352 
8349 
8284 
8320 
8394 
8396 
8315 
8340 
8419 
8438 
8384 
8380 
8447 
8466 
8406 
8413 
8397 
8259 
8319 
8354 
8414 
8455 
8458 
8409 
8461 
8495 
8473 
8419 
8409 
8438 
8422 
8338 
8313 
8337 
8324 
8296 
8289 
8303 
8327 
8266 
8238 
8274 
8303 
8269 
8220 
8279 
8345 
8309 
8247 
8275 
8313 
8288 
8253 
8260 
8325 
8305 
8277 
8263 
8315 
8355 
8279 
8267 
8303 
8330 
8291 
8274 
8327 
8500 
8513 
8418 
8380 
8395 
8390 
8310 
8286 
8381 
8355 
8284 
8299 
8349 
8352 
8310 
8300 
8332 
8348 
8290 
8256 
8332 
8339 
8336 
8292 
8325 
8342 
8340 
8310 
8331 
8374 
8350 
8300 
8314 
8321 
8314 
8274 
8270 
8322 
8338 
8259 
8231 
8297 
8308 
8288 
8243 
8292 
8341 
8300 
8331 
8424 
8496 
8501 
8521 
8544 
8591 
8552 
8488 
8469 
8393 
8330 
8251 
8240 
8311 
8341 
8290 
8265 
8299 
8324 
8279 
8255 
8284 
8332 
8320 
8283 
8307 
8328 
8308 
8276 
8321 
8364 
8318 
8276 
8291 
8357 
8365 
8296 
8305 
8344 
8363 
8347 
8322 
8360 
8408 
8325 
8286 
8335 
8434 
8414 
8364 
8369 
8435 
8428 
8399 
8408 
8474 
8484 
8430 
8439 
8491 
8512 
8460 
8446 
8525 
8592 
8504 
8293 
8312 
8446 
8443 
8440 
8469 
8509 
8487 
8439 
8419 
8435 
8435 
8342 
8378 
8409 
8399 
8337 
8302 
8347 
8392 
8346 
8319 
8359 
8381 
8330 
8299 
8356 
8372 
8329 
8303 
8323 
8374 
8372 
8302 
8318 
8364 
8367 
8312 
8344 
8400 
8404 
8333 
8338 
8406 
8416 
8321 
8313 
8363 
8407 
8553 
8543 
8496 
8487 
8438 
8382 
8368 
8382 
8398 
8345 
8397 
8436 
8420 
8346 
8380 
8415 
8420 
8368 
8353 
8397 
8422 
8355 
8351 
8397 
8429 
8385 
8335 
8392 
8461 
8435 
8393 
8426 
8438 
8426 
8362 
8373 
8418 
8407 
8369 
8351 
8417 
8422 
8370 
8342 
8396 
8433 
8389 
8364 
8442 
8546 
8567 
8540 
8649 
8689 
8665 
8600 
8627 
8633 
8530 
8369 
8375 
8436 
8443 
8400 
8409 
8459 
8460 
8402 
8402 
8457 
8468 
8423 
8433 
8465 
8492 
8453 
8403 
8464 
8493 
8473 
8416 
8465 
8488 
8500 
8451 
8465 
8517 
8488 
8467 
8477 
8494 
8543 
8496 
8506 
8551 
8582 
8519 
8483 
8522 
8578 
8569 
8551 
8589 
8615 
8603 
8557 
8582 
8595 
8625 
8595 
8600 
8676 
8676 
8593 
8402 
8490 
8620 
8588 
8572 
8644 
8671 
8615 
8579 
8622 
8633 
8577 
8536 
8537 
8553 
8490 
8441 
8490 
8523 
8507 
8429 
8444 
8527 
8542 
8438 
8431 
8521 
8520 
8457 
8420 
8452 
8515 
8487 
8440 
8456 
8498 
8460 
8447 
8494 
8530 
8505 
8452 
8460 
8492 
8521 
8468 
8472 
8519 
8514 
8571 
8711 
8672 
8628 
8538 
8452 
8518 
8583 
8510 
8461 
8517 
8574 
8536 
8485 
8500 
8523 
8500 
8446 
8490 
8525 
8491 
8444 
8457 
8502 
8542 
8529 
8469 
8507 
8535 
8487 
8446 
8481 
8525 
8494 
8435 
8465 
8510 
8478 
8435 
8470 
8498 
8483 
8432 
8468 
8570 
8626 
8596 
8603 
8725 
8751 
8656 
8647 
8675 
8662 
8524 
8412 
8457 
8522 
8493 
8426 
8470 
8504 
8479 
8451 
8503 
8500 
8507 
8429 
8466 
8550 
8552 
8470 
8486 
8545 
8549 
8493 
8415 
8519 
8583 
8568 
8504 
8529 
8594 
8538 
8519 
8585 
8606 
8564 
8529 
8538 
8629 
8601 
8577 
8586 
8628 
8627 
8560 
8586 
8646 
8694 
8627 
8600 
8702 
8725 
8688 
8646 
8681 
8762 
8727 
8685 
8654 
8508 
8596 
8636 
8665 
8692 
8701 
8649 
8615 
8661 
8673 
8608 
8592 
8602 
8602 
8550 
8525 
8520 
8588 
8539 
8486 
8531 
8562 
8562 
8494 
8515 
8540 
8534 
8490 
8487 
8567 
8555 
8464 
8485 
8559 
8592 
8526 
8478 
8563 
8588 
8521 
8471 
8507 
8597 
8586 
8473 
8476 
8614 
8797 
8696 
8622 
8645 
8595 
8546 
8525 
8566 
8579 
8526 
8493 
8547 
8584 
8515 
8486 
8509 
8539 
8509 
8474 
8492 
8530 
8500 
8431 
8487 
8566 
8516 
8461 
8450 
8485 
8546 
8466 
8459 
8508 
8501 
8448 
8393 
8442 
8471 
8433 
8384 
8408 
8440 
8444 
8379 
8420 
8472 
8437 
8391 
8447 
8500 
8543 
8548 
8592 
8652 
8670 
8618 
8594 
8684 
8678 
8568 
8440 
8472 
8492 
8423 
8394 
8456 
8489 
8465 
8420 
8430 
8490 
8471 
8421 
8460 
8496 
8473 
8424 
8442 
8522 
8500 
8441 
8402 
8465 
8505 
8438 
8432 
8489 
8518 
8469 
8430 
8490 
8523 
8475 
8432 
8463 
8505 
8485 
8428 
8435 
8519 
8538 
8506 
8491 
8539 
8537 
8511 
8498 
8563 
8619 
8582 
8545 
8588 
8649 
8527 
8297 
8449 
8547 
8557 
8533 
8585 
8628 
8622 
8587 
8572 
8623 
8602 
8544 
8519 
8520 
8538 
8491 
8476 
8468 
8496 
8434 
8407 
8438 
8484 
8447 
8408 
8478 
8469 
8460 
8437 
8452 
8493 
8482 
8449 
8451 
8484 
8506 
8450 
8438 
8521 
8490 
8438 
8450 
8498 
8518 
8447 
8420 
8510 
8546 
8502 
8641 
8711 
8641 
8564 
8514 
8528 
8575 
8543 
8482 
8478 
8546 
8555 
8471 
8485 
8507 
8528 
8484 
8480 
8506 
8531 
8465 
8447 
8479 
8503 
8509 
8500 
8512 
8569 
8539 
8462 
8476 
8551 
8565 
8480 
8481 
8554 
8564 
8499 
8493 
8510 
8564 
8516 
8522 
8574 
8615 
8525 
8518 
8562 
8562 
8542 
8502 
8504 
8547 
8562 
8515 
8498 
8539 
8559 
8507 
8511 
8558 
8579 
8572 
8634 
8697 
8747 
8780 
8780 
8809 
8810 
8805 
8754 
8689 
8632 
8529 
8518 
8565 
8588 
8564 
8525 
8554 
8585 
8592 
8566 
8547 
8577 
8570 
8561 
8542 
8594 
8618 
8563 
8525 
8555 
8609 
8581 
8527 
8589 
8602 
8580 
8558 
8561 
8602 
8647 
8616 
8594 
8604 
8617 
8594 
8592 
8608 
8623 
8602 
8610 
8628 
8650 
8662 
8632 
8681 
8721 
8693 
8650 
8663 
8736 
8743 
8557 
8477 
8646 
8721 
8701 
8712 
8767 
8763 
8717 
8737 
8775 
8774 
8703 
8681 
8696 
8714 
8666 
8584 
8636 
8680 
8626 
8557 
8595 
8661 
8623 
8560 
8545 
8638 
8600 
8594 
8606 
8625 
8636 
8618 
8600 
8621 
8660 
8600 
8558 
8637 
8657 
8594 
8572 
8631 
8647 
8635 
8589 
8604 
8648 
8657 
8698 
8841 
8844 
8784 
8696 
8658 
8675 
8697 
8662 
8637 
8657 
8677 
8627 
8591 
8656 
8698 
8643 
8594 
8598 
8663 
8681 
8617 
8614 
8638 
8647 
8628 
8628 
8628 
8670 
8650 
8622 
8666 
8679 
8644 
8633 
8653 
8649 
8613 
8587 
8632 
8654 
8645 
8615 
8653 
8692 
8675 
8610 
8635 
8674 
8652 
8603 
8619 
8667 
8658 
8611 
8602 
8632 
8656 
8626 
8588 
8603 
8643 
8629 
8594 
8706 
8801 
8808 
8806 
8877 
8939 
8882 
8821 
8862 
8872 
8756 
8602 
8586 
8630 
8656 
8623 
8604 
8665 
8669 
8638 
8628 
8643 
8665 
8635 
8599 
8623 
8689 
8672 
8631 
8626 
8661 
8644 
8625 
8611 
8650 
8663 
8637 
8641 
8687 
8698 
8659 
8659 
8705 
8692 
8668 
8645 
8685 
8715 
8678 
8676 
8720 
8759 
8727 
8672 
8688 
8721 
8787 
8763 
8774 
8800 
8809 
8776 
8786 
8814 
8645 
8616 
8702 
8763 
8796 
8797 
8765 
8807 
8869 
8819 
8755 
8784 
8800 
8814 
8730 
8736 
8741 
8720 
8679 
8678 
8712 
8695 
8669 
8640 
8674 
8700 
8637 
8631 
8688 
8696 
8677 
8646 
8683 
8730 
8689 
8677 
8689 
8710 
8684 
8650 
8684 
8763 
8734 
8691 
8670 
8711 
8744 
8702 
8717 
8723 
8747 
8718 
8806 
8996 
8896 
8781 
8720 
8760 
8802 
8771 
8723 
8736 
8784 
8762 
8729 
8719 
8759 
8793 
8730 
8749 
8797 
8805 
8751 
8744 
8787 
8766 
8740 
8727 
8769 
8783 
8753 
8698 
8707 
8723 
8687 
8657 
8671 
8709 
8700 
8649 
8654 
8716 
8688 
8628 
8620 
8676 
8720 
8699 
8767 
8846 
8876 
8895 
8883 
8905 
8908 
8892 
8794 
8747 
8655 
8568 
8580 
8604 
8657 
8665 
8620 
8604 
8645 
8633 
8578 
8593 
8630 
8668 
8628 
8590 
8607 
8628 
8606 
8580 
8621 
8646 
8617 
8598 
8599 
8622 
8628 
8590 
8606 
8664 
8641 
8583 
8626 
8662 
8675 
8634 
8617 
8638 
8664 
8640 
8620 
8663 
8703 
8652 
8623 
8686 
8720 
8688 
8695 
8735 
8769 
8769 
8721 
8724 
8767 
8732 
8491 
8562 
8682 
8718 
8699 
8691 
8729 
8723 
8674 
8644 
8654 
8654 
8604 
8563 
8578 
8636 
8589 
8518 
8530 
8592 
8577 
8533 
8543 
8572 
8569 
8496 
8487 
8558 
8555 
8537 
8520 
8567 
8595 
8532 
8503 
8543 
8603 
8546 
8510 
8542 
8580 
8561 
8502 
8509 
8570 
8566 
8678 
8803 
8729 
8663 
8581 
8567 
8635 
8609 
8574 
8556 
8604 
8632 
8566 
8531 
8570 
8580 
8546 
8532 
8545 
8588 
8550 
8513 
8527 
8575 
8579 
8521 
8519 
8558 
8566 
8546 
8521 
8599 
8624 
8583 
8569 
8583 
8581 
8562 
8515 
8561 
8567 
8519 
8489 
8512 
8572 
8559 
8512 
8519 
8581 
8575 
8534 
8525 
8605 
8682 
8667 
8701 
8792 
8830 
8785 
8733 
8754 
8740 
8687 
8578 
8542 
8584 
8569 
8517 
8524 
8602 
8613 
8520 
8538 
8582 
8565 
8549 
8541 
8558 
8593 
8560 
8525 
8577 
8610 
8556 
8549 
8547 
8636 
8584 
8543 
8563 
8573 
8597 
8583 
8582 
8617 
8595 
8569 
8612 
8661 
8652 
8591 
8593 
8638 
8641 
8598 
8614 
8671 
8674 
8658 
8654 
8707 
8748 
8722 
8685 
8699 
8759 
8713 
8466 
8554 
8676 
8718 
8696 
8682 
8720 
8731 
8689 
8705 
8705 
8707 
8646 
8641 
8669 
8673 
8607 
8549 
8599 
8625 
8589 
8566 
8566 
8596 
8598 
8546 
8529 
8572 
8589 
8545 
8568 
8599 
8612 
8587 
8550 
8581 
8608 
8571 
8560 
8593 
8645 
8608 
8574 
8602 
8626 
8619 
8580 
8620 
8885 
8798 
8711 
8681 
8700 
8667 
8612 
8624 
8646 
8637 
8626 
8607 
8643 
8623 
8603 
8603 
8636 
8613 
8621 
8593 
8614 
8664 
8624 
8581 
8609 
8642 
8660 
8603 
8578 
8646 
8651 
8557 
8575 
8626 
8621 
8561 
8574 
8635 
8665 
8632 
8622 
8640 
8662 
8625 
8588 
8615 
8653 
8608 
8568 
8588 
8637 
8613 
8574 
8573 
8611 
8650 
8598 
8619 
8659 
8687 
8727 
8759 
8824 
8884 
8851 
8808 
8836 
8868 
8797 
8675 
8643 
8652 
8664 
8590 
8620 
8677 
8675 
8638 
8633 
8661 
8660 
8635 
8631 
8676 
8680 
8611 
8622 
8686 
8710 
8642 
8632 
8659 
8702 
8685 
8644 
8684 
8708 
8696 
8661 
8672 
8717 
8734 
8680 
8684 
8741 
8733 
8666 
8682 
8748 
8763 
8709 
8700 
8739 
8773 
8748 
8758 
8762 
8812 
8801 
8798 
8796 
8845 
8766 
8559 
8671 
8763 
8779 
8773 
8794 
8853 
8880 
8824 
8821 
8839 
8827 
8766 
8744 
8767 
8774 
8763 
8687 
8721 
8749 
8682 
8643 
8675 
8737 
8723 
8668 
8649 
8702 
8715 
8675 
8661 
8712 
8710 
8656 
8661 
8691 
8719 
8703 
8677 
8718 
8728 
8683 
8677 
8707 
8745 
8762 
8702 
8690 
8739 
8755 
8820 
8940 
8892 
8843 
8773 
8723 
8766 
8794 
8757 
8709 
8739 
8758 
8767 
8738 
8752 
8774 
8732 
8692 
8734 
8776 
8747 
8692 
8706 
8783 
8785 
8703 
8733 
8729 
8774 
8722 
8703 
8756 
8772 
8736 
8729 
8768 
8782 
8739 
8716 
8760 
8814 
8792 
8740 
8752 
8779 
8740 
8689 
8741 
8791 
8766 
8714 
8716 
8754 
8752 
8697 
8719 
8758 
8770 
8743 
8760 
8858 
8965 
8980 
8972 
8972 
8990 
8984 
8967 
8928 
8859 
8782 
8719 
8724 
8803 
8788 
8731 
8741 
8781 
8783 
8735 
8742 
8765 
8808 
8788 
8738 
8766 
8832 
8767 
8741 
8798 
8836 
8795 
8753 
8781 
8826 
8787 
8750 
8791 
8843 
8829 
8810 
8786 
8827 
8870 
8810 
8799 
8851 
8879 
8855 
8829 
8853 
8905 
8863 
8840 
8860 
8886 
8921 
8880 
8928 
8983 
8968 
8931 
8933 
8847 
8761 
8849 
8881 
8938 
8967 
8944 
8954 
8989 
8974 
8928 
8899 
8904 
8934 
8896 
8824 
8856 
8895 
8882 
8802 
8790 
8838 
8817 
8785 
8814 
8822 
8836 
8783 
8767 
8835 
8851 
8799 
8774 
8796 
8827 
8809 
8776 
8812 
8848 
8835 
8763 
8815 
8881 
8862 
8786 
8803 
8873 
8878 
8842 
8816 
8848 
9030 
9045 
8938 
8931 
8940 
8878 
8839 
8876 
8880 
8836 
8829 
8861 
8876 
8842 
8845 
8854 
8885 
8855 
8787 
8818 
8870 
8873 
8822 
8820 
8865 
8866 
8843 
8837 
8885 
8883 
8830 
8820 
8836 
8872 
8842 
8796 
8802 
8854 
8831 
8769 
8772 
8841 
8818 
8784 
8821 
8842 
8855 
8860 
8906 
8982 
9034 
9052 
9057 
9086 
9094 
9060 
8976 
8937 
8869 
8795 
8783 
8825 
8875 
8867 
8807 
8807 
8870 
8875 
8832 
8818 
8860 
8881 
8851 
8852 
8875 
8877 
8845 
8835 
8877 
8888 
8845 
8807 
8877 
8909 
8866 
8845 
8861 
8910 
8933 
8893 
8900 
8935 
8936 
8871 
8899 
8945 
8957 
8935 
8940 
8985 
9004 
8941 
8928 
8991 
9028 
9005 
8969 
9008 
9056 
9079 
9042 
9073 
8995 
8844 
8924 
8983 
9060 
9088 
9013 
9022 
9069 
9065 
9002 
8952 
8985 
9006 
8967 
8928 
8939 
8923 
8911 
8879 
8892 
8926 
8910 
8885 
8906 
8920 
8891 
8873 
8881 
8914 
8909 
8866 
8860 
8934 
8930 
8886 
8876 
8889 
8909 
8908 
8889 
8918 
8931 
8890 
8887 
8912 
8924 
9056 
9133 
9036 
9029 
8986 
8935 
8917 
8936 
8983 
8912 
8908 
8962 
8964 
8927 
8912 
8938 
8963 
8917 
8895 
8901 
8925 
8911 
8874 
8915 
8977 
8942 
8881 
8924 
8964 
8946 
8875 
8904 
8952 
8966 
8936 
8892 
8945 
8981 
8941 
8929 
8963 
9031 
8987 
8944 
8962 
8993 
8972 
8920 
8933 
8976 
8956 
8893 
8904 
8971 
8974 
8894 
8897 
8991 
8989 
8926 
8931 
9078 
9134 
9085 
9121 
9192 
9189 
9153 
9112 
9153 
9120 
8994 
8891 
8915 
8982 
8988 
8932 
8945 
8970 
8958 
8901 
8928 
8976 
8984 
8945 
8954 
8987 
8989 
8974 
8954 
9009 
9026 
8971 
8942 
8992 
9013 
9001 
8975 
8994 
9006 
9012 
8991 
8979 
9015 
8999 
8981 
8982 
9035 
9058 
9027 
9007 
9038 
9058 
9055 
9026 
9076 
9128 
9094 
9048 
9081 
9129 
9110 
9050 
8889 
8953 
9034 
9036 
9062 
9120 
9125 
9100 
9114 
9162 
9186 
9095 
9091 
9135 
9117 
9054 
9031 
9050 
9054 
9020 
8980 
8998 
9001 
9016 
8976 
8985 
9007 
9003 
8993 
8985 
9003 
9026 
8981 
9013 
9031 
9036 
9003 
8961 
9024 
9066 
9000 
8988 
9046 
9071 
9069 
9046 
9054 
9092 
9060 
9022 
9040 
9119 
9331 
9197 
9135 
9177 
9138 
9079 
9093 
9130 
9126 
9072 
9058 
9094 
9103 
9072 
9055 
9079 
9117 
9081 
9051 
9071 
9091 
9071 
9028 
9062 
9124 
9098 
9062 
9057 
9081 
9087 
9068 
9057 
9087 
9117 
9054 
9024 
9104 
9105 
9071 
9049 
9095 
9135 
9106 
9082 
9101 
9129 
9074 
9029 
9030 
9082 
9101 
9043 
9040 
9059 
9061 
9039 
9044 
9083 
9065 
9016 
9034 
9082 
9203 
9226 
9201 
9292 
9370 
9318 
9241 
9280 
9319 
9234 
9106 
9073 
9080 
9086 
9056 
9033 
9075 
9113 
9083 
9050 
9098 
9101 
9077 
9052 
9078 
9118 
9087 
9049 
9083 
9120 
9098 
9075 
9094 
9120 
9134 
9057 
9071 
9104 
9103 
9086 
9104 
9116 
9156 
9107 
9094 
9151 
9181 
9121 
9093 
9148 
9180 
9150 
9110 
9175 
9225 
9199 
9159 
9197 
9251 
9272 
9226 
9226 
9284 
9102 
9028 
9128 
9201 
9226 
9231 
9245 
9261 
9284 
9250 
9237 
9270 
9284 
9210 
9157 
9197 
9203 
9178 
9129 
9101 
9140 
9125 
9082 
9098 
9136 
9131 
9073 
9063 
9134 
9123 
9093 
9067 
9116 
9144 
9112 
9080 
9119 
9146 
9102 
9051 
9103 
9155 
9124 
9054 
9138 
9163 
9162 
9108 
9095 
9161 
9147 
9248 
9365 
9298 
9251 
9198 
9160 
9171 
9182 
9167 
9140 
9125 
9181 
9181 
9133 
9134 
9160 
9158 
9148 
9147 
9168 
9137 
9144 
9133 
9173 
9190 
9129 
9128 
9142 
9186 
9139 
9122 
9170 
9186 
9164 
9142 
9195 
9231 
9200 
9149 
9159 
9180 
9176 
9122 
9156 
9204 
9175 
9128 
9137 
9168 
9176 
9147 
9149 
9176 
9196 
9161 
9162 
9290 
9368 
9344 
9356 
9414 
9420 
9372 
9344 
9327 
9275 
9175 
9097 
9134 
9221 
9205 
9150 
9142 
9211 
9235 
9175 
9140 
9211 
9231 
9172 
9137 
9200 
9233 
9207 
9164 
9189 
9205 
9183 
9186 
9209 
9234 
9234 
9192 
9188 
9236 
9256 
9206 
9206 
9268 
9274 
9214 
9205 
9274 
9295 
9254 
9222 
9255 
9304 
9303 
9267 
9326 
9371 
9348 
9282 
9293 
9374 
9400 
9362 
9364 
9395 
9349 
9101 
9207 
9350 
9355 
9329 
9330 
9375 
9409 
9362 
9308 
9335 
9345 
9307 
9244 
9263 
9279 
9247 
9194 
9204 
9240 
9238 
9205 
9181 
9213 
9237 
9213 
9209 
9243 
9248 
9221 
9193 
9203 
9243 
9242 
9206 
9217 
9257 
9264 
9206 
9222 
9240 
9268 
9202 
9229 
9285 
9282 
9245 
9253 
9278 
9244 
9240 
9446 
9501 
9404 
9320 
9269 
9292 
9316 
9285 
9234 
9249 
9298 
9278 
9237 
9267 
9300 
9279 
9228 
9241 
9308 
9304 
9234 
9224 
9281 
9290 
9220 
9221 
9278 
9296 
9266 
9240 
9271 
9301 
9267 
9212 
9233 
9292 
9236 
9207 
9238 
9270 
9257 
9216 
9211 
9242 
9245 
9233 
9225 
9248 
9318 
9349 
9394 
9438 
9510 
9506 
9445 
9454 
9508 
9443 
9313 
9266 
9264 
9236 
9219 
9231 
9301 
9272 
9213 
9217 
9282 
9292 
9236 
9257 
9278 
9290 
9247 
9226 
9291 
9337 
9298 
9230 
9259 
9315 
9282 
9254 
9283 
9298 
9321 
9272 
9277 
9345 
9322 
9280 
9296 
9327 
9312 
9277 
9287 
9361 
9376 
9319 
9275 
9358 
9416 
9356 
9347 
9383 
9426 
9417 
9378 
9407 
9472 
9461 
9349 
9167 
9308 
9396 
9371 
9381 
9452 
9495 
9413 
9406 
9448 
9455 
9404 
9363 
9372 
9379 
9326 
9279 
9296 
9341 
9321 
9226 
9250 
9309 
9363 
9285 
9269 
9310 
9315 
9254 
9276 
9315 
9328 
9278 
9258 
9314 
9333 
9276 
9234 
9273 
9349 
9327 
9309 
9311 
9358 
9350 
9309 
9331 
9343 
9370 
9559 
9512 
9473 
9429 
9359 
9338 
9395 
9384 
9336 
9314 
9371 
9386 
9340 
9309 
9354 
9369 
9359 
9318 
9359 
9359 
9341 
9293 
9331 
9359 
9355 
9324 
9328 
9349 
9374 
9337 
9332 
9368 
9343 
9275 
9289 
9371 
9406 
9346 
9301 
9339 
9379 
9331 
9304 
9329 
9385 
9383 
9335 
9386 
9422 
9385 
9357 
9333 
9333 
9372 
9308 
9297 
9342 
9334 
9298 
9310 
9340 
9356 
9314 
9331 
9310 
9332 
9387 
9326 
9426 
9555 
9529 
9514 
9556 
9571 
9536 
9490 
9481 
9445 
9393 
9287 
9272 
9296 
9319 
9318 
9310 
9333 
9320 
9341 
9308 
9329 
9367 
9327 
9293 
9326 
9359 
9333 
9296 
9336 
9370 
9343 
9303 
9336 
9358 
9333 
9319 
9330 
9350 
9352 
9345 
9318 
9370 
9386 
9357 
9316 
9378 
9403 
9391 
9377 
9395 
9405 
9425 
9381 
9368 
9423 
9450 
9423 
9455 
9478 
9483 
9259 
9208 
9365 
9443 
9437 
9454 
9469 
9510 
9477 
9462 
9483 
9538 
9504 
9427 
9465 
9457 
9445 
9411 
9355 
9386 
9389 
9322 
9309 
9374 
9354 
9304 
9305 
9314 
9373 
9309 
9278 
9330 
9356 
9331 
9304 
9312 
9333 
9335 
9277 
9311 
9345 
9333 
9288 
9299 
9357 
9327 
9286 
9306 
9365 
9366 
9297 
9310 
9350 
9410 
9523 
9485 
9452 
9450 
9380 
9354 
9376 
9390 
9357 
9315 
9332 
9379 
9373 
9326 
9339 
9351 
9355 
9311 
9335 
9363 
9350 
9343 
9328 
9327 
9400 
9346 
9305 
9368 
9409 
9366 
9324 
9340 
9387 
9363 
9318 
9319 
9349 
9345 
9305 
9360 
9414 
9421 
9371 
9374 
9405 
9399 
9374 
9345 
9367 
9369 
9332 
9315 
9337 
9382 
9366 
9304 
9330 
9374 
9340 
9300 
9327 
9387 
9460 
9483 
9503 
9572 
9610 
9546 
9502 
9535 
9570 
9452 
9297 
9290 
9344 
9324 
9308 
9340 
9364 
9319 
9291 
9297 
9366 
9342 
9321 
9307 
9379 
9375 
9303 
9324 
9366 
9371 
9329 
9310 
9342 
9351 
9328 
9312 
9362 
9395 
9363 
9319 
9363 
9403 
9374 
9345 
9345 
9389 
9388 
9351 
9378 
9393 
9394 
9370 
9393 
9443 
9465 
9416 
9394 
9472 
9522 
9477 
9444 
9505 
9548 
9496 
9312 
9236 
9412 
9443 
9426 
9495 
9534 
9501 
9467 
9488 
9508 
9478 
9449 
9429 
9447 
9435 
9375 
9350 
9359 
9362 
9356 
9305 
9353 
9402 
9370 
9315 
9353 
9397 
9355 
9317 
9339 
9382 
9372 
9337 
9372 
9386 
9385 
9337 
9332 
9394 
9438 
9374 
9357 
9396 
9401 
9361 
9348 
9395 
9439 
9411 
9366 
9392 
9413 
9382 
9518 
9662 
9563 
9513 
9437 
9423 
9460 
9471 
9422 
9410 
9450 
9442 
9394 
9391 
9408 
9445 
9391 
9369 
9414 
9422 
9392 
9389 
9418 
9445 
9389 
9358 
9405 
9448 
9426 
9400 
9392 
9436 
9451 
9374 
9340 
9397 
9419 
9366 
9364 
9393 
9419 
9394 
9370 
9382 
9426 
9400 
9374 
9400 
9445 
9500 
9516 
9562 
9636 
9684 
9606 
9580 
9647 
9598 
9475 
9390 
9392 
9414 
9394 
9386 
9424 
9443 
9400 
9365 
9405 
9461 
9425 
9376 
9411 
9455 
9437 
9397 
9427 
9454 
9436 
9409 
9423 
9444 
9453 
9401 
9426 
9456 
9477 
9455 
9430 
9439 
9481 
9450 
9426 
9462 
9463 
9430 
9412 
9467 
9521 
9492 
9451 
9458 
9535 
9522 
9482 
9501 
9537 
9586 
9527 
9532 
9593 
9580 
9365 
9289 
9419 
9521 
9552 
9545 
9567 
9600 
9562 
9535 
9565 
9558 
9556 
9477 
9473 
9507 
9480 
9434 
9412 
9428 
9422 
9353 
9366 
9398 
9415 
9416 
9401 
9403 
9404 
9364 
9343 
9379 
9416 
9449 
9374 
9369 
9394 
9416 
9376 
9364 
9423 
9432 
9374 
9403 
9435 
9447 
9374 
9362 
9430 
9538 
9683 
9551 
9508 
9533 
9505 
9466 
9462 
9485 
9440 
9395 
9460 
9470 
9426 
9370 
9405 
9441 
9428 
9380 
9373 
9431 
9457 
9414 
9359 
9420 
9468 
9424 
9382 
9401 
9442 
9408 
9349 
9380 
9435 
9405 
9367 
9389 
9417 
9426 
9398 
9410 
9432 
9444 
9385 
9398 
9458 
9438 
9391 
9369 
9404 
9412 
9380 
9354 
9382 
9415 
9407 
9374 
9385 
9397 
9450 
9465 
9535 
9584 
9659 
9644 
9611 
9621 
9641 
9574 
9484 
9446 
9406 
9360 
9365 
9403 
9422 
9385 
9369 
9399 
9397 
9387 
9342 
9399 
9458 
9440 
9388 
9403 
9468 
9436 
9397 
9382 
9434 
9438 
9379 
9401 
9420 
9434 
9405 
9381 
9409 
9458 
9435 
9389 
9406 
9459 
9471 
9422 
9465 
9511 
9490 
9451 
9447 
9486 
9492 
9446 
9475 
9537 
9527 
9489 
9503 
9555 
9572 
9556 
9507 
9560 
9609 
9580 
9525 
9580 
9474 
9326 
9389 
9468 
9547 
9521 
9451 
9438 
9486 
9476 
9386 
9374 
9423 
9439 
9365 
9351 
9379 
9404 
9390 
9346 
9366 
9415 
9390 
9339 
9377 
9397 
9377 
9375 
9383 
9419 
9403 
9370 
9365 
9410 
9406 
9376 
9389 
9409 
9414 
9393 
9384 
9412 
9402 
9362 
9370 
9395 
9436 
9475 
9638 
9576 
9541 
9486 
9441 
9455 
9471 
9433 
9387 
9420 
9470 
9453 
9381 
9382 
9412 
9417 
9387 
9378 
9405 
9434 
9406 
9384 
9403 
9444 
9399 
9361 
9422 
9442 
9424 
9365 
9380 
9430 
9417 
9374 
9376 
9438 
9476 
9440 
9403 
9422 
9450 
9421 
9384 
9421 
9420 
9399 
9388 
9397 
9418 
9390 
9368 
9423 
9432 
9408 
9404 
9406 
9465 
9556 
9551 
9573 
9689 
9706 
9626 
9595 
9642 
9660 
9506 
9417 
9425 
9448 
9441 
9397 
9427 
9466 
9444 
9388 
9396 
9460 
9456 
9414 
9442 
9472 
9449 
9408 
9393 
9458 
9477 
9401 
9404 
9481 
9503 
9429 
9415 
9463 
9479 
9469 
9422 
9459 
9511 
9464 
9454 
9473 
9515 
9489 
9430 
9481 
9521 
9496 
9463 
9480 
9540 
9558 
9531 
9527 
9557 
9611 
9550 
9543 
9598 
9613 
9598 
9579 
9605 
9661 
9623 
9580 
9637 
9691 
9638 
9583 
9590 
9592 
9582 
9530 
9524 
9542 
9476 
9188 
9263 
9358 
9397 
9365 
9344 
9413 
9440 
9405 
9366 
9398 
9423 
9422 
9369 
9400 
9464 
9427 
9371 
9376 
9436 
9446 
9398 
9389 
9424 
9443 
9398 
9397 
9444 
9475 
9423 
9397 
9445 
9465 
9427 
9403 
9431 
9435 
9437 
9397 
9408 
9473 
9442 
9407 
9422 
9459 
9423 
9386 
9416 
9466 
9464 
9396 
9370 
9433 
9448 
9408 
9370 
9410 
9459 
9421 
9560 
9664 
9610 
9528 
9463 
9458 
9485 
9470 
9432 
9427 
9455 
9439 
9399 
9431 
9444 
9489 
9466 
9438 
9478 
9467 
9444 
9384 
9433 
9467 
9414 
9401 
9402 
9431 
9420 
9375 
9383 
9461 
9433 
9383 
9392 
9435 
9466 
9515 
9569 
9588 
9640 
9624 
9594 
9629 
9652 
9552 
9447 
9395 
9405 
9383 
9370 
9441 
9474 
9415 
9374 
9401 
9458 
9435 
9375 
9401 
9432 
9427 
9385 
9396 
9437 
9467 
9424 
9389 
9428 
9456 
9428 
9421 
9437 
9477 
9455 
9412 
9445 
9477 
9477 
9403 
9439 
9510 
9504 
9455 
9418 
9483 
9505 
9443 
9472 
9503 
9505 
9491 
9500 
9511 
9544 
9526 
9507 
9558 
9600 
9595 
9556 
9591 
9607 
9615 
9591 
9596 
9633 
9609 
9555 
9575 
9620 
9589 
9519 
9504 
9538 
9530 
9461 
9459 
9460 
9457 
9388 
9373 
9433 
9445 
9419 
9393 
9396 
9443 
9420 
9369 
9372 
9423 
9413 
9365 
9407 
9447 
9385 
9370 
9379 
9398 
9410 
9372 
9366 
9435 
9466 
9404 
9384 
9407 
9423 
9407 
9350 
9385 
9448 
9446 
9401 
9381 
9426 
9441 
9381 
9374 
9434 
9451 
9398 
9361 
9394 
9395 
9371 
9354 
9380 
9419 
9392 
9339 
9355 
9413 
9381 
9344 
9418 
9459 
9407 
9347 
9356 
9400 
9391 
9349 
9357 
9412 
9403 
9394 
9354 
9407 
9395 
9377 
9343 
9391 
9435 
9369 
9313 
9360 
9400 
9388 
9341 
9339 
9376 
9374 
9344 
9340 
9404 
9409 
9419 
9485 
9564 
9600 
9575 
9577 
9585 
9601 
9536 
9459 
9439 
9384 
9362 
9345 
9368 
9406 
9377 
9344 
9392 
9421 
9395 
9355 
9373 
9408 
9405 
9352 
9380 
9425 
9415 
9378 
9372 
9386 
9398 
9360 
9336 
9394 
9440 
9411 
9361 
9404 
9451 
9415 
9370 
9391 
9420 
9445 
9388 
9412 
9444 
9441 
9411 
9406 
9468 
9493 
9424 
9412 
9485 
9500 
9475 
9465 
9515 
9548 
9498 
9489 
9542 
9585 
9544 
9534 
9544 
9581 
9582 
9533 
9537 
9572 
9559 
9503 
9477 
9472 
9462 
9417 
9390 
9406 
9435 
9375 
9338 
9350 
9381 
9385 
9351 
9337 
9384 
9359 
9299 
9328 
9364 
9351 
9318 
9327 
9377 
9400 
9332 
9333 
9384 
9375 
9350 
9308 
9363 
9401 
9369 
9339 
9365 
9400 
9377 
9314 
9329 
9359 
9378 
9337 
9364 
9425 
9404 
9356 
9337 
9369 
9352 
9345 
9342 
9355 
9366 
9334 
9331 
9368 
9379 
9348 
9297 
9318 
9380 
9370 
9315 
9318 
9358 
9378 
9321 
9321 
9366 
9370 
9294 
9283 
9352 
9360 
9322 
9308 
9394 
9379 
9312 
9290 
9368 
9406 
9357 
9328 
9353 
9370 
9368 
9321 
9346 
9392 
9403 
9336 
9329 
9327 
9348 
9312 
9302 
9334 
9334 
9296 
9279 
9329 
9345 
9302 
9268 
9317 
9352 
9325 
9276 
9356 
9465 
9468 
9465 
9523 
9556 
9503 
9468 
9486 
9485 
9377 
9283 
9281 
9295 
9309 
9269 
9275 
9339 
9339 
9280 
9271 
9316 
9359 
9303 
9266 
9315 
9349 
9309 
9270 
9283 
9348 
9336 
9278 
9313 
9339 
9323 
9284 
9268 
9333 
9362 
9317 
9302 
9355 
9343 
9303 
9270 
9328 
9397 
9364 
9318 
9364 
9409 
9387 
9305 
9379 
9432 
9418 
9395 
9422 
9455 
9451 
9408 
9416 
9458 
9502 
9459 
9451 
9490 
9518 
9476 
9467 
9480 
9513 
9511 
9467 
9463 
9486 
9455 
9395 
9384 
9412 
9377 
9316 
9307 
9326 
9326 
9276 
9275 
9295 
9325 
9268 
9276 
9314 
9320 
9289 
9276 
9297 
9331 
9293 
9239 
9267 
9337 
9317 
9275 
9287 
9318 
9312 
9279 
9251 
9303 
9324 
9261 
9287 
9284 
9306 
9302 
9274 
9274 
9324 
9302 
9291 
9332 
9344 
9305 
9266 
9256 
9329 
9338 
9284 
9287 
9298 
9325 
9287 
9284 
9326 
9349 
9309 
9268 
9311 
9334 
9286 
9292 
9310 
9322 
9309 
9301 
9311 
9364 
9338 
9292 
9310 
9342 
9318 
9276 
9308 
9344 
9350 
9335 
9306 
9378 
9371 
9328 
9302 
9343 
9370 
9314 
9295 
9335 
9319 
9288 
9235 
9242 
9308 
9274 
9263 
9286 
9337 
9297 
9275 
9285 
9314 
9315 
9314 
9387 
9463 
9516 
9496 
9467 
9472 
9510 
9457 
9418 
9362 
9296 
9259 
9229 
9274 
9336 
9284 
9242 
9283 
9310 
9299 
9231 
9226 
9279 
9317 
9249 
9259 
9295 
9302 
9246 
9270 
9285 
9318 
9289 
9264 
9318 
9324 
9295 
9252 
9274 
9324 
9311 
9268 
9294 
9316 
9324 
9291 
9304 
9340 
9360 
9309 
9323 
9345 
9363 
9330 
9343 
9413 
9420 
9393 
9367 
9411 
9456 
9409 
9417 
9443 
9495 
9479 
9429 
9431 
9487 
9499 
9456 
9445 
9476 
9480 
9411 
9382 
9402 
9395 
9355 
9343 
9353 
9332 
9308 
9262 
9301 
9340 
9290 
9252 
9248 
9291 
9310 
9228 
9262 
9310 
9293 
9233 
9247 
9282 
9309 
9253 
9222 
9284 
9319 
9268 
9243 
9290 
9327 
9293 
9242 
9274 
9298 
9282 
9251 
9277 
9356 
9295 
9242 
9273 
9295 
9302 
9280 
9273 
9310 
9286 
9237 
9267 
9298 
9294 
9279 
9233 
9263 
9319 
9281 
9230 
9306 
9331 
9257 
9225 
9278 
9288 
9309 
9247 
9256 
9304 
9285 
9252 
9233 
9282 
9331 
9249 
9246 
9316 
9318 
9296 
9279 
9316 
9342 
9307 
9263 
9292 
9347 
9309 
9264 
9313 
9341 
9307 
9259 
9282 
9302 
9277 
9232 
9251 
9307 
9294 
9246 
9194 
9262 
9302 
9283 
9237 
9268 
9316 
9339 
9358 
9413 
9499 
9517 
9475 
9467 
9451 
9492 
9386 
9289 
9245 
9245 
9214 
9233 
9273 
9317 
9261 
9243 
9281 
9291 
9267 
9221 
9295 
9328 
9275 
9247 
9254 
9284 
9303 
9245 
9278 
9314 
9278 
9243 
9276 
9323 
9303 
9266 
9279 
9310 
9305 
9273 
9254 
9324 
9343 
9303 
9287 
9299 
9321 
9318 
9300 
9306 
9363 
9363 
9330 
9361 
9390 
9364 
9350 
9360 
9415 
9418 
9404 
9421 
9469 
9485 
9463 
9443 
9475 
9499 
9453 
9425 
9441 
9484 
9443 
9398 
9390 
9389 
9380 
9321 
9319 
9335 
9311 
9286 
9280 
9308 
9298 
9262 
9253 
9269 
9274 
9245 
9235 
9234 
9284 
9247 
9211 
9252 
9271 
9251 
9236 
9272 
9289 
9290 
9232 
9231 
9290 
9288 
9261 
9267 
9269 
9278 
9236 
9236 
9258 
9291 
9282 
9238 
9267 
9302 
9248 
9241 
9268 
9279 
9277 
9241 
9265 
9296 
9289 
9243 
9255 
9287 
9277 
9238 
9228 
9279 
9274 
9225 
9225 
9266 
9306 
9256 
9193 
9271 
9285 
9231 
9230 
9301 
9323 
9286 
9241 
9276 
9325 
9300 
9241 
9263 
9315 
9274 
9265 
9279 
9296 
9289 
9263 
9246 
9258 
9255 
9217 
9220 
9230 
9262 
9225 
9183 
9234 
9264 
9238 
9212 
9239 
9300 
9306 
9297 
9404 
9465 
9479 
9459 
9459 
9498 
9491 
9398 
9322 
9289 
9270 
9184 
9167 
9241 
9307 
9263 
9233 
9262 
9319 
9270 
9212 
9255 
9283 
9283 
9230 
9262 
9322 
9305 
9238 
9245 
9320 
9323 
9245 
9236 
9293 
9351 
9295 
9270 
9343 
9363 
9308 
9258 
9309 
9373 
9302 
9249 
9289 
9351 
9323 
9283 
9328 
9392 
9375 
9300 
9309 
9409 
9447 
9359 
9341 
9435 
9477 
9414 
9368 
9443 
9496 
9459 
9400 
9465 
9557 
9485 
9396 
9409 
9503 
9504 
9415 
9395 
9446 
9421 
9310 
9280 
9360 
9367 
9273 
9232 
9317 
9348 
9271 
9206 
9305 
9345 
9282 
9235 
9272 
9337 
9304 
9240 
9243 
9313 
9282 
9227 
9249 
9332 
9313 
9249 
9252 
9304 
9341 
9270 
9238 
9308 
9354 
9272 
9240 
9298 
9360 
9304 
9246 
9273 
9330 
9275 
9250 
9276 
9368 
9336 
9239 
9218 
9318 
9343 
9236 
9241 
9311 
9308 
9256 
9204 
9255 
9291 
9257 
9202 
9292 
9336 
9275 
9221 
9260 
9318 
9292 
9220 
9269 
9338 
9324 
9234 
9246 
9323 
9328 
9261 
9238 
9303 
9354 
9289 
9267 
9278 
9299 
9264 
9241 
9255 
9293 
9257 
9164 
9241 
9316 
9258 
9158 
9213 
9288 
9258 
9219 
9259 
9353 
9422 
9387 
9388 
9498 
9520 
9432 
9397 
9454 
9481 
9308 
9159 
9189 
9272 
9274 
9207 
9207 
9310 
9291 
9202 
9226 
9301 
9305 
9224 
9217 
9315 
9310 
9246 
9235 
9285 
9337 
9254 
9217 
9282 
9328 
9275 
9213 
9274 
9327 
9289 
9212 
9307 
9365 
9351 
9271 
9301 
9356 
9349 
9260 
9283 
9365 
9351 
9297 
9291 
9365 
9410 
9357 
9335 
9391 
9448 
9406 
9355 
9429 
9489 
9472 
9373 
9435 
9519 
9503 
9408 
9435 
9491 
9532 
9432 
9410 
9458 
9446 
9352 
9331 
9374 
9401 
9307 
9249 
9281 
9336 
9294 
9249 
9284 
9328 
9275 
9200 
9231 
9295 
9272 
9223 
9240 
9304 
9277 
9226 
9236 
9266 
9282 
9217 
9177 
9287 
9322 
9268 
9225 
9272 
9327 
9263 
9199 
9252 
9328 
9300 
9207 
9219 
9301 
9289 
9220 
9264 
9338 
9310 
9224 
9224 
9323 
9362 
9276 
9244 
9309 
9343 
9270 
9233 
9265 
9338 
9313 
9244 
9271 
9284 
9257 
9168 
9224 
9283 
9266 
9175 
9180 
9291 
9261 
9204 
9183 
9241 
9270 
9203 
9208 
9295 
9394 
9374 
9340 
9421 
9505 
9460 
9395 
9439 
9463 
9335 
9175 
9169 
9245 
9268 
9212 
9202 
9283 
9293 
9206 
9187 
9229 
9311 
9227 
9198 
9275 
9303 
9230 
9204 
9265 
9317 
9263 
9223 
9264 
9332 
9293 
9226 
9250 
9311 
9277 
9223 
9255 
9343 
9329 
9264 
9280 
9329 
9327 
9279 
9273 
9308 
9372 
9332 
9311 
9346 
9392 
9353 
9336 
9360 
9445 
9426 
9345 
9394 
9484 
9483 
9408 
9417 
9511 
9520 
9420 
9434 
9508 
9505 
9418 
9369 
9388 
9460 
9396 
9306 
9365 
9391 
9326 
9243 
9265 
9344 
9310 
9239 
9239 
9308 
9307 
9233 
9234 
9293 
9329 
9250 
9216 
9304 
9330 
9254 
9227 
9284 
9316 
9314 
9235 
9266 
9358 
9313 
9249 
9283 
9342 
9335 
9257 
9265 
9341 
9365 
9290 
9286 
9341 
9376 
9328 
9344 
9394 
9419 
9381 
9335 
9352 
9425 
9378 
9352 
9378 
9416 
9386 
9346 
9374 
9439 
9407 
9321 
9345 
9391 
9403 
9342 
9348 
9406 
9421 
9367 
9340 
9426 
9445 
9357 
9329 
9396 
9439 
9367 
9317 
9376 
9447 
9386 
9325 
9373 
9426 
9426 
9347 
9378 
9423 
9434 
9347 
9391 
9462 
9463 
9414 
9369 
9432 
9477 
9402 
9369 
9445 
9476 
9409 
9343 
9365 
9425 
9402 
9335 
9353 
9386 
9408 
9325 
9344 
9412 
9420 
9343 
9348 
9471 
9468 
9470 
9489 
9570 
9629 
9596 
9531 
9598 
9639 
9553 
9442 
9421 
9418 
9411 
9364 
9382 
9450 
9425 
9339 
9367 
9435 
9458 
9395 
9378 
9467 
9470 
9394 
9383 
9441 
9468 
9441 
9371 
9444 
9486 
9441 
9400 
9439 
9491 
9473 
9410 
9428 
9524 
9495 
9416 
9441 
9506 
9522 
9446 
9438 
9517 
9543 
9460 
9444 
9538 
9569 
9507 
9488 
9532 
9607 
9567 
9511 
9574 
9633 
9596 
9538 
9550 
9653 
9652 
9591 
9590 
9650 
9666 
9622 
9606 
9635 
9654 
9559 
9530 
9600 
9634 
9544 
9485 
9511 
9543 
9478 
9417 
9462 
9504 
9470 
9393 
9440 
9513 
9482 
9414 
9408 
9483 
9462 
9429 
9424 
9455 
9515 
9444 
9381 
9488 
9531 
9480 
9390 
9454 
9515 
9457 
9418 
9473 
9510 
9478 
9413 
9446 
9500 
9519 
9428 
9412 
9486 
9529 
9466 
9419 
9495 
9515 
9481 
9460 
9504 
9528 
9502 
9458 
9487 
9505 
9480 
9420 
9454 
9527 
9520 
9424 
9414 
9511 
9552 
9474 
9459 
9529 
9549 
9478 
9470 
9539 
9574 
9481 
9484 
9550 
9563 
9536 
9494 
9532 
9588 
9542 
9463 
9513 
9573 
9553 
9478 
9474 
9529 
9496 
9440 
9464 
9531 
9532 
9457 
9434 
9503 
9549 
9484 
9458 
9540 
9702 
9687 
9648 
9728 
9789 
9743 
9675 
9720 
9712 
9609 
9459 
9465 
9520 
9549 
9483 
9470 
9553 
9582 
9501 
9465 
9538 
9572 
9475 
9500 
9561 
9595 
9564 
9499 
9533 
9587 
9567 
9468 
9513 
9597 
9584 
9511 
9516 
9598 
9609 
9517 
9508 
9592 
9612 
9549 
9537 
9610 
9615 
9578 
9533 
9608 
9677 
9642 
9571 
9634 
9674 
9665 
9615 
9651 
9727 
9717 
9640 
9679 
9741 
9767 
9710 
9692 
9776 
9779 
9745 
9708 
9773 
9793 
9731 
9686 
9722 
9760 
9699 
9618 
9625 
9697 
9631 
9546 
9565 
9633 
9613 
9523 
9537 
9597 
9597 
9525 
9509 
9584 
9580 
9480 
9232 
9357 
9477 
9469 
9442 
9509 
9552 
9532 
9465 
9491 
9585 
9558 
9490 
9506 
9589 
9601 
9520 
9525 
9583 
9590 
9542 
9509 
9582 
9604 
9563 
9525 
9563 
9624 
9569 
9485 
9543 
9608 
9585 
9524 
9579 
9613 
9561 
9521 
9553 
9605 
9589 
9617 
9838 
9784 
9747 
9643 
9590 
9633 
9657 
9583 
9522 
9613 
9670 
9610 
9557 
9587 
9647 
9637 
9549 
9576 
9675 
9653 
9581 
9605 
9680 
9681 
9622 
9596 
9652 
9663 
9590 
9543 
9627 
9647 
9589 
9556 
9606 
9673 
9614 
9546 
9634 
9718 
9652 
9572 
9645 
9777 
9839 
9788 
9817 
9916 
9891 
9784 
9794 
9844 
9789 
9637 
9573 
9629 
9655 
9641 
9581 
9690 
9721 
9664 
9593 
9625 
9694 
9664 
9629 
9657 
9695 
9684 
9619 
9610 
9724 
9725 
9631 
9623 
9689 
9743 
9657 
9634 
9694 
9729 
9678 
9642 
9697 
9761 
9719 
9655 
9677 
9751 
9716 
9676 
9681 
9758 
9761 
9678 
9699 
9811 
9821 
9721 
9741 
9822 
9836 
9764 
9754 
9833 
9882 
9826 
9795 
9860 
9922 
9868 
9816 
9852 
9904 
9866 
9810 
9821 
9869 
9849 
9732 
9719 
9769 
9762 
9674 
9652 
9709 
9739 
9636 
9628 
9674 
9589 
9374 
9451 
9547 
9654 
9599 
9569 
9611 
9678 
9648 
9576 
9591 
9687 
9706 
9617 
9617 
9663 
9666 
9627 
9632 
9700 
9733 
9648 
9614 
9705 
9739 
9665 
9636 
9675 
9703 
9654 
9610 
9691 
9729 
9703 
9608 
9614 
9692 
9735 
9622 
9619 
9721 
9908 
9886 
9744 
9749 
9784 
9699 
9642 
9700 
9762 
9711 
9658 
9724 
9732 
9709 
9670 
9709 
9773 
9719 
9649 
9666 
9728 
9739 
9656 
9655 
9705 
9697 
9627 
9610 
9656 
9687 
9638 
9604 
9645 
9670 
9631 
9573 
9644 
9726 
9658 
9580 
9599 
9704 
9698 
9674 
9773 
9837 
9877 
9840 
9819 
9847 
9871 
9778 
9671 
9638 
9629 
9587 
9585 
9623 
9678 
9660 
9611 
9640 
9690 
9642 
9580 
9619 
9688 
9634 
9631 
9644 
9686 
9689 
9608 
9621 
9666 
9704 
9653 
9632 
9688 
9728 
9663 
9642 
9686 
9760 
9683 
9607 
9726 
9796 
9727 
9640 
9696 
9759 
9732 
9656 
9693 
9776 
9781 
9717 
9717 
9783 
9811 
9751 
9766 
9846 
9883 
9813 
9771 
9852 
9905 
9853 
9792 
9843 
9922 
9892 
9819 
9829 
9878 
9851 
9771 
9748 
9805 
9808 
9698 
9676 
9735 
9711 
9430 
9378 
9533 
9612 
9593 
9547 
9578 
9669 
9664 
9589 
9624 
9649 
9643 
9590 
9597 
9682 
9636 
9590 
9611 
9669 
9667 
9610 
9621 
9653 
9730 
9660 
9622 
9668 
9706 
9659 
9583 
9639 
9735 
9657 
9618 
9650 
9708 
9692 
9640 
9647 
9712 
9686 
9608 
9641 
9716 
9710 
9625 
9615 
9695 
9719 
9869 
9876 
9834 
9819 
9712 
9656 
9690 
9737 
9697 
9622 
9654 
9727 
9728 
9675 
9657 
9729 
9748 
9636 
9674 
9742 
9729 
9687 
9660 
9714 
9743 
9688 
9672 
9700 
9727 
9671 
9617 
9665 
9712 
9668 
9614 
9635 
9669 
9648 
9591 
9643 
9673 
9673 
9598 
9612 
9671 
9738 
9737 
9776 
9845 
9915 
9869 
9832 
9877 
9930 
9833 
9707 
9667 
9663 
9635 
9600 
9651 
9711 
9660 
9601 
9626 
9695 
9668 
9611 
9627 
9684 
9701 
9640 
9614 
9683 
9697 
9653 
9613 
9674 
9725 
9668 
9611 
9660 
9704 
9679 
9608 
9656 
9725 
9714 
9649 
9681 
9742 
9705 
9652 
9680 
9724 
9747 
9682 
9655 
9744 
9763 
9731 
9702 
9783 
9816 
9755 
9745 
9808 
9846 
9800 
9788 
9829 
9904 
9861 
9780 
9808 
9897 
9896 
9812 
9793 
9839 
9843 
9777 
9739 
9771 
9772 
9638 
9387 
9541 
9617 
9577 
9567 
9633 
9651 
9606 
9565 
9602 
9672 
9688 
9586 
9591 
9653 
9632 
9613 
9583 
9668 
9701 
9598 
9575 
9643 
9687 
9643 
9558 
9612 
9725 
9642 
9562 
9617 
9665 
9662 
9610 
9634 
9696 
9681 
9599 
9599 
9681 
9689 
9619 
9580 
9668 
9698 
9605 
9615 
9942 
9908 
9770 
9687 
9706 
9749 
9687 
9620 
9649 
9692 
9682 
9609 
9649 
9722 
9706 
9630 
9639 
9701 
9707 
9616 
9619 
9674 
9692 
9653 
9631 
9698 
9739 
9665 
9617 
9662 
9709 
9699 
9654 
9694 
9717 
9659 
9616 
9631 
9678 
9658 
9586 
9588 
9658 
9648 
9599 
9603 
9643 
9643 
9617 
9598 
9683 
9766 
9776 
9767 
9826 
9916 
9874 
9813 
9864 
9901 
9830 
9677 
9628 
9656 
9655 
9610 
9612 
9656 
9651 
9603 
9624 
9671 
9698 
9672 
9627 
9647 
9689 
9651 
9594 
9641 
9712 
9657 
9612 
9662 
9716 
9700 
9619 
9638 
9673 
9693 
9640 
9643 
9739 
9729 
9626 
9633 
9733 
9757 
9671 
9645 
9715 
9765 
9730 
9691 
9728 
9776 
9748 
9711 
9724 
9825 
9799 
9734 
9756 
9840 
9877 
9793 
9793 
9878 
9881 
9819 
9774 
9882 
9936 
9848 
9797 
9851 
9886 
9818 
9575 
9432 
9613 
9615 
9566 
9618 
9659 
9639 
9595 
9628 
9678 
9668 
9589 
9617 
9685 
9663 
9599 
9591 
9639 
9681 
9636 
9578 
9659 
9700 
9632 
9597 
9631 
9673 
9658 
9597 
9655 
9720 
9681 
9607 
9638 
9697 
9708 
9639 
9649 
9668 
9680 
9629 
9636 
9676 
9716 
9658 
9604 
9662 
9928 
9939 
9776 
9760 
9781 
9731 
9656 
9690 
9748 
9702 
9612 
9647 
9737 
9720 
9619 
9621 
9669 
9672 
9618 
9554 
9616 
9646 
9567 
9499 
9559 
9617 
9542 
9493 
9530 
9611 
9569 
9505 
9522 
9603 
9582 
9511 
9523 
9587 
9566 
9477 
9464 
9536 
9546 
9462 
9441 
9503 
9532 
9483 
9462 
9519 
9549 
9510 
9439 
9492 
9606 
9652 
9597 
9645 
9788 
9787 
9683 
9680 
9765 
9705 
9526 
9421 
9485 
9533 
9502 
9469 
9526 
9555 
9496 
9438 
9511 
9567 
9527 
9447 
9480 
9560 
9563 
9477 
9492 
9586 
9555 
9490 
9501 
9556 
9571 
9514 
9449 
9560 
9574 
9515 
9482 
9549 
9590 
9567 
9469 
9519 
9608 
9587 
9529 
9558 
9628 
9589 
9539 
9571 
9641 
9653 
9576 
9602 
9690 
9682 
9596 
9618 
9699 
9692 
9650 
9658 
9709 
9748 
9698 
9655 
9722 
9766 
9732 
9663 
9675 
9733 
9676 
9323 
9326 
9528 
9549 
9463 
9468 
9547 
9542 
9477 
9475 
9537 
9560 
9452 
9418 
9508 
9583 
9497 
9426 
9515 
9562 
9538 
9468 
9466 
9546 
9522 
9452 
9498 
9569 
9543 
9483 
9481 
9558 
9555 
9487 
9477 
9566 
9577 
9522 
9489 
9555 
9588 
9542 
9494 
9539 
9573 
9556 
9472 
9491 
9687 
9872 
9679 
9633 
9660 
9606 
9539 
9550 
9570 
9609 
9519 
9482 
9592 
9614 
9555 
9488 
9566 
9612 
9566 
9498 
9566 
9624 
9573 
9508 
9543 
9639 
9621 
9517 
9543 
9603 
9606 
9545 
9510 
9594 
9581 
9474 
9486 
9555 
9570 
9523 
9475 
9522 
9596 
9524 
9458 
9513 
9579 
9530 
9491 
9555 
9648 
9703 
9631 
9698 
9836 
9827 
9692 
9654 
9741 
9717 
9542 
9440 
9538 
9576 
9500 
9457 
9564 
9615 
9544 
9481 
9524 
9599 
9567 
9508 
9533 
9590 
9584 
9501 
9528 
9607 
9609 
9544 
9536 
9580 
9607 
9543 
9517 
9589 
9609 
9541 
9557 
9613 
9653 
9599 
9541 
9581 
9629 
9617 
9553 
9611 
9667 
9644 
9585 
9582 
9714 
9701 
9634 
9634 
9691 
9722 
9648 
9654 
9755 
9797 
9733 
9700 
9764 
9808 
9729 
9690 
9780 
9832 
9812 
9690 
9660 
9496 
9502 
9482 
9556 
9631 
9620 
9539 
9533 
9592 
9585 
9512 
9513 
9562 
9614 
9560 
9505 
9582 
9623 
9562 
9507 
9547 
9577 
9576 
9494 
9530 
9622 
9604 
9539 
9526 
9570 
9603 
9530 
9519 
9602 
9630 
9554 
9535 
9616 
9642 
9554 
9530 
9591 
9616 
9616 
9514 
9573 
9625 
9596 
9538 
9560 
9637 
9678 
9821 
9754 
9737 
9714 
9622 
9573 
9611 
9644 
9584 
9574 
9621 
9674 
9609 
9523 
9596 
9656 
9601 
9534 
9548 
9640 
9614 
9548 
9574 
9659 
9619 
9533 
9593 
9632 
9640 
9599 
9576 
9640 
9660 
9587 
9541 
9621 
9663 
9581 
9522 
9566 
9603 
9571 
9499 
9551 
9595 
9547 
9511 
9520 
9592 
9625 
9542 
9525 
9586 
9664 
9693 
9685 
9758 
9850 
9755 
9681 
9751 
9818 
9675 
9527 
9526 
9569 
9510 
9464 
9511 
9580 
9560 
9481 
9509 
9580 
9543 
9498 
9534 
9592 
9581 
9532 
9517 
9621 
9639 
9567 
9523 
9608 
9648 
9603 
9592 
9649 
9675 
9608 
9575 
9640 
9692 
9659 
9604 
9647 
9707 
9726 
9648 
9654 
9739 
9761 
9699 
9700 
9764 
9809 
9765 
9724 
9806 
9883 
9794 
9775 
9842 
9891 
9873 
9812 
9867 
9961 
9937 
9851 
9889 
9963 
9940 
9891 
9862 
9661 
9718 
9741 
9716 
9827 
9842 
9753 
9713 
9782 
9809 
9767 
9698 
9731 
9803 
9784 
9696 
9711 
9827 
9784 
9699 
9731 
9805 
9794 
9729 
9714 
9789 
9822 
9743 
9697 
9781 
9832 
9759 
9749 
9823 
9821 
9759 
9720 
9777 
9835 
9808 
9753 
9775 
9839 
9817 
9729 
9760 
9827 
9822 
9748 
9763 
10024 
10090 
9898 
9855 
9888 
9896 
9818 
9781 
9838 
9860 
9795 
9750 
9803 
9860 
9813 
9737 
9778 
9862 
9841 
9765 
9778 
9839 
9854 
9786 
9745 
9830 
9892 
9810 
9776 
9866 
9852 
9836 
9794 
9856 
9889 
9837 
9776 
9803 
9831 
9811 
9741 
9768 
9825 
9798 
9732 
9761 
9818 
9838 
9716 
9711 
9812 
9823 
9785 
9778 
9909 
10007 
9975 
9948 
10042 
10082 
10009 
9961 
9963 
9941 
9821 
9699 
9736 
9835 
9841 
9759 
9772 
9855 
9846 
9776 
9754 
9839 
9861 
9828 
9789 
9846 
9890 
9818 
9772 
9824 
9882 
9820 
9745 
9833 
9889 
9838 
9806 
9839 
9901 
9879 
9816 
9844 
9905 
9889 
9830 
9832 
9887 
9913 
9837 
9810 
9863 
9920 
9885 
9831 
9932 
9972 
9934 
9889 
9934 
9975 
9991 
9921 
9970 
10043 
10039 
9946 
9964 
10070 
10072 
9928 
9688 
9791 
9894 
9855 
9876 
9931 
9984 
9913 
9818 
9859 
9925 
9865 
9782 
9805 
9871 
9843 
9783 
9793 
9851 
9814 
9742 
9764 
9838 
9841 
9764 
9756 
9818 
9860 
9834 
9762 
9811 
9874 
9787 
9736 
9843 
9897 
9834 
9773 
9814 
9853 
9851 
9792 
9789 
9857 
9853 
9786 
9787 
9839 
9847 
9800 
9808 
9908 
10159 
10012 
9904 
9928 
9954 
9867 
9799 
9848 
9908 
9852 
9788 
9827 
9894 
9829 
9748 
9826 
9890 
9879 
9822 
9814 
9879 
9868 
9779 
9798 
9877 
9893 
9852 
9797 
9873 
9911 
9847 
9797 
9877 
9915 
9856 
9755 
9796 
9876 
9839 
9747 
9771 
9838 
9833 
9764 
9770 
9840 
9864 
9780 
9735 
9824 
9852 
9803 
9834 
10012 
10046 
10016 
10020 
10055 
10064 
10033 
9942 
9883 
9860 
9777 
9731 
9782 
9854 
9844 
9773 
9792 
9844 
9883 
9806 
9764 
9814 
9880 
9820 
9765 
9836 
9871 
9844 
9792 
9817 
9882 
9821 
9787 
9822 
9871 
9858 
9791 
9796 
9900 
9874 
9799 
9832 
9895 
9912 
9849 
9834 
9899 
9935 
9867 
9815 
9883 
9911 
9890 
9859 
9927 
9985 
9947 
9883 
9923 
10010 
9999 
9937 
9989 
10050 
10043 
9949 
9979 
9980 
9747 
9776 
9831 
9940 
9990 
9919 
9868 
9901 
9926 
9867 
9828 
9855 
9885 
9836 
9769 
9809 
9864 
9825 
9772 
9786 
9826 
9846 
9748 
9747 
9843 
9850 
9761 
9748 
9793 
9834 
9833 
9758 
9817 
9856 
9809 
9759 
9800 
9882 
9844 
9743 
9781 
9878 
9881 
9796 
9823 
9888 
9857 
9780 
9764 
9857 
9920 
10100 
10000 
9986 
9992 
9899 
9832 
9874 
9926 
9859 
9777 
9815 
9912 
9834 
9760 
9795 
9895 
9890 
9801 
9821 
9883 
9896 
9834 
9813 
9850 
9888 
9820 
9822 
9872 
9913 
9846 
9806 
9868 
9918 
9884 
9805 
9881 
9964 
9876 
9770 
9812 
9874 
9847 
9748 
9763 
9852 
9887 
9804 
9780 
9831 
9843 
9796 
9811 
9840 
9892 
9854 
9862 
9960 
10071 
10058 
10032 
10063 
10115 
10095 
10016 
9968 
9945 
9887 
9794 
9808 
9880 
9899 
9844 
9837 
9906 
9924 
9833 
9824 
9886 
9944 
9886 
9832 
9903 
9965 
9896 
9841 
9884 
9937 
9912 
9864 
9885 
9977 
9980 
9864 
9893 
9953 
9972 
9863 
9865 
9957 
9989 
9918 
9896 
9987 
10023 
9944 
9884 
9970 
10031 
10014 
9961 
9983 
10054 
10030 
9994 
10023 
10097 
10129 
10039 
10031 
10110 
10033 
9764 
9840 
9985 
10062 
10029 
9989 
10067 
10123 
10078 
9993 
10040 
10083 
10040 
9929 
9956 
10004 
9986 
9893 
9918 
9975 
9941 
9863 
9874 
9944 
9950 
9896 
9872 
9935 
9981 
9918 
9890 
9925 
9989 
9951 
9872 
9931 
9980 
9943 
9898 
9923 
9995 
9997 
9881 
9922 
9994 
9974 
9926 
9915 
10004 
10025 
9971 
9897 
9969 
10032 
9972 
9921 
9979 
10038 
9974 
9938 
10226 
10266 
10132 
10032 
10032 
10079 
10025 
9940 
9980 
10024 
10052 
9966 
9929 
10035 
10064 
9984 
9947 
10036 
10046 
9981 
9934 
10018 
10058 
10007 
9951 
10011 
10070 
10005 
9971 
9991 
10050 
10075 
9997 
10001 
10033 
10049 
9965 
9940 
10028 
10024 
9929 
9920 
9982 
10020 
9960 
9889 
9954 
10030 
9985 
9925 
9999 
10079 
10105 
10078 
10180 
10303 
10272 
10168 
10175 
10211 
10215 
10046 
9947 
10008 
10043 
9989 
9943 
10017 
10034 
9947 
9939 
9991 
10021 
9975 
9961 
9997 
10057 
10024 
9956 
10008 
10041 
10039 
9977 
9987 
10063 
10075 
9999 
9987 
10059 
10074 
9990 
9977 
10059 
10070 
10010 
9956 
10068 
10131 
10046 
10010 
10067 
10107 
10107 
10013 
10034 
10148 
10150 
10072 
10093 
10154 
10160 
10118 
10107 
10194 
10230 
10157 
10122 
10097 
9914 
9979 
10016 
10128 
10212 
10161 
10115 
10161 
10208 
10138 
10041 
10069 
10164 
10111 
10012 
10011 
10062 
10045 
9980 
10001 
10056 
10062 
9991 
9969 
10028 
10075 
10000 
9953 
10024 
10065 
10002 
9945 
10010 
10087 
10057 
9962 
10006 
10103 
10088 
9997 
9983 
10044 
10064 
10034 
9993 
10039 
10086 
10032 
9977 
10051 
10117 
10065 
10008 
10051 
10152 
10369 
10243 
10196 
10209 
10153 
10056 
10095 
10148 
10125 
10042 
10036 
10130 
10136 
10058 
10045 
10093 
10158 
10086 
10037 
10118 
10148 
10110 
10050 
10117 
10158 
10123 
10056 
10124 
10177 
10164 
10093 
10100 
10172 
10165 
10129 
10124 
10196 
10194 
10120 
10071 
10135 
10177 
10139 
10099 
10147 
10195 
10159 
10105 
10135 
10218 
10201 
10101 
10171 
10300 
10337 
10300 
10347 
10458 
10450 
10328 
10347 
10398 
10361 
10229 
10120 
10170 
10236 
10157 
10107 
10195 
10240 
10231 
10187 
10223 
10270 
10241 
10195 
10206 
10262 
10248 
10191 
10205 
10272 
10263 
10199 
10222 
10296 
10294 
10198 
10195 
10268 
10307 
10219 
10234 
10297 
10320 
10266 
10201 
10268 
10359 
10296 
10227 
10247 
10337 
10337 
10283 
10276 
10359 
10380 
10282 
10295 
10391 
10408 
10351 
10332 
10386 
10437 
10378 
10346 
10446 
10334 
10105 
10179 
10285 
10392 
10375 
10292 
10356 
10419 
10382 
10284 
10281 
10309 
10316 
10239 
10212 
10279 
10286 
10193 
10169 
10243 
10261 
10211 
10160 
10233 
10282 
10242 
10176 
10209 
10265 
10238 
10161 
10196 
10273 
10260 
10171 
10212 
10280 
10276 
10190 
10168 
10246 
10293 
10253 
10198 
10257 
10274 
10232 
10181 
10260 
10315 
10285 
10201 
10224 
10327 
10277 
10190 
10263 
10329 
10301 
10220 
10462 
10645 
10509 
10345 
10302 
10355 
10364 
10319 
10252 
10285 
10313 
10245 
10163 
10230 
10289 
10269 
10181 
10212 
10307 
10280 
10203 
10201 
10286 
10289 
10228 
10263 
10401 
10453 
10393 
10402 
10511 
10503 
10403 
10390 
10400 
10343 
10188 
10134 
10244 
10306 
10263 
10175 
10212 
10297 
10270 
10164 
10202 
10286 
10278 
10197 
10186 
10274 
10265 
10224 
10211 
10285 
10298 
10233 
10198 
10259 
10302 
10227 
10199 
10265 
10314 
10289 
10223 
10260 
10303 
10269 
10210 
10236 
10335 
10325 
10238 
10261 
10315 
10356 
10296 
10299 
10371 
10385 
10345 
10334 
10398 
10430 
10387 
10337 
10405 
10479 
10437 
10381 
10408 
10486 
10468 
10369 
10361 
10260 
10186 
10208 
10246 
10313 
10329 
10240 
10204 
10262 
10301 
10228 
10172 
10261 
10304 
10227 
10166 
10214 
10256 
10235 
10162 
10218 
10270 
10240 
10188 
10209 
10277 
10276 
10167 
10180 
10272 
10272 
10201 
10193 
10273 
10305 
10245 
10223 
10252 
10307 
10250 
10186 
10266 
10316 
10310 
10490 
10483 
10446 
10402 
10280 
10292 
10318 
10342 
10233 
10220 
10303 
10306 
10238 
10218 
10285 
10301 
10254 
10225 
10291 
10325 
10261 
10183 
10248 
10324 
10275 
10199 
10262 
10311 
10284 
10219 
10224 
10277 
10290 
10185 
10219 
10297 
10332 
10260 
10239 
10312 
10361 
10279 
10204 
10278 
10347 
10279 
10237 
10310 
10344 
10301 
10220 
10205 
10297 
10291 
10192 
10216 
10286 
10294 
10221 
10197 
10266 
10321 
10223 
10208 
10295 
10368 
10383 
10369 
10425 
10542 
10494 
10423 
10457 
10497 
10422 
10242 
10219 
10305 
10297 
10204 
10238 
10297 
10295 
10209 
10225 
10274 
10298 
10243 
10223 
10298 
10342 
10271 
10187 
10283 
10343 
10278 
10205 
10276 
10336 
10298 
10231 
10265 
10351 
10299 
10235 
10283 
10340 
10360 
10307 
10280 
10321 
10370 
10306 
10260 
10332 
10366 
10322 
10278 
10346 
10413 
10387 
10329 
10347 
10435 
10411 
10359 
10406 
10483 
10477 
10385 
10400 
10339 
10216 
10250 
10298 
10409 
10445 
10395 
10349 
10430 
10469 
10372 
10306 
10383 
10446 
10364 
10287 
10309 
10365 
10317 
10248 
10243 
10301 
10326 
10240 
10237 
10300 
10333 
10275 
10225 
10297 
10326 
10274 
10227 
10281 
10333 
10287 
10213 
10269 
10335 
10313 
10247 
10281 
10309 
10294 
10268 
10263 
10344 
10339 
10253 
10253 
10330 
10341 
10260 
10289 
10624 
10620 
10455 
10339 
10372 
10421 
10344 
10259 
10323 
10392 
10345 
10266 
10297 
10354 
10311 
10276 
10292 
10335 
10330 
10263 
10280 
10341 
10381 
10301 
10279 
10347 
10395 
10324 
10272 
10327 
10387 
10339 
10277 
10331 
10400 
10365 
10280 
10267 
10322 
10329 
10253 
10239 
10299 
10304 
10274 
10252 
10306 
10342 
10280 
10226 
10309 
10376 
10297 
10260 
10420 
10527 
10497 
10450 
10535 
10603 
10536 
10483 
10490 
10469 
10371 
10239 
10239 
10351 
10360 
10275 
10252 
10375 
10401 
10300 
10245 
10330 
10385 
10328 
10279 
10337 
10395 
10328 
10284 
10346 
10405 
10360 
10290 
10335 
10395 
10384 
10299 
10305 
10387 
10403 
10328 
10309 
10395 
10426 
10376 
10325 
10406 
10462 
10398 
10328 
10386 
10463 
10418 
10344 
10411 
10476 
10456 
10425 
10459 
10497 
10516 
10482 
10466 
10549 
10571 
10506 
10412 
10250 
10352 
10369 
10378 
10478 
10517 
10443 
10393 
10448 
10483 
10428 
10339 
10370 
10413 
10411 
10338 
10317 
10382 
10385 
10296 
10296 
10380 
10405 
10302 
10281 
10385 
10418 
10351 
10312 
10386 
10430 
10346 
10281 
10359 
10426 
10399 
10311 
10352 
10430 
10421 
10353 
10356 
10438 
10440 
10372 
10356 
10431 
10442 
10368 
10544 
10730 
10653 
10507 
10426 
10474 
10506 
10429 
10359 
10438 
10491 
10436 
10383 
10415 
10475 
10457 
10339 
10365 
10452 
10480 
10381 
10379 
10458 
10476 
10392 
10353 
10461 
10491 
10429 
10378 
10445 
10500 
10455 
10384 
10416 
10498 
10471 
10398 
10412 
10500 
10492 
10401 
10412 
10462 
10460 
10389 
10358 
10419 
10473 
10386 
10365 
10418 
10458 
10421 
10355 
10436 
10477 
10428 
10389 
10512 
10618 
10595 
10568 
10663 
10710 
10667 
10617 
10598 
10595 
10473 
10372 
10369 
10444 
10500 
10431 
10388 
10488 
10523 
10424 
10385 
10434 
10479 
10459 
10402 
10453 
10518 
10470 
10421 
10435 
10488 
10507 
10409 
10427 
10514 
10536 
10450 
10423 
10512 
10528 
10471 
10452 
10535 
10546 
10519 
10454 
10503 
10574 
10536 
10471 
10513 
10583 
10572 
10486 
10524 
10610 
10619 
10549 
10545 
10620 
10674 
10599 
10572 
10672 
10706 
10609 
10575 
10653 
10703 
10666 
10589 
10445 
10422 
10484 
10468 
10527 
10596 
10593 
10483 
10485 
10555 
10527 
10434 
10439 
10479 
10531 
10448 
10418 
10501 
10531 
10444 
10410 
10475 
10516 
10444 
10405 
10475 
10490 
10495 
10451 
10486 
10566 
10545 
10449 
10474 
10556 
10550 
10466 
10478 
10521 
10520 
10467 
10451 
10529 
10553 
10500 
10455 
10521 
10559 
10515 
10454 
10496 
10516 
10561 
10792 
10743 
10708 
10630 
10555 
10572 
10600 
10587 
10520 
10515 
10588 
10581 
10514 
10489 
10570 
10574 
10518 
10486 
10559 
10612 
10560 
10497 
10539 
10594 
10566 
10528 
10523 
10592 
10581 
10505 
10489 
10571 
10587 
10468 
10459 
10530 
10539 
10471 
10446 
10520 
10560 
10476 
10457 
10490 
10551 
10491 
10430 
10505 
10640 
10681 
10628 
10698 
10798 
10783 
10666 
10645 
10710 
10660 
10480 
10420 
10502 
10541 
10509 
10439 
10518 
10556 
10480 
10490 
10511 
10553 
10510 
10458 
10508 
10593 
10563 
10442 
10487 
10594 
10601 
10487 
10490 
10569 
10572 
10498 
10447 
10522 
10599 
10541 
10497 
10552 
10593 
10553 
10503 
10547 
10600 
10530 
10481 
10575 
10632 
10616 
10516 
10557 
10620 
10637 
10565 
10577 
10654 
10648 
10614 
10610 
10679 
10722 
10647 
10625 
10682 
10744 
10717 
10650 
10686 
10746 
10703 
10627 
10677 
10686 
10637 
10587 
10572 
10364 
10318 
10341 
10399 
10480 
10490 
10454 
10446 
10509 
10548 
10482 
10388 
10485 
10547 
10502 
10429 
10470 
10521 
10501 
10448 
10468 
10533 
10540 
10439 
10442 
10553 
10552 
10452 
10436 
10541 
10562 
10490 
10447 
10552 
10585 
10486 
10434 
10530 
10578 
10518 
10585 
10814 
10771 
10667 
10534 
10559 
10609 
10575 
10486 
10486 
10560 
10537 
10492 
10481 
10532 
10538 
10490 
10465 
10505 
10544 
10458 
10460 
10560 
10607 
10505 
10463 
10531 
10569 
10531 
10448 
10489 
10582 
10560 
10462 
10475 
10574 
10559 
10483 
10453 
10530 
10534 
10446 
10415 
10494 
10521 
10442 
10389 
10480 
10563 
10473 
10405 
10469 
10549 
10472 
10436 
10570 
10718 
10721 
10663 
10666 
10726 
10738 
10675 
10585 
10592 
10533 
10416 
10408 
10478 
10539 
10466 
10390 
10475 
10543 
10496 
10430 
10458 
10531 
10526 
10415 
10456 
10533 
10523 
10457 
10458 
10505 
10513 
10452 
10455 
10512 
10546 
10493 
10469 
10549 
10555 
10483 
10431 
10498 
10587 
10561 
10452 
10512 
10556 
10558 
10463 
10503 
10587 
10582 
10506 
10518 
10616 
10668 
10586 
10572 
10614 
10642 
10621 
10587 
10657 
10721 
10664 
10598 
10675 
10727 
10678 
10611 
10667 
10700 
10655 
10604 
10604 
10649 
10604 
10499 
10490 
10350 
10256 
10305 
10341 
10422 
10472 
10395 
10354 
10444 
10517 
10461 
10377 
10439 
10506 
10447 
10389 
10434 
10470 
10437 
10389 
10451 
10503 
10491 
10436 
10401 
10493 
10520 
10452 
10429 
10482 
10525 
10466 
10414 
10479 
10516 
10449 
10417 
10451 
10531 
10470 
10392 
10436 
10512 
10490 
10410 
10426 
10488 
10482 
10423 
10425 
10731 
10771 
10627 
10521 
10545 
10566 
10502 
10432 
10496 
10569 
10513 
10439 
10496 
10529 
10518 
10463 
10469 
10550 
10536 
10456 
10460 
10548 
10540 
10464 
10443 
10529 
10542 
10461 
10410 
10475 
10527 
10455 
10396 
10433 
10515 
10454 
10394 
10458 
10509 
10456 
10420 
10435 
10489 
10573 
10579 
10595 
10700 
10770 
10657 
10623 
10716 
10711 
10588 
10469 
10473 
10522 
10459 
10384 
10466 
10522 
10475 
10404 
10457 
10541 
10510 
10410 
10433 
10520 
10545 
10450 
10452 
10537 
10544 
10443 
10422 
10508 
10557 
10485 
10440 
10510 
10554 
10510 
10431 
10514 
10580 
10538 
10464 
10513 
10576 
10562 
10501 
10500 
10607 
10608 
10508 
10494 
10583 
10624 
10568 
10532 
10624 
10678 
10633 
10569 
10637 
10690 
10648 
10632 
10677 
10733 
10705 
10641 
10696 
10748 
10716 
10642 
10643 
10688 
10697 
10599 
10555 
10612 
10624 
10533 
10461 
10557 
10579 
10469 
10436 
10517 
10561 
10508 
10443 
10479 
10570 
10518 
10446 
10471 
10532 
10533 
10426 
10460 
10542 
10555 
10459 
10423 
10527 
10568 
10490 
10455 
10531 
10590 
10519 
10452 
10530 
10559 
10515 
10460 
10502 
10573 
10537 
10475 
10517 
10578 
10535 
10429 
10476 
10566 
10548 
10483 
10444 
10533 
10592 
10498 
10433 
10519 
10593 
10511 
10445 
10512 
10566 
10532 
10455 
10504 
10556 
10529 
10471 
10475 
10552 
10580 
10510 
10512 
10551 
10548 
10455 
10459 
10549 
10585 
10466 
10427 
10490 
10544 
10505 
10413 
10510 
10576 
10520 
10446 
10478 
10574 
10585 
10565 
10609 
10758 
10820 
10732 
10678 
10748 
10799 
10648 
10542 
10535 
10540 
10479 
10426 
10514 
10584 
10521 
10486 
10497 
10550 
10529 
10447 
10487 
10588 
10572 
10487 
10519 
10598 
10581 
10501 
10496 
10578 
10567 
10495 
10490 
10549 
10589 
10547 
10469 
10538 
10627 
10560 
10507 
10551 
10620 
10584 
10520 
10560 
10631 
10626 
10536 
10573 
10636 
10655 
10567 
10572 
10665 
10713 
10608 
10577 
10692 
10744 
10655 
10631 
10736 
10791 
10757 
10673 
10729 
10782 
10750 
10680 
10692 
10749 
10717 
10612 
10632 
10678 
10633 
10550 
10537 
10606 
10589 
10506 
10519 
10581 
10602 
10511 
10470 
10544 
10573 
10563 
10474 
10513 
10588 
10563 
10477 
10499 
10570 
10586 
10514 
10522 
10599 
10601 
10523 
10501 
10588 
10609 
10545 
10502 
10604 
10618 
10572 
10544 
10590 
10617 
10582 
10527 
10576 
10626 
10616 
10543 
10569 
10637 
10613 
10559 
10567 
10627 
10625 
10569 
10550 
10647 
10659 
10564 
10539 
10630 
10677 
10585 
10517 
10615 
10654 
10581 
10519 
10542 
10619 
10582 
10497 
10526 
10610 
10606 
10504 
10520 
10600 
10615 
10538 
10511 
10595 
10712 
10702 
10674 
10768 
10874 
10822 
10729 
10806 
10826 
10686 
10513 
10509 
10612 
10613 
10519 
10543 
10647 
10655 
10529 
10523 
10627 
10639 
10555 
10509 
10606 
10681 
10616 
10556 
10621 
10677 
10610 
10532 
10580 
10658 
10649 
10567 
10610 
10677 
10645 
10516 
10593 
10686 
10689 
10602 
10618 
10698 
10706 
10616 
10614 
10674 
10707 
10651 
10608 
10709 
10771 
10699 
10635 
10715 
10803 
10766 
10707 
10731 
10821 
10818 
10761 
10776 
10850 
10874 
10782 
10757 
10814 
10858 
10775 
10713 
10789 
10804 
10703 
10629 
10689 
10736 
10650 
10568 
10617 
10702 
10655 
10568 
10610 
10671 
10647 
10537 
10557 
10638 
10660 
10581 
10570 
10644 
10668 
10590 
10536 
10624 
10669 
10586 
10547 
10631 
10697 
10626 
10568 
10616 
10679 
10661 
10569 
10590 
10673 
10653 
10574 
10591 
10663 
10694 
10592 
10551 
10639 
10691 
10591 
10577 
10653 
10682 
10603 
10545 
10609 
10679 
10643 
10585 
10611 
10645 
10614 
10531 
10567 
10684 
10681 
10599 
10571 
10630 
10682 
10587 
10582 
10651 
10667 
10612 
10558 
10642 
10694 
10661 
10599 
10640 
10690 
10640 
10567 
10596 
10653 
10635 
10576 
10601 
10654 
10623 
10572 
10593 
10619 
10639 
10569 
10575 
10688 
10806 
10764 
10768 
10864 
10907 
10862 
10788 
10835 
10869 
10724 
10591 
10597 
10672 
10660 
10570 
10611 
10686 
10666 
10570 
10557 
10664 
10689 
10632 
10573 
10658 
10692 
10590 
10564 
10643 
10708 
10659 
10598 
10664 
10709 
10652 
10565 
10619 
10695 
10679 
10586 
10645 
10710 
10705 
10628 
10642 
10700 
10703 
10620 
10597 
10704 
10765 
10673 
10633 
10719 
10797 
10754 
10678 
10726 
10805 
10792 
10700 
10763 
10860 
10835 
10732 
10761 
10854 
10861 
10759 
10733 
10857 
10900 
10792 
10743 
10828 
10824 
10755 
10670 
10719 
10754 
10690 
10601 
10651 
10705 
10671 
10598 
10644 
10699 
10673 
10598 
10591 
10671 
10682 
10623 
10594 
10677 
10703 
10623 
10582 
10650 
10687 
10627 
10573 
10641 
10720 
10674 
10596 
10660 
10717 
10656 
10552 
10617 
10724 
10693 
10594 
10615 
10703 
10696 
10623 
10602 
10676 
10701 
10603 
10595 
10661 
10718 
10673 
10567 
10647 
10715 
10661 
10589 
10638 
10690 
10641 
10565 
10635 
10739 
10706 
10582 
10591 
10686 
10684 
10614 
10596 
10672 
10689 
10647 
10574 
10655 
10727 
10674 
10624 
10668 
10716 
10640 
10595 
10631 
10681 
10653 
10579 
10615 
10678 
10671 
10602 
10613 
10676 
10667 
10595 
10603 
10676 
10756 
10779 
10764 
10885 
10945 
10901 
10831 
10867 
10940 
10853 
10696 
10649 
10705 
10666 
10589 
10624 
10718 
10716 
10618 
10629 
10697 
10720 
10654 
10629 
10693 
10733 
10624 
10601 
10696 
10741 
10667 
10618 
10690 
10762 
10671 
10585 
10668 
10754 
10734 
10649 
10658 
10747 
10738 
10673 
10689 
10752 
10788 
10684 
10653 
10727 
10797 
10730 
10706 
10759 
10817 
10787 
10719 
10769 
10845 
10819 
10745 
10810 
10900 
10903 
10822 
10835 
10905 
10935 
10855 
10839 
10924 
10940 
10840 
10794 
10880 
10920 
10815 
10747 
10783 
10839 
10773 
10678 
10726 
10788 
10728 
10655 
10659 
10731 
10740 
10656 
10663 
10746 
10740 
10656 
10638 
10708 
10758 
10674 
10627 
10702 
10739 
10697 
10627 
10694 
10745 
10706 
10630 
10691 
10761 
10713 
10647 
10674 
10773 
10782 
10694 
10666 
10737 
10754 
10668 
10636 
10739 
10780 
10690 
10645 
10713 
10761 
10692 
10623 
10695 
10770 
10722 
10632 
10654 
10740 
10752 
10660 
10673 
10743 
10740 
10638 
10632 
10731 
10761 
10686 
10662 
10714 
10760 
10646 
10638 
10725 
10764 
10688 
10637 
10704 
10764 
10730 
10647 
10694 
10789 
10786 
10666 
10676 
10745 
10756 
10649 
10626 
10713 
10700 
10659 
10656 
10708 
10759 
10681 
10641 
10723 
10764 
10697 
10651 
10774 
10905 
10889 
10823 
10913 
11007 
10944 
10845 
10864 
10887 
10792 
10630 
10622 
10752 
10754 
10676 
10654 
10710 
10758 
10718 
10650 
10730 
10791 
10725 
10652 
10716 
10777 
10756 
10661 
10662 
10791 
10804 
10683 
10705 
10783 
10791 
10698 
10679 
10791 
10808 
10743 
10685 
10759 
10813 
10754 
10704 
10766 
10825 
10784 
10700 
10735 
10836 
10845 
10759 
10798 
10863 
10863 
10782 
10792 
10901 
10921 
10851 
10833 
10913 
10962 
10872 
10830 
10923 
10998 
10951 
10861 
10902 
10981 
10941 
10860 
10855 
10929 
10877 
10763 
10761 
10808 
10805 
10745 
10736 
10770 
10795 
10731 
10682 
10755 
10788 
10706 
10669 
10733 
10799 
10724 
10681 
10739 
10815 
10758 
10671 
10702 
10788 
10757 
10649 
10670 
10808 
10815 
10714 
10731 
10807 
10802 
10723 
10699 
10754 
10798 
10752 
10684 
10738 
10827 
10784 
10699 
10729 
10790 
10778 
10698 
10689 
10777 
10796 
10724 
10728 
10767 
10785 
10690 
10675 
10766 
10810 
10733 
10677 
10761 
10824 
10754 
10690 
10750 
10823 
10769 
10675 
10721 
10779 
10772 
10682 
10726 
10823 
10816 
10738 
10724 
10783 
10787 
10724 
10670 
10765 
10795 
10725 
10693 
10783 
10826 
10747 
10678 
10732 
10799 
10792 
10693 
10748 
10886 
10931 
10870 
10922 
11063 
11044 
10913 
10904 
10997 
10983 
10801 
10701 
10760 
10774 
10735 
10719 
10792 
10844 
10802 
10707 
10753 
10828 
10798 
10705 
10775 
10855 
10822 
10726 
10763 
10842 
10825 
10747 
10754 
10847 
10841 
10731 
10726 
10821 
10879 
10809 
10737 
10827 
10845 
10790 
10748 
10811 
10861 
10818 
10746 
10790 
10897 
10867 
10761 
10786 
10882 
10897 
10810 
10831 
10882 
10937 
10858 
10825 
10921 
10990 
10948 
10888 
10940 
11003 
10956 
10884 
10935 
11003 
10946 
10869 
10934 
10962 
10934 
10809 
10797 
10885 
10872 
10760 
10745 
10810 
10837 
10761 
10720 
10799 
10831 
10743 
10654 
10751 
10865 
10779 
10711 
10771 
10824 
10756 
10676 
10716 
10794 
10767 
10712 
10688 
10766 
10791 
10678 
10665 
10761 
10767 
10715 
10641 
10727 
10776 
10701 
10625 
10710 
10779 
10725 
10641 
10686 
10768 
10727 
10650 
10646 
10733 
10743 
10670 
10632 
10703 
10768 
10676 
10649 
10730 
10746 
10663 
10612 
10716 
10746 
10698 
10615 
10695 
10755 
10710 
10627 
10647 
10734 
10727 
10681 
10707 
10786 
10771 
10660 
10686 
10775 
10771 
10684 
10652 
10746 
10795 
10735 
10679 
10746 
10799 
10719 
10668 
10752 
10821 
10776 
10704 
10726 
10811 
10760 
10660 
10698 
10774 
10787 
10708 
10684 
10757 
10769 
10706 
10669 
10748 
10782 
10726 
10673 
10732 
10864 
10927 
10873 
10936 
11016 
10988 
10881 
10914 
10986 
10919 
10742 
10711 
10799 
10795 
10685 
10676 
10764 
10826 
10736 
10679 
10727 
10795 
10722 
10688 
10768 
10825 
10767 
10684 
10755 
10821 
10805 
10735 
10731 
10792 
10824 
10733 
10725 
10828 
10833 
10733 
10687 
10797 
10861 
10784 
10724 
10808 
10862 
10799 
10729 
10814 
10889 
10838 
10768 
10814 
10899 
10873 
10794 
10846 
10930 
10928 
10795 
10804 
10954 
10996 
10895 
10879 
10985 
11033 
10925 
10888 
10984 
11041 
10996 
10896 
10932 
10985 
10929 
10839 
10852 
10895 
10862 
10764 
10758 
10838 
10836 
10744 
10708 
10809 
10842 
10759 
10717 
10772 
10813 
10750 
10706 
10780 
10843 
10772 
10692 
10740 
10816 
10774 
10685 
10722 
10817 
10781 
10693 
10735 
10814 
10781 
10699 
10706 
10776 
10830 
10737 
10713 
10791 
10832 
10759 
10672 
10753 
10850 
10777 
10680 
10774 
10826 
10833 
10738 
10750 
10814 
10796 
10691 
10702 
10806 
10815 
10736 
10716 
10789 
10805 
10731 
10693 
10766 
10844 
10742 
10696 
10753 
10846 
10774 
10699 
10750 
10822 
10780 
10686 
10747 
10841 
10823 
10747 
10703 
10791 
10830 
10744 
10724 
10807 
10876 
10809 
10721 
10775 
10845 
10795 
10737 
10825 
10881 
10777 
10688 
10758 
10841 
10812 
10728 
10697 
10786 
10804 
10731 
10700 
10763 
10817 
10743 
10706 
10781 
10810 
10758 
10821 
10949 
11012 
10983 
10946 
10958 
11015 
11050 
10908 
10833 
10852 
10818 
10719 
10735 
10790 
10810 
10754 
10724 
10793 
10848 
10754 
10705 
10773 
10847 
10782 
10722 
10764 
10851 
10801 
10693 
10764 
10880 
10842 
10759 
10755 
10825 
10845 
10761 
10765 
10838 
10862 
10784 
10765 
10847 
10894 
10834 
10762 
10828 
10903 
10844 
10762 
10843 
10893 
10866 
10821 
10885 
10941 
10930 
10886 
10872 
10981 
11004 
10897 
10905 
11032 
11035 
10962 
10942 
11013 
11071 
10976 
10912 
11001 
11054 
10965 
10883 
10940 
10997 
10933 
10826 
10858 
10903 
10874 
10741 
10779 
10869 
10856 
10754 
10722 
10829 
10867 
10792 
10727 
10790 
10856 
10791 
10724 
10823 
10889 
10824 
10738 
10778 
10857 
10812 
10709 
10766 
10840 
10823 
10728 
10767 
10846 
10858 
10778 
10748 
10816 
10868 
10788 
10742 
10807 
10856 
10788 
10729 
10797 
10845 
10806 
10732 
10774 
10836 
10835 
10757 
10735 
10833 
10841 
10753 
10731 
10810 
10843 
10762 
10744 
10824 
10854 
10764 
10688 
10793 
10844 
10769 
10721 
10787 
10851 
10792 
10726 
10744 
10825 
10853 
10755 
10748 
10847 
10845 
10748 
10749 
10858 
10900 
10811 
10750 
10820 
10845 
10796 
10776 
10817 
10850 
10794 
10711 
10768 
10854 
10809 
10710 
10732 
10822 
10774 
10701 
10750 
10838 
10816 
10750 
10734 
10795 
10921 
10887 
10863 
10992 
11049 
11010 
10933 
10978 
11040 
10941 
10764 
10744 
10806 
10781 
10711 
10740 
10845 
10848 
10747 
10717 
10846 
10869 
10747 
10751 
10822 
10846 
10791 
10760 
10850 
10861 
10778 
10755 
10797 
10866 
10827 
10752 
10790 
10871 
10836 
10751 
10784 
10871 
10887 
10793 
10787 
10881 
10898 
10819 
10799 
10872 
10909 
10850 
10789 
10884 
10979 
10916 
10844 
10882 
10961 
10958 
10899 
10932 
11001 
11000 
10903 
10926 
11034 
11042 
10966 
10945 
11016 
11056 
11008 
10905 
10991 
11040 
10921 
10878 
10931 
10946 
10877 
10779 
10808 
10881 
10838 
10747 
10790 
10848 
10824 
10739 
10742 
10822 
10844 
10766 
10722 
10814 
10849 
10751 
10715 
10783 
10811 
10762 
10718 
10799 
10865 
10798 
10716 
10754 
10844 
10812 
10729 
10773 
10837 
10854 
10760 
10738 
10835 
10855 
10741 
10727 
10821 
10840 
10756 
10743 
10796 
10837 
10765 
10727 
10774 
10844 
10800 
10709 
10752 
10827 
10815 
10737 
10736 
10832 
10812 
10730 
10714 
10816 
10834 
10764 
10737 
10803 
10863 
10781 
10721 
10797 
10883 
10804 
10696 
10766 
10894 
10860 
10743 
10800 
10877 
10840 
10758 
10766 
10844 
10810 
10742 
10736 
10789 
10800 
10735 
10724 
10759 
10801 
10741 
10722 
10784 
10832 
10781 
10728 
10834 
10941 
10961 
10928 
10989 
11075 
11016 
10932 
10941 
10970 
10899 
10734 
10701 
10803 
10814 
10756 
10720 
10804 
10876 
10787 
10698 
10787 
10861 
10806 
10720 
10766 
10836 
10812 
10733 
10780 
10857 
10873 
10762 
10768 
10858 
10841 
10808 
10776 
10848 
10879 
10829 
10758 
10825 
10882 
10848 
10766 
10839 
10926 
10881 
10809 
10841 
10911 
10877 
10830 
10869 
10968 
10965 
10884 
10876 
10982 
10988 
10910 
10891 
10983 
11034 
10986 
10923 
11009 
11059 
11011 
10961 
11011 
11061 
11002 
10927 
10937 
10993 
10967 
10874 
10864 
10937 
10893 
10802 
10790 
10873 
10887 
10807 
10745 
10792 
10873 
10805 
10747 
10794 
10862 
10813 
10723 
10766 
10859 
10817 
10746 
10786 
10875 
10841 
10761 
10753 
10844 
10855 
10779 
10769 
10855 
10865 
10516 
10430 
10641 
10787 
10738 
10659 
10742 
10821 
10772 
10713 
10743 
10827 
10838 
10734 
10766 
10851 
10840 
10754 
10735 
10811 
10848 
10762 
10742 
10813 
10884 
10809 
10741 
10808 
10848 
10791 
10735 
10786 
10835 
10809 
10741 
10754 
10837 
10824 
10722 
10756 
10859 
10865 
10780 
10762 
10860 
10891 
10793 
10762 
10850 
10916 
10848 
10775 
10830 
10876 
10843 
10788 
10836 
10888 
10861 
10791 
10833 
10890 
10856 
10748 
10776 
10856 
10865 
10745 
10760 
11012 
11212 
11042 
10930 
10951 
10966 
10909 
10830 
10912 
11062 
11075 
11004 
11055 
11148 
11116 
10975 
11000 
11077 
11003 
10850 
10805 
10899 
10921 
10838 
10801 
10888 
10934 
10851 
10837 
10884 
10930 
10871 
10791 
10871 
10942 
10899 
10851 
10886 
10942 
10904 
10814 
10872 
10945 
10939 
10847 
10842 
10934 
10957 
10879 
10862 
10920 
10977 
10902 
10857 
10944 
11008 
10964 
10884 
10913 
11023 
10964 
10893 
10960 
11051 
11012 
10949 
10972 
11054 
11080 
11012 
10984 
11086 
11130 
11041 
10993 
11094 
11148 
11100 
11055 
11093 
11144 
11138 
11022 
11062 
11126 
11075 
10958 
10973 
11051 
11037 
10915 
10918 
10982 
10985 
10891 
10849 
10920 
10981 
10907 
10853 
10921 
10992 
10907 
10851 
10893 
10962 
10932 
10831 
10897 
10927 
10600 
10577 
10698 
10814 
10844 
10796 
10802 
10914 
10957 
10873 
10863 
10945 
10953 
10861 
10845 
10917 
10963 
10926 
10847 
10911 
10964 
10933 
10862 
10905 
10968 
10952 
10870 
10877 
10957 
10949 
10878 
10852 
10940 
10971 
10897 
10871 
10934 
10979 
10929 
10871 
10927 
11000 
10930 
10864 
11159 
11309 
11153 
10999 
10997 
11060 
11038 
10932 
10938 
11015 
10994 
10929 
10900 
10994 
11048 
10954 
10904 
10980 
11027 
10957 
10908 
10980 
11047 
10998 
10938 
10970 
11044 
10991 
10900 
10911 
10972 
10976 
10888 
10877 
10963 
10972 
10922 
10892 
10950 
10982 
10926 
10904 
10954 
11046 
11062 
11016 
11101 
11216 
11233 
11117 
11117 
11218 
11174 
11027 
10940 
10980 
10970 
10897 
10909 
10987 
11015 
10927 
10864 
10964 
11041 
10963 
10882 
10941 
11052 
10986 
10896 
10958 
11042 
10984 
10882 
10926 
11030 
11027 
10947 
10930 
11008 
11014 
10967 
10933 
10995 
11044 
10962 
10930 
11019 
11078 
11020 
10944 
11015 
11092 
11018 
10972 
11011 
11087 
11104 
11019 
11039 
11132 
11134 
11049 
11072 
11165 
11168 
11113 
11130 
11212 
11215 
11139 
11112 
11198 
11250 
11190 
11141 
11183 
11227 
11138 
11064 
11110 
11142 
11083 
11019 
11062 
11093 
11061 
10969 
10949 
11023 
11040 
10985 
10917 
10996 
11045 
10967 
10931 
10821 
10685 
10744 
10741 
10855 
10963 
10934 
10839 
10870 
11003 
11010 
10880 
10895 
11011 
11027 
10928 
10902 
11001 
11074 
10947 
10881 
10988 
11061 
10996 
10909 
10989 
11049 
11001 
10907 
10941 
11022 
10994 
10924 
10947 
11023 
11052 
10926 
10913 
11019 
11049 
11105 
11279 
11229 
11192 
11066 
10999 
11064 
11081 
11039 
10985 
11018 
11089 
11024 
10945 
10980 
11051 
11043 
10950 
10983 
11077 
11069 
10968 
10974 
11053 
11076 
11012 
10957 
11030 
11098 
11027 
10963 
11020 
11085 
11034 
10944 
11006 
11046 
11029 
10933 
10955 
11049 
11033 
10926 
10938 
11045 
11036 
10952 
10946 
11028 
11062 
11006 
11029 
11150 
11168 
11191 
11196 
11231 
11255 
11211 
11135 
11126 
11080 
10989 
10905 
10951 
11063 
11049 
10967 
10970 
11041 
11062 
10972 
10948 
11017 
11059 
10968 
10903 
10981 
11040 
10980 
10896 
10933 
11022 
10983 
10906 
10936 
11018 
10975 
10902 
10927 
10992 
10980 
10884 
10897 
10978 
11004 
10925 
10902 
10947 
10992 
10937 
10884 
10960 
11004 
10955 
10919 
10965 
11053 
11038 
10951 
10986 
11095 
11074 
10995 
11027 
11129 
11116 
11010 
11020 
11083 
11116 
11065 
11026 
11081 
11123 
11066 
10980 
11020 
11065 
11006 
10884 
10928 
10968 
10921 
10835 
10865 
10910 
10624 
10506 
10614 
10767 
10795 
10722 
10741 
10834 
10856 
10799 
10742 
10822 
10878 
10806 
10739 
10813 
10865 
10863 
10772 
10807 
10928 
10883 
10759 
10802 
10918 
10893 
10802 
10791 
10892 
10891 
10798 
10790 
10877 
10929 
10833 
10794 
10861 
10910 
10865 
10800 
10829 
10895 
10905 
10802 
10815 
10911 
10904 
10793 
10807 
10882 
10908 
10868 
11159 
11138 
11062 
10954 
10898 
10944 
10986 
10898 
10829 
10889 
10962 
10893 
10832 
10865 
10936 
10917 
10825 
10881 
10962 
10925 
10838 
10843 
10910 
10940 
10871 
10798 
10904 
10920 
10824 
10760 
10837 
10902 
10809 
10764 
10821 
10880 
10821 
10734 
10788 
10854 
10858 
10768 
10824 
10990 
11012 
10932 
10984 
11070 
11072 
10973 
10958 
10976 
10939 
10765 
10707 
10806 
10864 
10802 
10743 
10772 
10828 
10779 
10703 
10758 
10822 
10830 
10727 
10737 
10836 
10837 
10753 
10764 
10834 
10823 
10750 
10739 
10807 
10849 
10776 
10724 
10791 
10898 
10826 
10765 
10852 
10882 
10878 
10784 
10821 
10912 
10928 
10826 
10861 
10968 
10974 
10926 
10938 
11027 
11091 
11009 
10990 
11110 
11165 
11127 
11095 
11193 
11254 
11207 
11166 
11194 
11301 
11275 
11196 
11241 
11355 
11336 
11246 
11242 
11319 
11326 
11223 
11184 
11258 
11304 
11194 
11141 
10952 
10905 
10978 
10964 
11069 
11183 
11153 
11093 
11143 
11229 
11238 
11124 
11154 
11274 
11268 
11181 
11206 
11279 
11304 
11218 
11180 
11256 
11341 
11243 
11190 
11276 
11346 
11296 
11207 
11257 
11348 
11313 
11227 
11265 
11352 
11356 
11248 
11258 
11302 
11352 
11287 
11278 
11342 
11342 
11278 
11262 
11317 
11343 
11290 
11388 
11662 
11626 
11489 
11344 
11380 
11450 
11389 
11294 
11306 
11377 
11365 
11288 
11260 
11357 
11379 
11306 
11278 
11361 
11390 
11306 
11287 
11343 
11380 
11345 
11280 
11344 
11414 
11363 
11303 
11325 
11390 
11381 
11301 
11289 
11358 
11357 
11264 
11264 
11355 
11372 
11249 
11217 
11325 
11343 
11267 
11237 
11307 
11363 
11314 
11294 
11428 
11549 
11537 
11457 
11493 
11549 
11529 
11438 
11406 
11435 
11382 
11255 
11251 
11328 
11356 
11297 
11232 
11303 
11364 
11301 
11249 
11285 
11385 
11324 
11218 
11269 
11379 
11361 
11263 
11267 
11381 
11388 
11270 
11259 
11354 
11377 
11289 
11261 
11355 
11394 
11304 
11265 
11355 
11398 
11332 
11285 
11356 
11421 
11375 
11303 
11356 
11425 
11412 
11333 
11332 
11401 
11442 
11373 
11355 
11477 
11511 
11435 
11435 
11497 
11549 
11477 
11445 
11500 
11558 
11529 
11443 
11502 
11555 
11541 
11431 
11439 
11518 
11481 
11335 
11334 
11421 
11144 
10965 
11068 
11190 
11268 
11195 
11177 
11269 
11319 
11209 
11147 
11282 
11331 
11252 
11188 
11238 
11293 
11258 
11186 
11206 
11305 
11287 
11187 
11202 
11286 
11260 
11196 
11199 
11285 
11302 
11234 
11187 
11275 
11332 
11264 
11188 
11265 
11360 
11282 
11185 
11263 
11345 
11283 
11199 
11236 
11309 
11296 
11223 
11229 
11549 
11688 
11459 
11364 
11411 
11437 
11320 
11261 
11325 
11378 
11301 
11230 
11293 
11374 
11318 
11221 
11289 
11370 
11327 
11224 
11243 
11332 
11349 
11287 
11277 
11355 
11398 
11283 
11241 
11355 
11364 
11289 
11268 
11354 
11390 
11279 
11201 
11290 
11340 
11296 
11214 
11229 
11335 
11334 
11218 
11223 
11315 
11327 
11239 
11223 
11317 
11377 
11334 
11378 
11481 
11553 
11509 
11454 
11472 
11536 
11494 
11344 
11293 
11350 
11343 
11250 
11266 
11389 
11353 
11260 
11235 
11333 
11378 
11265 
11230 
11353 
11411 
11317 
11251 
11346 
11412 
11337 
11284 
11339 
11414 
11356 
11268 
11307 
11413 
11397 
11287 
11298 
11401 
11401 
11308 
11286 
11380 
11450 
11362 
11337 
11409 
11467 
11399 
11338 
11386 
11478 
11448 
11363 
11460 
11534 
11468 
11406 
11464 
11546 
11544 
11451 
11475 
11555 
11579 
11510 
11498 
11598 
11625 
11525 
11483 
11551 
11626 
11520 
11436 
11474 
11549 
11487 
11192 
11030 
11206 
11247 
11184 
11225 
11317 
11340 
11242 
11247 
11363 
11375 
11286 
11264 
11364 
11414 
11338 
11309 
11403 
11455 
11384 
11306 
11371 
11453 
11413 
11315 
11374 
11457 
11423 
11347 
11381 
11480 
11451 
11341 
11342 
11442 
11491 
11392 
11373 
11451 
11440 
11398 
11366 
11425 
11484 
11417 
11334 
11393 
11474 
11448 
11331 
11372 
11469 
11668 
11751 
11644 
11625 
11598 
11482 
11442 
11505 
11565 
11462 
11417 
11479 
11546 
11478 
11389 
11459 
11547 
11492 
11429 
11462 
11544 
11517 
11417 
11448 
11538 
11522 
11404 
11400 
11481 
11489 
11406 
11374 
11456 
11495 
11411 
11371 
11442 
11494 
11447 
11380 
11451 
11522 
11486 
11461 
11575 
11683 
11696 
11628 
11625 
11692 
11716 
11573 
11475 
11489 
11461 
11382 
11375 
11496 
11516 
11433 
11368 
11462 
11522 
11465 
11390 
11451 
11537 
11499 
11417 
11449 
11530 
11518 
11419 
11445 
11540 
11529 
11456 
11440 
11521 
11565 
11485 
11441 
11514 
11554 
11482 
11441 
11550 
11620 
11533 
11459 
11547 
11620 
11586 
11445 
11488 
11628 
11631 
11540 
11524 
11624 
11696 
11575 
11539 
11657 
11722 
11654 
11608 
11696 
11737 
11683 
11627 
11688 
11765 
11699 
11611 
11675 
11766 
11718 
11601 
11431 
11277 
11397 
11335 
11365 
11483 
11544 
11446 
11409 
11490 
11549 
11450 
11401 
11487 
11567 
11479 
11396 
11487 
11544 
11474 
11436 
11454 
11536 
11526 
11425 
11472 
11559 
11554 
11460 
11409 
11517 
11605 
11523 
11474 
11535 
11569 
11497 
11441 
11528 
11598 
11526 
11448 
11490 
11574 
11562 
11452 
11493 
11576 
11552 
11476 
11659 
11949 
11793 
11653 
11577 
11650 
11649 
11566 
11513 
11562 
11602 
11541 
11490 
11570 
11654 
11573 
11488 
11546 
11614 
11587 
11486 
11511 
11629 
11598 
11513 
11488 
11603 
11622 
11519 
11495 
11588 
11608 
11529 
11462 
11526 
11571 
11530 
11463 
11500 
11576 
11525 
11436 
11482 
11583 
11534 
11441 
11482 
11576 
11596 
11526 
11611 
11719 
11779 
11721 
11674 
11732 
11796 
11692 
11532 
11563 
11596 
11517 
11433 
11524 
11614 
11571 
11465 
11482 
11574 
11572 
11473 
11490 
11578 
11584 
11499 
11495 
11565 
11599 
11513 
11471 
11543 
11611 
11548 
11475 
11542 
11628 
11587 
11509 
11568 
11620 
11589 
11498 
11523 
11630 
11619 
11531 
11540 
11636 
11644 
11530 
11543 
11610 
11684 
11617 
11557 
11666 
11724 
11650 
11588 
11682 
11770 
11705 
11629 
11694 
11763 
11755 
11668 
11691 
11776 
11775 
11676 
11672 
11579 
11357 
11416 
11442 
11548 
11594 
11522 
11446 
11506 
11581 
11511 
11418 
11483 
11554 
11517 
11427 
11462 
11554 
11546 
11438 
11433 
11518 
11566 
11458 
11440 
11556 
11575 
11469 
11427 
11510 
11593 
11503 
11425 
11492 
11590 
11519 
11421 
11475 
11592 
11545 
11443 
11491 
11545 
11560 
11473 
11464 
11549 
11559 
11465 
11464 
11755 
11967 
11726 
11608 
11655 
11702 
11576 
11497 
11570 
11614 
11545 
11472 
11529 
11606 
11559 
11462 
11486 
11577 
11583 
11474 
11501 
11568 
11566 
11481 
11461 
11550 
11617 
11517 
11459 
11534 
11622 
11525 
11482 
11560 
11622 
11545 
11480 
11508 
11600 
11565 
11479 
11494 
11589 
11589 
11473 
11440 
11515 
11548 
11480 
11445 
11491 
11544 
11466 
11415 
11518 
11584 
11494 
11468 
11573 
11718 
11694 
11624 
11691 
11777 
11736 
11627 
11670 
11716 
11624 
11450 
11417 
11530 
11577 
11465 
11429 
11520 
11571 
11515 
11433 
11496 
11574 
11507 
11421 
11500 
11567 
11549 
11449 
11467 
11583 
11561 
11477 
11489 
11551 
11580 
11486 
11465 
11551 
11600 
11519 
11473 
11564 
11607 
11561 
11486 
11546 
11622 
11590 
11479 
11522 
11640 
11609 
11514 
11562 
11659 
11677 
11576 
11561 
11694 
11678 
11614 
11593 
11677 
11754 
11695 
11637 
11720 
11793 
11729 
11613 
11703 
11710 
11314 
11293 
11444 
11569 
11585 
11485 
11483 
11548 
11557 
11466 
11430 
11509 
11544 
11451 
11392 
11491 
11551 
11473 
11393 
11466 
11557 
11504 
11421 
11481 
11556 
11510 
11425 
11443 
11535 
11543 
11429 
11455 
11547 
11556 
11441 
11424 
11526 
11567 
11490 
11458 
11547 
11572 
11509 
11443 
11511 
11565 
11497 
11419 
11530 
11922 
11863 
11661 
11625 
11654 
11641 
11512 
11495 
11588 
11595 
11487 
11453 
11541 
11592 
11518 
11442 
11521 
11578 
11509 
11446 
11502 
11585 
11518 
11440 
11472 
11555 
11590 
11462 
11486 
11566 
11568 
11470 
11471 
11568 
11577 
11482 
11453 
11555 
11609 
11511 
11445 
11524 
11538 
11490 
11413 
11470 
11542 
11486 
11407 
11444 
11531 
11513 
11434 
11442 
11534 
11544 
11465 
11518 
11653 
11704 
11649 
11631 
11735 
11744 
11703 
11620 
11613 
11569 
11470 
11384 
11481 
11557 
11536 
11411 
11431 
11559 
11522 
11440 
11456 
11546 
11551 
11450 
11442 
11534 
11557 
11478 
11422 
11515 
11570 
11473 
11416 
11490 
11568 
11512 
11434 
11471 
11573 
11553 
11453 
11476 
11575 
11560 
11480 
11490 
11578 
11571 
11518 
11479 
11567 
11597 
11531 
11495 
11581 
11642 
11589 
11534 
11598 
11698 
11662 
11572 
11611 
11709 
11688 
11335 
11259 
11494 
11587 
11499 
11550 
11651 
11666 
11555 
11536 
11626 
11652 
11552 
11476 
11534 
11591 
11505 
11414 
11466 
11564 
11527 
11411 
11445 
11524 
11501 
11439 
11439 
11533 
11550 
11470 
11436 
11541 
11563 
11463 
11432 
11517 
11565 
11486 
11440 
11508 
11591 
11519 
11436 
11528 
11606 
11573 
11462 
11495 
11580 
11576 
11481 
11485 
11588 
11609 
11520 
11505 
11897 
11946 
11737 
11620 
11674 
11723 
11640 
11559 
11618 
11677 
11614 
11547 
11587 
11657 
11658 
11523 
11521 
11648 
11676 
11552 
11533 
11621 
11626 
11532 
11483 
11582 
11625 
11545 
11490 
11547 
11623 
11587 
11503 
11538 
11654 
11598 
11505 
11557 
11706 
11748 
11649 
11679 
11843 
11861 
11727 
11729 
11821 
11771 
11572 
11453 
11537 
11611 
11577 
11499 
11580 
11661 
11567 
11529 
11574 
11618 
11584 
11513 
11552 
11624 
11635 
11548 
11551 
11641 
11675 
11565 
11513 
11632 
11654 
11594 
11557 
11629 
11674 
11607 
11529 
11613 
11700 
11641 
11557 
11598 
11708 
11673 
11574 
11624 
11715 
11701 
11629 
11633 
11719 
11756 
11663 
11663 
11754 
11823 
11743 
11683 
11773 
11857 
11770 
11716 
11790 
11858 
11719 
11314 
11495 
11688 
11707 
11593 
11610 
11708 
11718 
11596 
11596 
11668 
11656 
11569 
11532 
11581 
11631 
11561 
11512 
11588 
11631 
11571 
11514 
11566 
11648 
11595 
11514 
11546 
11654 
11632 
11523 
11560 
11626 
11634 
11546 
11520 
11604 
11664 
11565 
11518 
11630 
11663 
11592 
11521 
11587 
11676 
11618 
11513 
11597 
11901 
12011 
11778 
11746 
11796 
11782 
11642 
11615 
11726 
11711 
11600 
11589 
11685 
11719 
11611 
11578 
11663 
11712 
11624 
11549 
11633 
11705 
11643 
11537 
11599 
11685 
11667 
11561 
11572 
11687 
11676 
11573 
11568 
11678 
11715 
11602 
11574 
11667 
11704 
11607 
11541 
11601 
11712 
11650 
11597 
11624 
11681 
11637 
11596 
11627 
11695 
11691 
11579 
11627 
11736 
11733 
11609 
11599 
11706 
11724 
11663 
11623 
11701 
11743 
11623 
11539 
11652 
11695 
11621 
11580 
11622 
11671 
11645 
11567 
11599 
11686 
11683 
11568 
11608 
11774 
11831 
11739 
11758 
11907 
11899 
11795 
11755 
11848 
11859 
11723 
11588 
11620 
11708 
11645 
11562 
11608 
11719 
11661 
11584 
11621 
11707 
11697 
11594 
11610 
11712 
11701 
11594 
11582 
11684 
11714 
11636 
11584 
11652 
11736 
11686 
11592 
11663 
11744 
11703 
11597 
11641 
11744 
11736 
11649 
11702 
11760 
11746 
11659 
11670 
11769 
11812 
11700 
11695 
11797 
11855 
11771 
11714 
11809 
11873 
11625 
11360 
11571 
11745 
11766 
11693 
11773 
11896 
11835 
11754 
11789 
11910 
11911 
11798 
11793 
11858 
11864 
11793 
11721 
11815 
11860 
11743 
11668 
11702 
11770 
11688 
11630 
11701 
11797 
11725 
11630 
11666 
11763 
11748 
11637 
11680 
11763 
11764 
11652 
11652 
11752 
11758 
11677 
11628 
11743 
11804 
11711 
11633 
11717 
11794 
11719 
11653 
11710 
11811 
11781 
11681 
11711 
11796 
11778 
11664 
11695 
11769 
11762 
11692 
11700 
11947 
12222 
11985 
11852 
11903 
11894 
11787 
11711 
11778 
11851 
11796 
11710 
11778 
11859 
11810 
11698 
11740 
11805 
11819 
11717 
11725 
11811 
11839 
11729 
11703 
11795 
11823 
11747 
11716 
11795 
11854 
11798 
11716 
11798 
11846 
11781 
11707 
11771 
11865 
11842 
11718 
11720 
11783 
11753 
11643 
11657 
11753 
11762 
11673 
11639 
11728 
11771 
11690 
11646 
11717 
11798 
11717 
11670 
11794 
11945 
11918 
11852 
11929 
11991 
11927 
11852 
11875 
11892 
11797 
11644 
11641 
11721 
11761 
11648 
11648 
11743 
11791 
11708 
11622 
11695 
11780 
11731 
11626 
11681 
11769 
11743 
11656 
11675 
11764 
11768 
11642 
11634 
11743 
11766 
11664 
11658 
11751 
11808 
11692 
11642 
11737 
11815 
11756 
11666 
11740 
11833 
11776 
11705 
11752 
11849 
11804 
11703 
11738 
11834 
11840 
11763 
11806 
11879 
11891 
11818 
11807 
11904 
11951 
11878 
11831 
11924 
11996 
11734 
11431 
11639 
11804 
11793 
11715 
11743 
11833 
11811 
11712 
11714 
11787 
11756 
11630 
11631 
11727 
11749 
11635 
11612 
11702 
11756 
11667 
11625 
11681 
11754 
11677 
11592 
11681 
11762 
11693 
11605 
11664 
11753 
11723 
11621 
11635 
11740 
11753 
11658 
11646 
11737 
11756 
11673 
11645 
11737 
11795 
11694 
11644 
11727 
11795 
11714 
11647 
11714 
11787 
11754 
11669 
11679 
11816 
12129 
12014 
11911 
11938 
11881 
11782 
11765 
11851 
11852 
11761 
11705 
11794 
11849 
11779 
11684 
11762 
11828 
11734 
11651 
11713 
11787 
11726 
11626 
11677 
11778 
11754 
11630 
11651 
11741 
11764 
11671 
11644 
11779 
11898 
11854 
11794 
11912 
12021 
11913 
11858 
11943 
11955 
11798 
11634 
11661 
11741 
11753 
11679 
11684 
11772 
11752 
11668 
11655 
11740 
11752 
11676 
11640 
11753 
11797 
11734 
11671 
11742 
11795 
11732 
11679 
11750 
11815 
11781 
11694 
11744 
11843 
11812 
11681 
11700 
11852 
11855 
11736 
11724 
11808 
11841 
11738 
11731 
11815 
11867 
11820 
11732 
11828 
11915 
11857 
11789 
11859 
11947 
11910 
11838 
11891 
11969 
11974 
11889 
11882 
11968 
11992 
11904 
11902 
11986 
11777 
11477 
11589 
11752 
11792 
11739 
11674 
11739 
11819 
11727 
11632 
11697 
11790 
11749 
11639 
11691 
11783 
11758 
11657 
11663 
11776 
11776 
11691 
11671 
11751 
11767 
11716 
11644 
11743 
11794 
11708 
11645 
11744 
11828 
11749 
11673 
11712 
11818 
11780 
11703 
11719 
11800 
11805 
11971 
12075 
12040 
11998 
11837 
11790 
11846 
11882 
11791 
11733 
11814 
11856 
11783 
11704 
11750 
11852 
11812 
11712 
11771 
11853 
11813 
11715 
11737 
11812 
11791 
11691 
11685 
11812 
11844 
11737 
11716 
11783 
11828 
11732 
11690 
11765 
11827 
11761 
11677 
11774 
11841 
11796 
11693 
11725 
11840 
11838 
11724 
11725 
11817 
11839 
11732 
11744 
11839 
11875 
11769 
11737 
11850 
11889 
11793 
11742 
11835 
11888 
11795 
11706 
11757 
11844 
11774 
11708 
11725 
11803 
11818 
11710 
11736 
11833 
11827 
11725 
11725 
11847 
11980 
11913 
11907 
12019 
12103 
11993 
11889 
11989 
12065 
11940 
11737 
11771 
11862 
11805 
11709 
11770 
11869 
11847 
11771 
11747 
11853 
11882 
11784 
11763 
11853 
11866 
11768 
11731 
11845 
11891 
11817 
11739 
11804 
11894 
11832 
11723 
11806 
11891 
11867 
11767 
11784 
11910 
11908 
11812 
11795 
11884 
11937 
11837 
11784 
11872 
11927 
11845 
11809 
11891 
11965 
11895 
11831 
11904 
11998 
11935 
11889 
11935 
12018 
11985 
11903 
11829 
11620 
11777 
11762 
11806 
11948 
12003 
11901 
11867 
11936 
11983 
11907 
11835 
11888 
11948 
11869 
11762 
11802 
11885 
11827 
11722 
11779 
11865 
11839 
11702 
11734 
11858 
11861 
11757 
11721 
11830 
11872 
11792 
11738 
11824 
11895 
11798 
11723 
11818 
11892 
11814 
11737 
11778 
11863 
11822 
11768 
11825 
11887 
11872 
11771 
11797 
11845 
11871 
11788 
11802 
12236 
12236 
11990 
11894 
11964 
12015 
11888 
11809 
11879 
11940 
11873 
11796 
11807 
11902 
11891 
11805 
11820 
11901 
11888 
11782 
11787 
11880 
11897 
11802 
11773 
11882 
11920 
11826 
11760 
11863 
11911 
11827 
11787 
11854 
11915 
11869 
11768 
11841 
11919 
11894 
11795 
11828 
11912 
11888 
11765 
11759 
11829 
11864 
11782 
11751 
11807 
11869 
11777 
11754 
11839 
11895 
11827 
11783 
11892 
12045 
12016 
11953 
12037 
12127 
12077 
11966 
11986 
12059 
11926 
11775 
11769 
11852 
11896 
11815 
11749 
11852 
11886 
11806 
11744 
11827 
11902 
11836 
11763 
11820 
11882 
11873 
11781 
11815 
11916 
11882 
11772 
11811 
11904 
11901 
11805 
11798 
11895 
11921 
11832 
11792 
11898 
11954 
11864 
11795 
11885 
11949 
11892 
11828 
11898 
11969 
11928 
11838 
11883 
11995 
11993 
11900 
11902 
11998 
12038 
11929 
11924 
12033 
12094 
12001 
11933 
12033 
12077 
12005 
11593 
11712 
11911 
11922 
11812 
11871 
11938 
11900 
11794 
11834 
11872 
11894 
11788 
11788 
11860 
11861 
11750 
11735 
11832 
11862 
11768 
11726 
11828 
11891 
11825 
11738 
11810 
11874 
11820 
11753 
11795 
11876 
11833 
11745 
11756 
11867 
11895 
11787 
11770 
11864 
11881 
11788 
11762 
11849 
11917 
11850 
11786 
11817 
11890 
11841 
11786 
11841 
11894 
11847 
11881 
12196 
12172 
12047 
11902 
11893 
11946 
11947 
11829 
11788 
11883 
11895 
11791 
11791 
11890 
11944 
11845 
11789 
11874 
11925 
11867 
11794 
11846 
11939 
11898 
11811 
11838 
11942 
11930 
11783 
11807 
11927 
11934 
11814 
11780 
11850 
11836 
11772 
11753 
11841 
11908 
11815 
11749 
11823 
11888 
11836 
11758 
11800 
11889 
11854 
11803 
11917 
12063 
12048 
11993 
12020 
12085 
12063 
11978 
11892 
11924 
11879 
11768 
11753 
11845 
11912 
11830 
11760 
11825 
11897 
11834 
11744 
11824 
11894 
11850 
11749 
11786 
11899 
11909 
11817 
11783 
11866 
11914 
11810 
11794 
11875 
11940 
11840 
11772 
11884 
11939 
11869 
11816 
11863 
11920 
11865 
11777 
11849 
11961 
11927 
11839 
11840 
11957 
11970 
11855 
11838 
11988 
12017 
11890 
11888 
12007 
12084 
12000 
11930 
12027 
12068 
11992 
11939 
12020 
12104 
12061 
11935 
11703 
11734 
11826 
11771 
11803 
11918 
11931 
11786 
11775 
11872 
11896 
11777 
11742 
11831 
11885 
11797 
11757 
11804 
11854 
11811 
11732 
11774 
11850 
11842 
11731 
11789 
11881 
11849 
11745 
11752 
11874 
11886 
11787 
11759 
11853 
11887 
11799 
11726 
11852 
11895 
11825 
11784 
11855 
11901 
11847 
11768 
11812 
12026 
12306 
12077 
12012 
12043 
12006 
11875 
11849 
11939 
11963 
11847 
11829 
11911 
11950 
11845 
11806 
11893 
11932 
11844 
11792 
11853 
11918 
11886 
11768 
11846 
11925 
11899 
11806 
11813 
11909 
11897 
11802 
11795 
11884 
11940 
11829 
11815 
11912 
11953 
11849 
11808 
11885 
11938 
11877 
11767 
11809 
11895 
11844 
11759 
11798 
11881 
11845 
11750 
11773 
11884 
11877 
11771 
11759 
11872 
11917 
11883 
11900 
12012 
12106 
12052 
11968 
12041 
12134 
12025 
11853 
11866 
11904 
11839 
11739 
11775 
11896 
11908 
11781 
11785 
11872 
11854 
11776 
11764 
11855 
11899 
11772 
11767 
11858 
11921 
11820 
11750 
11846 
11905 
11852 
11746 
11806 
11892 
11843 
11773 
11814 
11915 
11897 
11797 
11795 
11889 
11923 
11850 
11815 
11906 
11967 
11854 
11799 
11911 
11982 
11920 
11845 
11918 
12000 
11934 
11878 
11941 
12022 
11990 
11940 
11946 
12051 
12060 
11956 
11929 
11717 
11704 
11729 
11804 
11923 
11995 
11859 
11780 
11903 
11927 
11818 
11738 
11814 
11876 
11814 
11707 
11784 
11862 
11822 
11714 
11751 
11825 
11811 
11719 
11730 
11854 
11854 
11740 
11715 
11805 
11840 
11748 
11699 
11809 
11850 
11804 
11743 
11780 
11870 
11837 
11753 
11768 
11861 
11862 
11724 
11768 
11849 
11871 
11756 
11749 
11845 
11857 
11748 
11732 
12098 
12257 
12021 
11909 
11908 
11948 
11892 
11799 
11823 
11917 
11855 
11765 
11787 
11876 
11846 
11748 
11762 
11853 
11844 
11751 
11740 
11824 
11866 
11775 
11739 
11832 
11876 
11808 
11749 
11817 
11857 
11796 
11737 
11822 
11891 
11821 
11732 
11795 
11923 
11876 
11749 
11754 
11811 
11823 
11730 
11706 
11786 
11817 
11756 
11685 
11771 
11810 
11733 
11655 
11760 
11856 
11774 
11719 
11858 
11973 
11975 
11916 
11951 
12019 
12026 
11928 
11833 
11898 
11866 
11727 
11677 
11786 
11822 
11711 
11676 
11746 
11807 
11744 
11660 
11739 
11833 
11781 
11671 
11734 
11817 
11808 
11706 
11714 
11826 
11811 
11704 
11695 
11799 
11827 
11732 
11694 
11780 
11832 
11743 
11677 
11749 
11831 
11774 
11691 
11739 
11849 
11818 
11741 
11762 
11847 
11863 
11785 
11776 
11889 
11903 
11810 
11795 
11866 
11911 
11852 
11833 
11927 
11966 
11891 
11808 
11905 
11933 
11530 
11504 
11679 
11826 
11829 
11718 
11736 
11866 
11835 
11697 
11668 
11773 
11771 
11663 
11625 
11699 
11747 
11674 
11606 
11691 
11768 
11662 
11598 
11671 
11772 
11692 
11619 
11658 
11741 
11717 
11612 
11632 
11717 
11701 
11640 
11646 
11745 
11768 
11662 
11630 
11719 
11754 
11664 
11606 
11730 
11806 
11733 
11649 
11731 
12125 
12112 
11863 
11848 
11866 
11825 
11694 
11719 
11818 
11805 
11677 
11674 
11752 
11775 
11685 
11637 
11715 
11792 
11708 
11627 
11711 
11784 
11724 
11587 
11659 
11755 
11709 
11613 
11685 
11755 
11755 
11632 
11651 
11759 
11770 
11677 
11645 
11719 
11766 
11684 
11640 
11769 
11810 
11711 
11622 
11717 
11755 
11670 
11597 
11655 
11740 
11683 
11575 
11639 
11741 
11697 
11601 
11606 
11704 
11742 
11613 
11596 
11787 
11863 
11802 
11806 
11933 
11990 
11834 
11785 
11887 
11892 
11721 
11559 
11637 
11740 
11708 
11599 
11635 
11761 
11731 
11619 
11627 
11722 
11752 
11637 
11617 
11691 
11738 
11680 
11638 
11709 
11758 
11681 
11615 
11681 
11767 
11725 
11614 
11682 
11762 
11751 
11662 
11701 
11757 
11769 
11678 
11666 
11756 
11766 
11675 
11671 
11770 
11819 
11712 
11666 
11777 
11812 
11764 
11702 
11812 
11909 
11873 
11779 
11792 
11908 
11902 
11781 
11812 
11935 
11930 
11823 
11814 
11916 
11954 
11816 
11752 
11851 
11890 
11802 
11697 
11793 
11791 
11320 
11297 
11475 
11609 
11596 
11519 
11580 
11659 
11639 
11536 
11580 
11669 
11664 
11568 
11567 
11683 
11715 
11596 
11544 
11675 
11720 
11617 
11574 
11635 
11750 
11641 
11559 
11645 
11722 
11667 
11567 
11633 
11742 
11699 
11596 
11599 
11696 
11737 
11615 
11600 
11658 
11736 
11616 
11582 
11729 
11744 
11649 
11554 
11646 
11746 
11673 
11602 
11682 
11774 
11711 
11610 
11630 
11750 
12024 
12045 
11886 
11904 
11873 
11697 
11605 
11728 
11786 
11651 
11592 
11675 
11741 
11655 
11597 
11643 
11736 
11684 
11572 
11630 
11780 
11801 
11739 
11814 
11945 
11945 
11789 
11816 
11934 
11909 
11694 
11559 
11660 
11707 
11639 
11601 
11683 
11750 
11667 
11574 
11646 
11724 
11680 
11583 
11640 
11746 
11705 
11600 
11594 
11737 
11738 
11611 
11617 
11728 
11748 
11641 
11583 
11680 
11755 
11668 
11595 
11693 
11783 
11736 
11655 
11712 
11785 
11723 
11608 
11673 
11789 
11788 
11660 
11684 
11810 
11812 
11719 
11699 
11807 
11840 
11752 
11737 
11863 
11927 
11853 
11785 
11867 
11932 
11867 
11783 
11844 
11930 
11881 
11772 
11804 
11869 
11831 
11711 
11691 
11790 
11764 
11645 
11628 
11759 
11750 
11619 
11562 
11700 
11747 
11638 
11562 
11655 
11725 
11665 
11578 
11637 
11722 
11698 
11601 
11629 
11734 
11728 
11612 
11611 
11718 
11717 
11621 
11587 
11699 
11781 
11637 
11599 
11686 
11741 
11682 
11586 
11662 
11747 
11686 
11595 
11642 
11755 
11713 
11603 
11636 
11730 
11695 
11581 
11607 
11706 
11730 
11615 
11585 
11685 
11723 
11620 
11561 
11656 
11737 
11656 
11590 
11662 
11725 
11685 
11580 
11590 
11721 
11702 
11601 
11637 
11744 
11724 
11587 
11593 
11710 
11719 
11630 
11601 
11716 
11752 
11663 
11581 
11681 
11753 
11658 
11597 
11670 
11769 
11722 
11611 
11664 
11740 
11720 
11636 
11652 
11737 
11744 
11626 
11597 
11693 
11736 
11619 
11567 
11655 
11700 
11643 
11570 
11664 
11732 
11667 
11584 
11657 
11737 
11787 
11736 
11800 
11916 
11936 
11786 
11769 
11904 
11904 
11719 
11616 
11682 
11714 
11641 
11609 
11707 
11760 
11667 
11601 
11674 
11758 
11677 
11575 
11643 
11739 
11703 
11580 
11617 
11720 
11708 
11605 
11624 
11745 
11736 
11636 
11623 
11761 
11800 
11680 
11626 
11719 
11771 
11681 
11630 
11711 
11799 
11708 
11608 
11695 
11780 
11759 
11656 
11707 
11797 
11819 
11712 
11706 
11819 
11861 
11752 
11755 
11857 
11878 
11797 
11775 
11850 
11928 
11860 
11784 
11833 
11950 
11895 
11789 
11856 
11930 
11889 
11758 
11777 
11857 
11832 
11698 
11681 
11755 
11785 
11665 
11607 
11707 
11749 
11685 
11615 
11658 
11747 
11699 
11608 
11662 
11773 
11731 
11599 
11641 
11757 
11722 
11605 
11628 
11736 
11719 
11598 
11606 
11705 
11766 
11657 
11603 
11715 
11785 
11671 
11591 
11704 
11766 
11692 
11609 
11650 
11766 
11715 
11589 
11645 
11739 
11717 
11628 
11622 
11728 
11741 
11631 
11613 
11696 
11716 
11639 
11609 
11682 
11730 
11655 
11607 
11688 
11724 
11658 
11597 
11650 
11745 
11703 
11618 
11659 
11738 
11729 
11619 
11632 
11736 
11756 
11631 
11599 
11708 
11780 
11664 
11635 
11744 
11778 
11686 
11610 
11681 
11736 
11699 
11592 
11656 
11731 
11689 
11593 
11619 
11704 
11709 
11617 
11618 
11699 
11738 
11691 
11760 
11863 
11923 
11847 
11832 
11894 
11946 
11867 
11750 
11737 
11743 
11683 
11596 
11646 
11719 
11710 
11598 
11631 
11725 
11699 
11610 
11609 
11705 
11749 
11644 
11607 
11681 
11738 
11641 
11583 
11690 
11771 
11689 
11586 
11688 
11761 
11694 
11590 
11639 
11789 
11763 
11634 
11662 
11769 
11750 
11640 
11644 
11741 
11801 
11719 
11671 
11763 
11814 
11743 
11685 
11771 
11858 
11767 
11728 
11813 
11892 
11861 
11795 
11813 
11906 
11927 
11811 
11821 
11918 
11941 
11836 
11798 
11858 
11922 
11825 
11761 
11815 
11857 
11748 
11669 
11758 
11786 
11713 
11656 
11686 
11741 
11700 
11607 
11650 
11759 
11722 
11606 
11614 
11725 
11729 
11610 
11615 
11688 
11727 
11643 
11606 
11693 
11750 
11670 
11597 
11672 
11758 
11687 
11603 
11657 
11742 
11693 
11585 
11637 
11744 
11716 
11604 
11623 
11715 
11742 
11623 
11606 
11690 
11754 
11663 
11574 
11686 
11732 
11638 
11576 
11632 
11728 
11687 
11571 
11638 
11736 
11686 
11589 
11610 
11711 
11718 
11590 
11573 
11700 
11708 
11601 
11586 
11720 
11776 
11620 
11585 
11701 
11743 
11678 
11603 
11681 
11749 
11670 
11588 
11672 
11768 
11738 
11610 
11632 
11744 
11717 
11582 
11568 
11687 
11718 
11594 
11538 
11639 
11708 
11607 
11561 
11656 
11724 
11633 
11562 
11670 
11844 
11827 
11757 
11850 
11936 
11864 
11776 
11829 
11845 
11731 
11604 
11560 
11663 
11722 
11613 
11548 
11640 
11718 
11638 
11557 
11639 
11752 
11703 
11592 
11632 
11717 
11691 
11576 
11610 
11727 
11698 
11608 
11655 
11742 
11708 
11623 
11625 
11711 
11749 
11661 
11638 
11721 
11770 
11713 
11625 
11708 
11798 
11697 
11650 
11701 
11798 
11748 
11668 
11713 
11819 
11796 
11717 
11744 
11831 
11853 
11758 
11771 
11900 
11917 
11816 
11797 
11889 
11940 
11879 
11798 
11871 
11961 
11885 
11754 
11821 
11891 
11820 
11724 
11758 
11829 
11783 
11649 
11652 
11744 
11763 
11653 
11597 
11699 
11764 
11644 
11571 
11690 
11758 
11665 
11563 
11652 
11738 
11662 
11573 
11626 
11716 
11695 
11595 
11649 
11750 
11730 
11613 
11603 
11732 
11758 
11640 
11613 
11705 
11751 
11656 
11599 
11694 
11761 
11674 
11597 
11659 
11739 
11692 
11598 
11643 
11752 
11747 
11625 
11638 
11704 
11726 
11629 
11616 
11701 
11720 
11616 
11594 
11683 
11746 
11637 
11574 
11676 
11745 
11659 
11609 
11673 
11726 
11657 
11593 
11683 
11759 
11728 
11611 
11636 
11752 
11723 
11622 
11634 
11743 
11775 
11643 
11613 
11746 
11771 
11664 
11587 
11675 
11758 
11681 
11580 
11628 
11725 
11665 
11553 
11632 
11716 
11687 
11579 
11591 
11710 
11716 
11660 
11734 
11842 
11918 
11850 
11821 
11895 
11917 
11831 
11740 
11751 
11723 
11635 
11561 
11624 
11745 
11727 
11598 
11615 
11700 
11720 
11609 
11615 
11705 
11723 
11643 
11612 
11685 
11758 
11667 
11585 
11699 
11730 
11634 
11576 
11645 
11771 
11709 
11618 
11658 
11755 
11732 
11614 
11633 
11741 
11749 
11644 
11630 
11734 
11781 
11663 
11640 
11749 
11813 
11718 
11651 
11772 
11829 
11759 
11707 
11780 
11885 
11830 
11744 
11806 
11898 
11890 
11804 
11831 
11929 
11921 
11797 
11789 
11888 
11907 
11799 
11738 
11834 
11870 
11729 
11630 
11718 
11760 
11696 
11613 
11659 
11722 
11657 
11562 
11616 
11705 
11688 
11585 
11599 
11698 
11695 
11578 
11592 
11675 
11694 
11604 
11579 
11676 
11711 
11629 
11583 
11656 
11740 
11661 
11558 
11650 
11740 
11660 
11567 
11586 
11714 
11715 
11579 
11603 
11714 
11706 
11605 
11607 
11722 
11731 
11638 
11575 
11679 
11741 
11634 
11572 
11642 
11703 
11639 
11566 
11643 
11705 
11654 
11556 
11588 
11701 
11699 
11605 
11603 
11689 
11714 
11608 
11582 
11683 
11708 
11639 
11597 
11675 
11728 
11661 
11602 
11672 
11731 
11647 
11577 
11669 
11739 
11718 
11618 
11653 
11767 
11742 
11602 
11588 
11686 
11730 
11588 
11544 
11680 
11716 
11616 
11561 
11647 
11695 
11627 
11594 
11644 
11734 
11681 
11637 
11757 
11894 
11883 
11797 
11848 
11917 
11883 
11763 
11758 
11789 
11711 
11582 
11545 
11660 
11737 
11639 
11589 
11681 
11748 
11659 
11582 
11667 
11760 
11670 
11573 
11648 
11741 
11704 
11603 
11652 
11749 
11705 
11618 
11623 
11709 
11730 
11610 
11607 
11731 
11791 
11679 
11602 
11711 
11786 
11690 
11624 
11697 
11785 
11734 
11660 
11699 
11802 
11770 
11670 
11712 
11826 
11812 
11715 
11728 
11862 
11881 
11797 
11739 
11876 
11904 
11825 
11769 
11864 
11949 
11868 
11804 
11870 
11944 
11887 
11754 
11834 
11878 
11838 
11702 
11694 
11814 
11795 
11667 
11645 
11744 
11762 
11643 
11585 
11706 
11782 
11681 
11604 
11678 
11743 
11675 
11598 
11653 
11734 
11680 
11568 
11635 
11744 
11739 
11608 
11624 
11709 
11739 
11632 
11605 
11724 
11769 
11662 
11639 
11738 
11756 
11661 
11629 
11693 
11764 
11701 
11596 
11676 
11755 
11710 
11609 
11655 
11742 
11728 
11628 
11615 
11738 
11730 
11633 
11618 
11725 
11716 
11635 
11610 
11692 
11767 
11673 
11590 
11674 
11758 
11694 
11589 
11674 
11781 
11728 
11628 
11649 
11745 
11781 
11635 
11595 
11752 
11800 
11668 
11624 
11731 
11786 
11703 
11638 
11699 
11739 
11648 
11572 
11641 
11761 
11690 
11578 
11652 
11734 
11702 
11607 
11634 
11725 
11722 
11619 
11620 
11803 
11879 
11804 
11807 
11913 
11938 
11852 
11819 
11854 
11873 
11680 
11554 
11673 
11788 
11697 
11608 
11660 
11739 
11727 
11614 
11611 
11708 
11746 
11613 
11623 
11734 
11760 
11647 
11610 
11707 
11750 
11669 
11620 
11679 
11773 
11703 
11634 
11676 
11787 
11748 
11620 
11678 
11808 
11774 
11661 
11683 
11800 
11784 
11670 
11694 
11769 
11799 
11746 
11699 
11806 
11878 
11758 
11707 
11806 
11908 
11812 
11727 
11824 
11931 
11891 
11783 
11855 
11968 
11919 
11821 
11870 
11952 
11925 
11838 
11804 
11893 
11928 
11809 
11728 
11802 
11832 
11744 
11640 
11743 
11779 
11722 
11613 
11686 
11763 
11722 
11620 
11629 
11738 
11743 
11637 
11640 
11747 
11741 
11639 
11605 
11684 
11740 
11648 
11601 
11709 
11750 
11663 
11584 
11672 
11752 
11694 
11593 
11648 
11748 
11728 
11596 
11642 
11747 
11696 
11595 
11618 
11685 
11722 
11634 
11600 
11707 
11747 
11617 
11573 
11680 
11747 
11662 
11597 
11666 
11739 
11695 
11594 
11675 
11761 
11716 
11612 
11616 
11718 
11670 
11553 
11574 
11693 
11703 
11596 
11573 
11666 
11713 
11651 
11595 
11689 
11769 
11697 
11671 
11799 
11940 
11924 
11859 
11983 
12131 
12015 
11939 
11979 
12045 
11967 
11767 
11738 
11854 
11911 
11830 
11795 
11898 
11961 
11862 
11811 
11918 
11987 
11905 
11825 
11906 
12021 
11944 
11828 
11864 
11989 
11982 
11860 
11883 
12005 
11982 
11882 
11916 
12006 
12037 
11957 
11921 
12016 
12047 
11984 
11921 
12013 
12100 
12026 
11949 
12029 
12140 
12082 
11979 
12032 
12142 
12125 
12024 
12056 
12190 
12201 
12086 
12129 
12224 
12239 
12142 
12109 
12212 
12279 
12197 
12142 
12200 
12255 
12193 
12131 
12182 
12227 
12176 
12039 
12045 
12132 
12088 
11984 
12012 
12073 
12070 
11988 
11975 
12055 
12102 
11992 
11966 
12074 
12134 
12056 
11990 
12077 
12137 
12054 
11964 
12032 
12115 
12105 
11996 
11996 
12166 
12139 
12013 
12002 
12116 
12147 
12049 
12014 
12112 
12156 
12088 
12009 
12113 
12174 
12086 
11999 
12082 
12197 
12107 
12002 
12050 
12142 
12100 
11990 
12022 
12150 
12143 
12020 
12047 
12131 
12149 
12061 
12014 
12115 
12151 
12067 
12001 
12100 
12160 
12077 
12020 
12095 
12187 
12073 
11966 
12058 
12165 
12120 
12028 
12055 
12146 
12149 
12038 
12035 
12156 
12169 
12070 
12020 
12150 
12217 
12102 
12033 
12132 
12189 
12121 
12059 
12121 
12226 
12181 
12061 
12073 
12133 
12142 
12049 
12052 
12132 
12154 
12044 
12032 
12107 
12143 
12060 
12013 
12100 
12182 
12102 
12074 
12236 
12381 
12286 
12222 
12310 
12380 
12325 
12194 
12216 
12242 
12175 
12049 
12060 
12184 
12210 
12090 
12040 
12159 
12194 
12099 
12066 
12157 
12234 
12138 
12064 
12167 
12228 
12180 
12085 
12148 
12236 
12141 
12068 
12142 
12242 
12208 
12109 
12141 
12257 
12261 
12153 
12099 
12244 
12305 
12170 
12115 
12232 
12286 
12223 
12134 
12204 
12311 
12249 
12181 
12232 
12348 
12320 
12214 
12229 
12362 
12401 
12253 
12266 
12385 
12397 
12305 
12291 
12408 
12463 
12333 
12293 
12412 
12480 
12377 
12290 
12371 
12441 
12338 
12209 
12257 
12328 
12261 
12169 
12201 
12285 
12254 
12136 
12123 
12231 
12250 
12167 
12124 
12237 
12274 
12181 
12143 
12239 
12285 
12191 
12130 
12186 
12277 
12227 
12127 
12192 
12273 
12230 
12127 
12179 
12290 
12265 
12158 
12162 
12282 
12290 
12187 
12154 
12255 
12297 
12182 
12131 
12235 
12294 
12203 
12123 
12197 
12293 
12259 
12167 
12196 
12270 
12239 
12120 
12149 
12263 
12277 
12144 
12150 
12276 
12286 
12167 
12163 
12232 
12275 
12185 
12132 
12247 
12326 
12268 
12153 
12220 
12323 
12244 
12155 
12219 
12320 
12278 
12163 
12176 
12267 
12276 
12166 
12140 
12238 
12258 
12163 
12117 
12204 
12289 
12224 
12156 
12241 
12301 
12249 
12222 
12350 
12480 
12446 
12355 
12390 
12477 
12471 
12354 
12273 
12296 
12257 
12176 
12151 
12257 
12320 
12213 
12172 
12277 
12317 
12215 
12141 
12251 
12338 
12276 
12173 
12238 
12333 
12288 
12174 
12215 
12324 
12301 
12199 
12201 
12309 
12356 
12215 
12203 
12320 
12381 
12283 
12218 
12306 
12349 
12291 
12229 
12314 
12378 
12304 
12237 
12295 
12393 
12366 
12255 
12310 
12450 
12435 
12327 
12338 
12440 
12481 
12384 
12364 
12484 
12549 
12431 
12374 
12471 
12542 
12458 
12373 
12454 
12530 
12463 
12346 
12390 
12457 
12410 
12281 
12292 
12375 
12356 
12238 
12245 
12340 
12346 
12231 
12213 
12304 
12329 
12256 
12177 
12259 
12344 
12301 
12200 
12284 
12379 
12313 
12197 
12260 
12376 
12320 
12182 
12256 
12350 
12343 
12268 
12248 
12316 
12377 
12284 
12186 
12289 
12374 
12306 
12240 
12318 
12393 
12315 
12204 
12283 
12398 
12326 
12222 
12270 
12362 
12342 
12226 
12249 
12354 
12351 
12215 
12202 
12317 
12339 
12241 
12220 
12352 
12392 
12256 
12198 
12301 
12372 
12276 
12213 
12314 
12377 
12340 
12240 
12256 
12370 
12365 
12240 
12251 
12365 
12370 
12288 
12257 
12354 
12377 
12244 
12181 
12290 
12343 
12257 
12177 
12260 
12355 
12297 
12189 
12257 
12324 
12292 
12177 
12250 
12436 
12461 
12413 
12441 
12541 
12552 
12403 
12411 
12486 
12425 
12256 
12170 
12283 
12358 
12279 
12194 
12305 
12383 
12302 
12222 
12281 
12350 
12326 
12226 
12270 
12372 
12363 
12224 
12266 
12392 
12358 
12258 
12247 
12330 
12391 
12274 
12218 
12332 
12404 
12311 
12226 
12298 
12401 
12357 
12256 
12324 
12422 
12377 
12270 
12322 
12423 
12444 
12360 
12316 
12426 
12476 
12379 
12349 
12461 
12512 
12423 
12366 
12469 
12551 
12477 
12400 
12487 
12569 
12532 
12430 
12461 
12598 
12548 
12432 
12439 
12523 
12505 
12378 
12355 
12438 
12447 
12308 
12274 
12380 
12403 
12308 
12237 
12336 
12408 
12325 
12245 
12307 
12382 
12325 
12241 
12312 
12392 
12343 
12248 
12278 
12373 
12352 
12272 
12279 
12354 
12415 
12295 
12243 
12366 
12399 
12337 
12279 
12361 
12458 
12378 
12259 
12318 
12405 
12374 
12238 
12286 
12413 
12376 
12276 
12300 
12416 
12429 
12319 
12283 
12387 
12415 
12316 
12261 
12373 
12454 
12364 
12280 
12364 
12415 
12338 
12245 
12292 
12367 
12317 
12206 
12266 
12371 
12346 
12234 
12248 
12359 
12366 
12257 
12246 
12368 
12443 
12403 
12394 
12483 
12590 
12522 
12459 
12472 
12563 
12485 
12316 
12296 
12343 
12342 
12234 
12270 
12384 
12376 
12266 
12241 
12371 
12434 
12298 
12250 
12384 
12439 
12343 
12268 
12348 
12427 
12353 
12261 
12340 
12418 
12378 
12283 
12333 
12454 
12397 
12308 
12355 
12470 
12470 
12335 
12323 
12425 
12445 
12343 
12302 
12411 
12498 
12405 
12338 
12425 
12512 
12451 
12384 
12456 
12553 
12494 
12412 
12499 
12595 
12611 
12493 
12512 
12607 
12627 
12503 
12508 
12598 
12619 
12537 
12491 
12567 
12606 
12476 
12396 
12467 
12528 
12442 
12308 
12377 
12465 
12388 
12286 
12365 
12465 
12418 
12331 
12315 
12420 
12420 
12302 
12288 
12395 
12439 
12328 
12273 
12376 
12433 
12353 
12275 
12373 
12436 
12370 
12285 
12385 
12451 
12392 
12317 
12320 
12443 
12434 
12322 
12344 
12430 
12444 
12331 
12315 
12413 
12444 
12344 
12290 
12404 
12479 
12355 
12287 
12373 
12457 
12369 
12257 
12347 
12466 
12411 
12319 
12349 
12440 
12423 
12324 
12346 
12441 
12471 
12353 
12328 
12415 
12444 
12360 
12300 
12379 
12454 
12377 
12274 
12380 
12483 
12408 
12303 
12384 
12490 
12414 
12306 
12378 
12516 
12498 
12363 
12367 
12463 
12496 
12416 
12351 
12473 
12522 
12399 
12353 
12429 
12488 
12392 
12314 
12374 
12456 
12426 
12299 
12377 
12484 
12443 
12311 
12351 
12466 
12452 
12359 
12360 
12517 
12576 
12532 
12531 
12660 
12692 
12546 
12479 
12595 
12624 
12476 
12324 
12394 
12472 
12422 
12345 
12385 
12499 
12461 
12327 
12370 
12472 
12460 
12370 
12345 
12472 
12562 
12408 
12346 
12469 
12519 
12424 
12350 
12447 
12509 
12420 
12364 
12441 
12515 
12501 
12417 
12425 
12549 
12499 
12375 
12401 
12562 
12558 
12445 
12448 
12542 
12579 
12471 
12460 
12566 
12615 
12510 
12464 
12586 
12645 
12579 
12477 
12559 
12675 
12633 
12521 
12592 
12720 
12655 
12532 
12577 
12719 
12701 
12568 
12574 
12715 
12710 
12561 
12536 
12608 
12613 
12519 
12401 
12489 
12568 
12473 
12393 
12482 
12558 
12496 
12359 
12443 
12530 
12472 
12407 
12437 
12522 
12529 
12407 
12412 
12524 
12543 
12449 
12377 
12472 
12529 
12433 
12393 
12496 
12587 
12495 
12375 
12465 
12568 
12509 
12402 
12451 
12557 
12527 
12405 
12415 
12541 
12558 
12441 
12407 
12510 
12537 
12447 
12378 
12489 
12598 
12486 
12386 
12460 
12560 
12483 
12433 
12488 
12557 
12525 
12403 
12459 
12572 
12555 
12423 
12432 
12555 
12553 
12451 
12423 
12555 
12601 
12510 
12434 
12554 
12606 
12497 
12443 
12531 
12629 
12555 
12434 
12495 
12592 
12515 
12373 
12423 
12553 
12533 
12422 
12419 
12547 
12579 
12462 
12416 
12537 
12588 
12511 
12525 
12675 
12774 
12700 
12637 
12716 
12759 
12702 
12590 
12571 
12576 
12507 
12413 
12470 
12547 
12551 
12463 
12454 
12558 
12598 
12470 
12449 
12543 
12599 
12521 
12443 
12534 
12614 
12554 
12435 
12521 
12627 
12575 
12443 
12503 
12601 
12592 
12483 
12505 
12618 
12628 
12533 
12512 
12631 
12645 
12538 
12483 
12605 
12690 
12570 
12519 
12615 
12693 
12642 
12559 
12639 
12717 
12666 
12578 
12636 
12751 
12738 
12635 
12684 
12806 
12810 
12667 
12652 
12772 
12830 
12710 
12656 
12769 
12833 
12697 
12620 
12703 
12766 
12673 
12558 
12618 
12688 
12628 
12517 
12547 
12644 
12614 
12481 
12510 
12628 
12602 
12485 
12489 
12581 
12634 
12530 
12485 
12567 
12624 
12529 
12457 
12547 
12634 
12571 
12461 
12568 
12648 
12594 
12485 
12520 
12622 
12624 
12501 
12528 
12638 
12606 
12486 
12522 
12613 
12633 
12532 
12492 
12581 
12648 
12578 
12484 
12588 
12665 
12579 
12481 
12541 
12634 
12600 
12490 
12528 
12651 
12605 
12475 
12524 
12644 
12665 
12560 
12523 
12641 
12698 
12578 
12524 
12631 
12707 
12607 
12529 
12630 
12704 
12616 
12525 
12599 
12686 
12630 
12493 
12545 
12635 
12619 
12506 
12528 
12643 
12668 
12549 
12508 
12620 
12659 
12571 
12500 
12560 
12669 
12647 
12632 
12733 
12860 
12814 
12731 
12763 
12856 
12815 
12651 
12575 
12634 
12619 
12513 
12550 
12676 
12700 
12557 
12566 
12642 
12696 
12585 
12524 
12658 
12721 
12629 
12534 
12612 
12724 
12666 
12557 
12628 
12725 
12695 
12608 
12640 
12696 
12697 
12595 
12603 
12707 
12697 
12643 
12627 
12724 
12762 
12637 
12583 
12700 
12754 
12692 
12601 
12694 
12800 
12751 
12674 
12737 
12819 
12799 
12705 
12738 
12833 
12838 
12741 
12763 
12863 
12885 
12782 
12753 
12868 
12922 
12815 
12755 
12826 
12891 
12814 
12717 
12749 
12832 
12760 
12620 
12676 
12743 
12731 
12596 
12634 
12722 
12673 
12579 
12591 
12719 
12731 
12588 
12555 
12677 
12734 
12635 
12550 
12654 
12703 
12643 
12553 
12620 
12703 
12656 
12564 
12620 
12731 
12695 
12569 
12596 
12693 
12687 
12595 
12608 
12672 
12730 
12628 
12574 
12673 
12713 
12647 
12584 
12636 
12730 
12643 
12552 
12671 
12745 
12661 
12543 
12606 
12712 
12710 
12591 
12605 
12713 
12724 
12605 
12610 
12693 
12719 
12632 
12595 
12674 
12768 
12668 
12587 
12680 
12757 
12700 
12597 
12682 
12788 
12757 
12607 
12619 
12771 
12758 
12627 
12619 
12722 
12725 
12602 
12607 
12678 
12716 
12614 
12558 
12674 
12748 
12647 
12583 
12687 
12817 
12814 
12730 
12835 
12948 
12934 
12774 
12808 
12893 
12833 
12664 
12598 
12690 
12711 
12613 
12613 
12704 
12766 
12663 
12619 
12706 
12757 
12677 
12604 
12714 
12763 
12716 
12594 
12689 
12767 
12755 
12644 
12667 
12792 
12747 
12623 
12649 
12769 
12799 
12687 
12670 
12746 
12817 
12730 
12643 
12724 
12825 
12737 
12625 
12740 
12834 
12784 
12686 
12768 
12847 
12840 
12732 
12753 
12894 
12888 
12767 
12781 
12933 
12942 
12816 
12798 
12943 
12989 
12858 
12800 
12898 
12973 
12886 
12788 
12875 
12930 
12888 
12768 
12783 
12872 
12820 
12694 
12705 
12796 
12780 
12660 
12642 
12746 
12777 
12674 
12627 
12725 
12760 
12677 
12615 
12708 
12766 
12656 
12584 
12702 
12784 
12691 
12618 
12690 
12779 
12756 
12627 
12637 
12762 
12768 
12628 
12613 
12736 
12779 
12656 
12618 
12728 
12790 
12677 
12613 
12708 
12785 
12695 
12595 
12713 
12779 
12724 
12620 
12668 
12756 
12733 
12638 
12639 
12755 
12740 
12604 
12615 
12750 
12795 
12664 
12611 
12736 
12770 
12689 
12622 
12716 
12793 
12703 
12619 
12722 
12794 
12753 
12655 
12698 
12795 
12797 
12658 
12677 
12796 
12795 
12665 
12643 
12739 
12787 
12651 
12607 
12700 
12764 
12662 
12592 
12691 
12798 
12723 
12602 
12677 
12777 
12786 
12783 
12832 
12959 
12944 
12815 
12800 
12931 
12923 
12763 
12691 
12742 
12736 
12644 
12609 
12731 
12815 
12690 
12611 
12715 
12794 
12738 
12639 
12670 
12765 
12733 
12648 
12660 
12792 
12771 
12687 
12704 
12791 
12798 
12685 
12682 
12781 
12820 
12697 
12638 
12750 
12816 
12733 
12671 
12756 
12823 
12777 
12694 
12747 
12844 
12816 
12690 
12721 
12854 
12867 
12735 
12751 
12886 
12895 
12774 
12785 
12902 
12947 
12852 
12793 
12921 
12988 
12899 
12815 
12907 
13000 
12920 
12822 
12884 
12998 
12927 
12777 
12797 
12897 
12865 
12722 
12704 
12791 
12790 
12669 
12671 
12756 
12817 
12697 
12592 
12409 
12333 
12414 
12401 
12547 
12678 
12630 
12517 
12608 
12734 
12685 
12582 
12611 
12713 
12719 
12618 
12594 
12713 
12750 
12652 
12620 
12721 
12776 
12656 
12616 
12720 
12798 
12703 
12617 
12701 
12794 
12724 
12634 
12685 
12772 
12728 
12603 
12664 
12770 
12761 
12627 
12635 
12758 
12739 
12640 
12608 
12712 
12767 
12683 
12618 
12718 
12877 
13159 
13003 
12953 
12972 
12886 
12769 
12800 
12874 
12818 
12721 
12731 
12834 
12846 
12715 
12686 
12771 
12783 
12697 
12647 
12725 
12814 
12685 
12606 
12729 
12796 
12714 
12601 
12696 
12793 
12730 
12629 
12697 
12818 
12836 
12778 
12842 
12971 
12995 
12860 
12784 
12893 
12905 
12739 
12593 
12667 
12773 
12694 
12620 
12732 
12808 
12708 
12614 
12707 
12802 
12746 
12607 
12671 
12791 
12765 
12652 
12663 
12758 
12809 
12695 
12663 
12784 
12804 
12691 
12656 
12758 
12831 
12738 
12657 
12755 
12862 
12785 
12659 
12750 
12851 
12794 
12695 
12732 
12857 
12829 
12722 
12723 
12851 
12880 
12769 
12782 
12884 
12920 
12849 
12798 
12883 
12951 
12879 
12804 
12914 
13014 
12942 
12867 
12907 
12982 
12947 
12819 
12837 
12946 
12929 
12802 
12761 
12875 
12867 
12738 
12706 
12817 
12848 
12720 
12646 
12769 
12805 
12741 
12650 
12722 
12508 
12264 
12332 
12490 
12645 
12639 
12549 
12596 
12705 
12690 
12585 
12602 
12773 
12792 
12641 
12635 
12747 
12781 
12686 
12629 
12733 
12786 
12718 
12629 
12739 
12815 
12758 
12651 
12727 
12831 
12799 
12687 
12702 
12825 
12845 
12721 
12728 
12830 
12845 
12729 
12665 
12800 
12869 
12746 
12679 
12772 
13059 
13190 
12944 
12921 
12980 
12890 
12756 
12792 
12885 
12853 
12700 
12733 
12838 
12822 
12714 
12749 
12913 
12989 
12881 
12859 
12962 
12985 
12883 
12859 
12902 
12902 
12760 
12623 
12718 
12856 
12799 
12692 
12742 
12852 
12828 
12676 
12680 
12818 
12808 
12686 
12706 
12848 
12855 
12726 
12703 
12827 
12887 
12797 
12721 
12830 
12896 
12857 
12719 
12778 
12866 
12841 
12759 
12779 
12894 
12894 
12740 
12744 
12898 
12888 
12786 
12794 
12905 
12937 
12823 
12788 
12922 
12994 
12906 
12836 
12924 
13022 
12959 
12854 
12949 
13055 
13010 
12905 
12973 
13096 
13038 
12937 
12949 
13055 
13063 
12905 
12906 
12978 
12995 
12870 
12798 
12907 
12939 
12798 
12715 
12827 
12895 
12807 
12738 
12796 
12884 
12851 
12537 
12264 
12534 
12633 
12561 
12621 
12759 
12791 
12682 
12667 
12765 
12814 
12714 
12653 
12781 
12860 
12784 
12702 
12765 
12865 
12819 
12746 
12805 
12880 
12849 
12715 
12790 
12897 
12857 
12722 
12753 
12860 
12860 
12758 
12745 
12841 
12881 
12797 
12740 
12827 
12895 
12816 
12734 
12818 
12905 
12825 
12719 
12781 
12907 
12850 
12723 
12769 
13142 
13350 
13063 
12963 
13021 
13008 
12876 
12850 
12967 
12980 
12862 
12809 
12900 
12964 
12884 
12796 
12885 
13009 
12922 
12812 
12885 
12972 
12896 
12801 
12860 
12978 
12935 
12790 
12797 
12906 
12907 
12792 
12775 
12875 
12919 
12775 
12758 
12843 
12924 
12892 
12776 
12843 
12988 
12940 
12872 
12985 
13093 
13056 
12981 
13009 
13087 
13088 
12943 
12864 
12919 
12890 
12804 
12756 
12874 
12936 
12837 
12764 
12855 
12940 
12848 
12760 
12852 
12953 
12888 
12787 
12855 
12928 
12897 
12779 
12804 
12936 
12912 
12815 
12842 
12934 
12929 
12841 
12807 
12929 
12975 
12861 
12808 
12916 
13022 
12920 
12825 
12916 
13011 
12928 
12817 
12907 
13028 
12985 
12861 
12925 
13030 
13026 
12975 
12920 
13049 
13133 
12989 
12955 
13078 
13114 
13047 
12991 
13074 
13157 
13081 
12986 
13047 
13151 
13076 
12956 
12979 
13074 
13007 
12864 
12871 
12924 
12540 
12451 
12576 
12737 
12834 
12729 
12704 
12810 
12888 
12784 
12720 
12845 
12911 
12833 
12743 
12833 
12911 
12858 
12733 
12811 
12919 
12901 
12787 
12815 
12921 
12925 
12802 
12790 
12892 
12937 
12877 
12820 
12895 
12945 
12855 
12803 
12860 
12960 
12843 
12763 
12842 
12961 
12932 
12800 
12841 
12961 
12916 
12801 
12951 
13417 
13298 
13062 
12996 
13061 
13060 
12944 
12910 
13001 
13029 
12925 
12845 
12910 
13024 
12959 
12849 
12918 
13032 
12970 
12822 
12902 
13022 
12982 
12871 
12881 
12982 
12964 
12843 
12819 
12952 
12956 
12841 
12780 
12900 
12952 
12859 
12803 
12895 
12954 
12906 
12824 
12916 
13114 
13107 
13004 
13078 
13173 
13139 
13015 
13041 
13105 
12991 
12822 
12800 
12923 
12947 
12861 
12830 
12912 
12985 
12880 
12817 
12919 
13005 
12935 
12806 
12884 
12993 
12975 
12859 
12902 
12976 
12947 
12837 
12830 
12939 
12969 
12868 
12852 
12960 
12992 
12894 
12848 
12971 
13047 
12964 
12873 
12942 
13056 
12971 
12876 
12948 
13019 
12996 
12899 
12936 
13090 
13067 
12944 
12965 
13082 
13106 
13003 
12980 
13107 
13178 
13066 
13020 
13125 
13174 
13101 
13015 
13074 
13150 
13099 
12967 
13015 
13118 
13031 
12925 
12925 
13022 
12991 
12869 
12783 
12505 
12601 
12606 
12607 
12746 
12822 
12739 
12713 
12799 
12895 
12794 
12715 
12809 
12907 
12864 
12772 
12834 
12928 
12874 
12794 
12814 
12916 
12918 
12800 
12803 
12923 
12929 
12804 
12810 
12894 
12926 
12825 
12770 
12873 
12936 
12882 
12782 
12835 
12951 
12905 
12778 
12838 
12953 
12936 
12794 
12815 
12933 
12905 
12768 
12750 
13104 
13436 
13145 
12981 
13069 
13094 
12989 
12884 
12949 
13040 
12954 
12860 
12946 
13045 
12960 
12857 
12901 
13017 
13000 
12883 
12876 
12944 
12944 
12826 
12807 
12939 
12959 
12814 
12774 
12895 
12935 
12822 
12794 
12894 
12980 
12881 
12794 
12902 
13013 
13009 
12923 
13024 
13140 
13120 
12966 
12974 
13070 
13051 
12827 
12758 
12875 
12928 
12834 
12794 
12885 
12932 
12839 
12773 
12858 
12918 
12866 
12803 
12855 
12948 
12898 
12779 
12843 
12922 
12918 
12797 
12819 
12926 
12958 
12827 
12809 
12940 
12993 
12875 
12805 
12900 
12975 
12897 
12811 
12903 
12968 
12905 
12828 
12903 
13013 
12955 
12843 
12908 
13032 
12999 
12889 
12907 
13083 
13105 
12952 
12953 
13064 
13115 
13030 
12972 
13049 
13142 
13033 
12978 
13075 
13144 
13070 
12973 
13017 
13117 
13046 
12890 
12926 
13056 
13013 
12550 
12367 
12645 
12751 
12659 
12657 
12810 
12851 
12782 
12738 
12828 
12911 
12821 
12741 
12819 
12901 
12850 
12717 
12802 
12942 
12885 
12796 
12827 
12926 
12911 
12774 
12794 
12892 
12920 
12795 
12781 
12891 
12962 
12872 
12824 
12885 
12962 
12868 
12769 
12853 
12976 
12896 
12818 
12845 
12953 
12937 
12827 
12833 
12943 
12929 
12807 
12806 
13144 
13433 
13176 
13044 
13090 
13106 
12992 
12919 
12977 
13023 
12969 
12860 
12954 
13059 
12986 
12848 
12919 
13016 
13002 
12871 
12889 
12992 
12996 
12877 
12873 
12975 
13000 
12885 
12848 
12956 
13009 
12868 
12785 
12888 
12996 
12892 
12827 
12920 
13004 
12942 
12833 
12896 
13075 
13117 
13020 
13072 
13206 
13160 
13029 
13048 
13155 
13101 
12906 
12837 
12916 
12984 
12911 
12815 
12948 
13027 
12948 
12858 
12937 
13035 
12969 
12833 
12889 
13021 
12985 
12893 
12925 
13026 
13022 
12911 
12888 
13006 
13036 
12934 
12882 
12979 
13067 
12967 
12904 
13035 
13108 
13004 
12918 
12989 
13102 
13036 
12938 
13001 
13107 
13103 
12983 
12992 
13085 
13130 
13027 
13017 
13131 
13191 
13088 
13077 
13181 
13212 
13135 
13076 
13172 
13250 
13182 
13102 
13158 
13268 
13205 
13072 
13103 
13184 
13170 
13002 
12998 
12832 
12601 
12640 
12736 
12888 
12959 
12853 
12810 
12932 
13012 
12904 
12832 
12940 
13020 
12965 
12864 
12925 
13029 
12984 
12859 
12886 
13021 
13025 
12893 
12919 
13032 
13039 
12928 
12907 
13010 
13077 
12966 
12900 
13029 
13086 
12992 
12911 
12993 
13071 
13031 
12925 
13009 
13095 
13053 
12925 
12958 
13086 
13068 
12928 
12959 
13083 
13101 
13346 
13410 
13360 
13305 
13129 
13059 
13140 
13202 
13091 
13001 
13089 
13192 
13125 
12984 
13064 
13154 
13100 
13005 
13039 
13172 
13154 
13034 
13027 
13150 
13171 
13054 
13018 
13140 
13160 
13041 
12946 
13073 
13155 
13036 
12974 
13051 
13138 
13066 
12978 
13045 
13133 
13093 
12997 
13040 
13176 
13170 
13092 
13128 
13280 
13330 
13220 
13163 
13269 
13316 
13175 
13030 
13081 
13134 
13078 
12987 
13068 
13164 
13087 
13012 
13080 
13163 
13135 
13011 
13048 
13129 
13128 
13026 
13033 
13134 
13192 
13068 
13024 
13144 
13197 
13097 
13024 
13137 
13194 
13135 
13068 
13137 
13199 
13141 
13047 
13113 
13249 
13194 
13074 
13123 
13215 
13201 
13107 
13119 
13223 
13249 
13149 
13135 
13243 
13331 
13244 
13192 
13286 
13358 
13291 
13245 
13304 
13384 
13319 
13231 
