3253 
3247 
3192 
3208 
3248 
3257 
3263 
3240 
3221 
3188 
3194 
3229 
3218 
3256 
3222 
3182 
3280 
3259 
3201 
3219 
3211 
3247 
3205 
3176 
3194 
3193 
3194 
3181 
3144 
3158 
3180 
3145 
3203 
3270 
3326 
3477 
3512 
3421 
3437 
3421 
3326 
3238 
3077 
2985 
3006 
3169 
3278 
3210 
3197 
3217 
3267 
3271 
3272 
3281 
3243 
3218 
3175 
3237 
3264 
3161 
3245 
3207 
3156 
3202 
3169 
3236 
3334 
3245 
3191 
3228 
3286 
3265 
3254 
3142 
3087 
3187 
3313 
3171 
3158 
3279 
3234 
3257 
3295 
3188 
3142 
3088 
3146 
3273 
3292 
3287 
3206 
3166 
3245 
3227 
3282 
3236 
3113 
3136 
3181 
3150 
3124 
3113 
3091 
3142 
3133 
3157 
3157 
3159 
3157 
3078 
2983 
2959 
3016 
2968 
2932 
2830 
2824 
2844 
2793 
2813 
2777 
2775 
2805 
2750 
2728 
2744 
2693 
2711 
2794 
2741 
2643 
2689 
2704 
2736 
2775 
2786 
2808 
2720 
2645 
2694 
2742 
2763 
2779 
2733 
2713 
2760 
2709 
2622 
2657 
2689 
2683 
2752 
2645 
2715 
2795 
2762 
2738 
2678 
2693 
2680 
2518 
2692 
2769 
2731 
2645 
2615 
2551 
2608 
2533 
2508 
2563 
2496 
2599 
2518 
2525 
2600 
2559 
2510 
2565 
2524 
2504 
2389 
2431 
2562 
2506 
2496 
2461 
2440 
2419 
2397 
2399 
2411 
2396 
2423 
2421 
2389 
2473 
2384 
2322 
2384 
2412 
2362 
2341 
2328 
2371 
2324 
2314 
2329 
2360 
2352 
2308 
2288 
2333 
2322 
2272 
2313 
2355 
2353 
2352 
2254 
2332 
2280 
2344 
2385 
2352 
2322 
2280 
2298 
2210 
2237 
2312 
2271 
2277 
2305 
2256 
2139 
2235 
2319 
2252 
2241 
2211 
2156 
2226 
2196 
2130 
2209 
2279 
2273 
2377 
2475 
2505 
2444 
2372 
2400 
2379 
2129 
1952 
2008 
2172 
2225 
2224 
2258 
2215 
2202 
2201 
2129 
2112 
2267 
2212 
2131 
2229 
2246 
2211 
2173 
2180 
2197 
2221 
2200 
2212 
2164 
2184 
2184 
2214 
2214 
2275 
2237 
2234 
2211 
2263 
2247 
2265 
2333 
2278 
2214 
2217 
2321 
2335 
2300 
2263 
2290 
2299 
2262 
2280 
2243 
2231 
2201 
2174 
2189 
2267 
2294 
2316 
2262 
2390 
2434 
2364 
2333 
2330 
2335 
2333 
2361 
2324 
2344 
2281 
2217 
2214 
2162 
2123 
2170 
2230 
2181 
2133 
2089 
2053 
2112 
2175 
2097 
2096 
2133 
2071 
2039 
2084 
2140 
2115 
2063 
2113 
2108 
2098 
2136 
2067 
2115 
2170 
2131 
2112 
2101 
2057 
2048 
2063 
2149 
2091 
2087 
2097 
2123 
2108 
2088 
2208 
2255 
2218 
2220 
2214 
2174 
2172 
2211 
2183 
2088 
2166 
2196 
2117 
2079 
2134 
2202 
2111 
2064 
2058 
2114 
2169 
2186 
2179 
2154 
2108 
2130 
2118 
2076 
2114 
2102 
2144 
2182 
2123 
2109 
2044 
2092 
2130 
2067 
2119 
2090 
2111 
2133 
2071 
2094 
2157 
2227 
2169 
2168 
2153 
2106 
2091 
2146 
2134 
2134 
2090 
2107 
2093 
2127 
2130 
2120 
2187 
2218 
2152 
2117 
2122 
2139 
2101 
2151 
2182 
2135 
2182 
2134 
2114 
2146 
2159 
2148 
2180 
2115 
2142 
2128 
2143 
2192 
2148 
2122 
2145 
2226 
2230 
2177 
2174 
2163 
2183 
2182 
2110 
2091 
2136 
2126 
2104 
2163 
2145 
2174 
2161 
2131 
2142 
2119 
2105 
2098 
2216 
2348 
2410 
2468 
2376 
2288 
2307 
2348 
2184 
2003 
1944 
1992 
2095 
2167 
2222 
2147 
2150 
2145 
2152 
2152 
2140 
2219 
2222 
2139 
2171 
2142 
2139 
2223 
2262 
2188 
2231 
2314 
2236 
2247 
2275 
2254 
2181 
2158 
2294 
2284 
2210 
2224 
2283 
2270 
2319 
2319 
2325 
2312 
2293 
2304 
2326 
2328 
2330 
2288 
2346 
2410 
2354 
2348 
2321 
2226 
2191 
2260 
2333 
2340 
2397 
2414 
2336 
2382 
2417 
2399 
2389 
2403 
2366 
2324 
2332 
2343 
2336 
2279 
2228 
2296 
2240 
2174 
2182 
2230 
2216 
2235 
2099 
2022 
2091 
2121 
2077 
2108 
2137 
2113 
2176 
2126 
2154 
2123 
2131 
2169 
2164 
2110 
2049 
2025 
2054 
2133 
2165 
2133 
2162 
2177 
2110 
2069 
2100 
2168 
2150 
2183 
2256 
2304 
2207 
2164 
2163 
2186 
2179 
2137 
2181 
2252 
2242 
2226 
2069 
2112 
2141 
2157 
2219 
2244 
2143 
2159 
2173 
2163 
2149 
2223 
2118 
2084 
2152 
2156 
2078 
2048 
2189 
2197 
2121 
2061 
2128 
2120 
2025 
2069 
2197 
2176 
2068 
2092 
2150 
2138 
2147 
2068 
2082 
2099 
2083 
2090 
2112 
2105 
2091 
2095 
2056 
2097 
2114 
2185 
2107 
2039 
2108 
2074 
2057 
2080 
2089 
2051 
2083 
2040 
2104 
2107 
2065 
1961 
2045 
2139 
2085 
2064 
2079 
2038 
2044 
2053 
2075 
2125 
2034 
2132 
2124 
2103 
2077 
2004 
2013 
2102 
2021 
2041 
1995 
1987 
2097 
2012 
1998 
1993 
2043 
2028 
2019 
1974 
1985 
1941 
1969 
2016 
2073 
2013 
1985 
2013 
2114 
2237 
2240 
2284 
2220 
2174 
2176 
2049 
1908 
1922 
1893 
1857 
1913 
2043 
2069 
2021 
2041 
2028 
2041 
1971 
1960 
1955 
1922 
2017 
2075 
2074 
2038 
2022 
2025 
1992 
1968 
2082 
2029 
2011 
2019 
1999 
1991 
2075 
2052 
1998 
2046 
2107 
2079 
1961 
2062 
2068 
2048 
2027 
2061 
2111 
2082 
2098 
1984 
2036 
2112 
2131 
2145 
2064 
1953 
1968 
2023 
2013 
1993 
2048 
2060 
2126 
2061 
2082 
2132 
2039 
2121 
2164 
2126 
2084 
2086 
2094 
2078 
1958 
1913 
1927 
1857 
1875 
1926 
1886 
1828 
1774 
1800 
1833 
1883 
1846 
1834 
1832 
1784 
1798 
1812 
1836 
1867 
1836 
1766 
1782 
1788 
1799 
1782 
1859 
1858 
1849 
1873 
1873 
1813 
1853 
1840 
1871 
1881 
1872 
1849 
1795 
1873 
2046 
1938 
1967 
1969 
1966 
1956 
1950 
1922 
1913 
1961 
1926 
1942 
1948 
1911 
1854 
1855 
1950 
1937 
1832 
1893 
1980 
1965 
1898 
1823 
1885 
1882 
1877 
1843 
1934 
1919 
1886 
1867 
1895 
1978 
1911 
1796 
1924 
1964 
1916 
1946 
1908 
1919 
1968 
1905 
1851 
1841 
1937 
1927 
1828 
1905 
1967 
1948 
1963 
1887 
1859 
1876 
1895 
1934 
1910 
1919 
1851 
1865 
1894 
1898 
1873 
1941 
1936 
1874 
1875 
1913 
1972 
1928 
1930 
1930 
1854 
1887 
1917 
1873 
1876 
1858 
1876 
1911 
1906 
1921 
1912 
1900 
1872 
1892 
1893 
1890 
1914 
1919 
1894 
1924 
1899 
1894 
1885 
1846 
1919 
1986 
1959 
1902 
1870 
1871 
1877 
1838 
1834 
1861 
1870 
1852 
1870 
1911 
1827 
1864 
1879 
1769 
1815 
1881 
1875 
1993 
2083 
2156 
2161 
2120 
2091 
2080 
1952 
1831 
1743 
1765 
1805 
1839 
1929 
1973 
1966 
1875 
1870 
1944 
1958 
1854 
1848 
1946 
1931 
1907 
1878 
1925 
1903 
1910 
1872 
1948 
1977 
1944 
1893 
1935 
1926 
1911 
2014 
2010 
2003 
1977 
1978 
1912 
1983 
2040 
2037 
2005 
2004 
2009 
1976 
1931 
1983 
2069 
2069 
2059 
2066 
2103 
2160 
2030 
1895 
1941 
1966 
2053 
2039 
2093 
2086 
2058 
2083 
2132 
2140 
2083 
2100 
2125 
2133 
2064 
2073 
2037 
1998 
2014 
2011 
1914 
1901 
1955 
1944 
1862 
1876 
1896 
1852 
1866 
1922 
1917 
1850 
1812 
1886 
1975 
1878 
1846 
1860 
1845 
1854 
1873 
1917 
1938 
1905 
1823 
1934 
1968 
1875 
1860 
1919 
1925 
1945 
1907 
1874 
1910 
1952 
1975 
2033 
2066 
2066 
1942 
1948 
1984 
2031 
2064 
1964 
2005 
2008 
1936 
1866 
1927 
2013 
2048 
1980 
1931 
1958 
1974 
1945 
1977 
1998 
1965 
1901 
1939 
1957 
1978 
1956 
1929 
1973 
2010 
1951 
1879 
1903 
1941 
1907 
1972 
1996 
1985 
1950 
1976 
1972 
1945 
1868 
1999 
2016 
1987 
1944 
1938 
1973 
1978 
1964 
1914 
1900 
1911 
2008 
1972 
1918 
1924 
1976 
1975 
2000 
1962 
1924 
1881 
1957 
2012 
1959 
1948 
1947 
2015 
2010 
1969 
1900 
1913 
1952 
1988 
2016 
2009 
1990 
1991 
1975 
1946 
2032 
2027 
2021 
1989 
1983 
2003 
1924 
1958 
2010 
2054 
1995 
1929 
2000 
2044 
2039 
1966 
1972 
1998 
1970 
1924 
1982 
1996 
2022 
1972 
1959 
1942 
1984 
1942 
1898 
1976 
1948 
1861 
1915 
1987 
2009 
2047 
2100 
2220 
2307 
2306 
2238 
2142 
2151 
2160 
1948 
1859 
1762 
1871 
1881 
1915 
2060 
2033 
2056 
2042 
2077 
2090 
2056 
2023 
2107 
2007 
2035 
2012 
2056 
2101 
2074 
2037 
2123 
2206 
2114 
2059 
2067 
2088 
2139 
2157 
2060 
2123 
2163 
2061 
2097 
2163 
2103 
2114 
2230 
2188 
2199 
2196 
2162 
2221 
2219 
2202 
2160 
2218 
2228 
2235 
2224 
2283 
2341 
2117 
2108 
2159 
2245 
2263 
2250 
2200 
2266 
2367 
2313 
2275 
2303 
2327 
2316 
2254 
2235 
2218 
2126 
2148 
2155 
2140 
2160 
2102 
2012 
2091 
2120 
2084 
2099 
2117 
2149 
2085 
1979 
2043 
2096 
2073 
2064 
2050 
2150 
2116 
2045 
2030 
2077 
2047 
2099 
2133 
2079 
2139 
2094 
2121 
2123 
2130 
2118 
2047 
2082 
2151 
2113 
2106 
2231 
2281 
2213 
2150 
2174 
2205 
2214 
2174 
2174 
2243 
2233 
2166 
2178 
2199 
2149 
2107 
2059 
2111 
2189 
2168 
2148 
2170 
2137 
2128 
2116 
2126 
2139 
2162 
2069 
2104 
2187 
2159 
2076 
2110 
2207 
2147 
2124 
2137 
2180 
2187 
2119 
2061 
2170 
2204 
2125 
2032 
2042 
2158 
2139 
2224 
2132 
2148 
2177 
2148 
2166 
2087 
2070 
2154 
2161 
2190 
2170 
2087 
2031 
2139 
2203 
2196 
2170 
2200 
2148 
2167 
2138 
2096 
2176 
2196 
2213 
2191 
2160 
2166 
2159 
2180 
2227 
2167 
2103 
2120 
2147 
2095 
2124 
2101 
2178 
2228 
2135 
2050 
2139 
2127 
2136 
2120 
2104 
2149 
2208 
2244 
2375 
2482 
2425 
2318 
2241 
2256 
2230 
2079 
1970 
1968 
1989 
2058 
2112 
2226 
2206 
2173 
2133 
2105 
2236 
2222 
2160 
2160 
2180 
2214 
2174 
2207 
2215 
2228 
2213 
2170 
2221 
2164 
2230 
2261 
2259 
2253 
2200 
2172 
2251 
2252 
2272 
2236 
2268 
2229 
2233 
2292 
2240 
2215 
2231 
2300 
2341 
2299 
2284 
2356 
2370 
2382 
2444 
2390 
2344 
2435 
2267 
2205 
2341 
2352 
2321 
2288 
2387 
2410 
2395 
2449 
2420 
2389 
2397 
2370 
2315 
2317 
2293 
2249 
2162 
2170 
2255 
2219 
2155 
2080 
2166 
2153 
2126 
2128 
2153 
2145 
2108 
2115 
2200 
2127 
2067 
2109 
2193 
2136 
2147 
2101 
2135 
2138 
2217 
2177 
2124 
2134 
2154 
2162 
2168 
2202 
2132 
2135 
2184 
2226 
2193 
2110 
2162 
2297 
2309 
2291 
2242 
2278 
2276 
2280 
2267 
2244 
2214 
2211 
2214 
2162 
2206 
2232 
2135 
2182 
2247 
2248 
2218 
2177 
2178 
2186 
2183 
2172 
2207 
2153 
2169 
2234 
2255 
2229 
2182 
2196 
2128 
2222 
2224 
2190 
2155 
2185 
2209 
2213 
2203 
2191 
2196 
2210 
2184 
2201 
2254 
2283 
2163 
2196 
2268 
2222 
2242 
2238 
2308 
2187 
2181 
2211 
2237 
2200 
2279 
2274 
2222 
2255 
2239 
2175 
2280 
2286 
2128 
2243 
2368 
2334 
2297 
2263 
2249 
2272 
2307 
2267 
2285 
2305 
2316 
2216 
2222 
2267 
2200 
2155 
2219 
2301 
2317 
2248 
2214 
2261 
2284 
2267 
2246 
2247 
2212 
2218 
2222 
2246 
2208 
2176 
2219 
2323 
2336 
2470 
2575 
2573 
2514 
2441 
2401 
2329 
2165 
2053 
2102 
2197 
2269 
2304 
2216 
2313 
2319 
2270 
2228 
2201 
2298 
2315 
2266 
2296 
2321 
2314 
2276 
2311 
2304 
2355 
2331 
2315 
2319 
2313 
2309 
2365 
2308 
2374 
2385 
2338 
2402 
2391 
2370 
2382 
2326 
2359 
2397 
2440 
2411 
2395 
2399 
2375 
2353 
2450 
2486 
2349 
2461 
2510 
2375 
2431 
2447 
2420 
2459 
2435 
2421 
2430 
2524 
2558 
2556 
2502 
2503 
2540 
2537 
2542 
2535 
2484 
2419 
2407 
2384 
2315 
2303 
2340 
2317 
2261 
2304 
2292 
2303 
2351 
2284 
2287 
2215 
2267 
2283 
2279 
2306 
2323 
2338 
2283 
2222 
2212 
2269 
2261 
2295 
2250 
2350 
2348 
2232 
2261 
2308 
2285 
2282 
2284 
2266 
2350 
2349 
2298 
2335 
2399 
2454 
2453 
2343 
2433 
2446 
2409 
2327 
2389 
2346 
2318 
2353 
2419 
2426 
2389 
2340 
2333 
2344 
2299 
2358 
2431 
2353 
2395 
2370 
2384 
2380 
2341 
2336 
2358 
2415 
2421 
2340 
2380 
2341 
2354 
2349 
2305 
2345 
2388 
2365 
2369 
2377 
2331 
2380 
2360 
2361 
2436 
2423 
2339 
2328 
2392 
2437 
2436 
2338 
2358 
2324 
2311 
2474 
2446 
2375 
2395 
2352 
2311 
2320 
2420 
2448 
2406 
2403 
2350 
2412 
2408 
2361 
2371 
2404 
2411 
2384 
2320 
2327 
2453 
2449 
2490 
2443 
2449 
2444 
2392 
2341 
2353 
2385 
2408 
2439 
2368 
2385 
2432 
2400 
2379 
2371 
2382 
2376 
2387 
2337 
2404 
2404 
2418 
2338 
2415 
2561 
2624 
2711 
2596 
2509 
2471 
2513 
2359 
2317 
2202 
2168 
2247 
2382 
2365 
2476 
2486 
2408 
2426 
2373 
2416 
2419 
2450 
2496 
2491 
2505 
2495 
2519 
2456 
2475 
2509 
2490 
2536 
2543 
2466 
2488 
2523 
2544 
2569 
2551 
2547 
2536 
2620 
2575 
2522 
2535 
2527 
2669 
2679 
2712 
2713 
2626 
2591 
2668 
2704 
2647 
2643 
2682 
2691 
2566 
2524 
2569 
2671 
2737 
2638 
2676 
2715 
2728 
2729 
2704 
2748 
2744 
2704 
2675 
2693 
2692 
2730 
2726 
2675 
2613 
2586 
2628 
2553 
2563 
2564 
2548 
2535 
2485 
2461 
2479 
2496 
2520 
2534 
2555 
2499 
2544 
2544 
2549 
2534 
2454 
2426 
2636 
2543 
2647 
2622 
2562 
2575 
2580 
2500 
2572 
2570 
2570 
2584 
2525 
2528 
2450 
2607 
2710 
2770 
2744 
2697 
2759 
2667 
2611 
2626 
2632 
2592 
2585 
2614 
2634 
2558 
2596 
2634 
2584 
2583 
2648 
2730 
2654 
2607 
2564 
2628 
2640 
2596 
2543 
2569 
2645 
2590 
2607 
2569 
2644 
2612 
2567 
2583 
2582 
2590 
2635 
2601 
2609 
2632 
2643 
2640 
2583 
2597 
2628 
2533 
2563 
2627 
2662 
2601 
2552 
2570 
2705 
2659 
2583 
2631 
2654 
2668 
2660 
2601 
2646 
2725 
2610 
2580 
2658 
2643 
2638 
2609 
2572 
2657 
2611 
2590 
2604 
2616 
2639 
2664 
2600 
2629 
2577 
2544 
2572 
2682 
2660 
2556 
2495 
2584 
2650 
2593 
2646 
2746 
2871 
2816 
2742 
2790 
2771 
2747 
2646 
2452 
2388 
2492 
2594 
2654 
2684 
2721 
2639 
2598 
2645 
2602 
2591 
2640 
2625 
2674 
2644 
2615 
2671 
2691 
2658 
2634 
2649 
2679 
2709 
2680 
2679 
2699 
2642 
2652 
2666 
2680 
2687 
2706 
2662 
2742 
2725 
2654 
2667 
2773 
2804 
2794 
2774 
2777 
2794 
2678 
2723 
2796 
2839 
2808 
2770 
2860 
2788 
2667 
2635 
2778 
2840 
2839 
2791 
2778 
2851 
2848 
2787 
2801 
2853 
2808 
2834 
2783 
2720 
2705 
2672 
2725 
2696 
2630 
2679 
2671 
2599 
2591 
2577 
2602 
2615 
2646 
2584 
2586 
2568 
2603 
2626 
2603 
2638 
2661 
2649 
2627 
2611 
2578 
2548 
2556 
2655 
2686 
2723 
2646 
2605 
2662 
2650 
2627 
2642 
2672 
2654 
2635 
2561 
2747 
2833 
2823 
2730 
2704 
2696 
2742 
2692 
2675 
2755 
2696 
2676 
2763 
2678 
2708 
2698 
2729 
2742 
2740 
2686 
2634 
2630 
2714 
2701 
2675 
2713 
2705 
2658 
2618 
2708 
2720 
2696 
2675 
2724 
2746 
2723 
2708 
2735 
2735 
2730 
2683 
2708 
2670 
2724 
2691 
2678 
2646 
2663 
2727 
2749 
2683 
2637 
2791 
2723 
2756 
2767 
2743 
2724 
2682 
2698 
2701 
2686 
2719 
2758 
2793 
2713 
2646 
2766 
2765 
2756 
2770 
2744 
2732 
2720 
2717 
2717 
2785 
2759 
2717 
2739 
2676 
2747 
2721 
2694 
2745 
2791 
2676 
2682 
2714 
2619 
2768 
2834 
2780 
2735 
2657 
2642 
2692 
2718 
2708 
2676 
2719 
2784 
2811 
2912 
2967 
3014 
2885 
2916 
2888 
2778 
2671 
2536 
2569 
2707 
2775 
2727 
2728 
2672 
2702 
2708 
2682 
2721 
2743 
2722 
2774 
2730 
2764 
2821 
2802 
2676 
2764 
2792 
2756 
2784 
2736 
2800 
2789 
2728 
2742 
2794 
2810 
2808 
2777 
2785 
2789 
2773 
2776 
2783 
2808 
2848 
2811 
2862 
2902 
2925 
2869 
2904 
2874 
2884 
2909 
2915 
2913 
2796 
2823 
2854 
2950 
2940 
2880 
2908 
2965 
2971 
2966 
2964 
3072 
3014 
2944 
2937 
3010 
2959 
2892 
2831 
2830 
2828 
2830 
2828 
2817 
2814 
2791 
2828 
2776 
2716 
2714 
2754 
2691 
2754 
2731 
2744 
2746 
2746 
2776 
2683 
2686 
2775 
2797 
2806 
2737 
2821 
2817 
2694 
2698 
2706 
2732 
2707 
2687 
2830 
2813 
2725 
2773 
2881 
2954 
2977 
2906 
2870 
2865 
2857 
2800 
2861 
2863 
2789 
2820 
2762 
2799 
2854 
2845 
2776 
2833 
2860 
2787 
2842 
2831 
2805 
2801 
2758 
2735 
2821 
2806 
2786 
2768 
2766 
2790 
2729 
2742 
2771 
2730 
2705 
2739 
2760 
2831 
2696 
2738 
2793 
2867 
2781 
2723 
2787 
2747 
2747 
2794 
2780 
2763 
2754 
2804 
2774 
2813 
2821 
2768 
2789 
2804 
2808 
2817 
2742 
2752 
2808 
2793 
2815 
2754 
2802 
2821 
2756 
2818 
2889 
2844 
2752 
2773 
2820 
2806 
2795 
2815 
2798 
2761 
2759 
2789 
2902 
2860 
2851 
2812 
2826 
2890 
2850 
2813 
2755 
2822 
2829 
2821 
2774 
2829 
2859 
2787 
2798 
2767 
2792 
2746 
2782 
2891 
2870 
2723 
2748 
2819 
2874 
2881 
2994 
3062 
3161 
3140 
3025 
2952 
2960 
2930 
2715 
2618 
2644 
2710 
2777 
2803 
2871 
2886 
2783 
2844 
2907 
2847 
2749 
2783 
2927 
2912 
2854 
2823 
2857 
2888 
2859 
2830 
2866 
2934 
2953 
2952 
2901 
2875 
2872 
2833 
2858 
2948 
2927 
2925 
2926 
2936 
2949 
2905 
2936 
2998 
3030 
2982 
2997 
3062 
3122 
3063 
3023 
3061 
3051 
3065 
2974 
2945 
2965 
3001 
2970 
3019 
3112 
3101 
3015 
3111 
3111 
3166 
3157 
3140 
3178 
3108 
3023 
3060 
3041 
3079 
2933 
2892 
2957 
2964 
2881 
2868 
2900 
2928 
2920 
2877 
2898 
2862 
2875 
2899 
2899 
2939 
2889 
2864 
2859 
2880 
2863 
2934 
2854 
2864 
2927 
2924 
2910 
2932 
2912 
2870 
2847 
2961 
2992 
2866 
2911 
2899 
2981 
3109 
3085 
3040 
3009 
3051 
3077 
3001 
3045 
3054 
3013 
3021 
2976 
2960 
3046 
3012 
2967 
2991 
2966 
2961 
2988 
3052 
3018 
3001 
2988 
2987 
2974 
3023 
2966 
2988 
3002 
2995 
3013 
3012 
2974 
2981 
2972 
2937 
2991 
3055 
3011 
2994 
2985 
2982 
2963 
2923 
3041 
3034 
3017 
3006 
3013 
3009 
2933 
2950 
3004 
3019 
2964 
2952 
2994 
2946 
2908 
3012 
3039 
3019 
3015 
2970 
3006 
3036 
3035 
3002 
2960 
2978 
2956 
2942 
3024 
3089 
3111 
3062 
2963 
2993 
3041 
3056 
3046 
3042 
3033 
3059 
3084 
3075 
3108 
3023 
3015 
3091 
3058 
3010 
2979 
2993 
3072 
3095 
3048 
3013 
3007 
2958 
3047 
2980 
2983 
3063 
3029 
2996 
3022 
3105 
3123 
3208 
3366 
3351 
3220 
3091 
3183 
3174 
3135 
3004 
2838 
2965 
3003 
3047 
3132 
3131 
3122 
3073 
3048 
3091 
3095 
3023 
3049 
3089 
3109 
3109 
3077 
3115 
3121 
3121 
3068 
3137 
3187 
3198 
3121 
3129 
3159 
3125 
3116 
3120 
3182 
3170 
3193 
3147 
3160 
3201 
3217 
3164 
3204 
3223 
3217 
3179 
3190 
3300 
3335 
3310 
3291 
3264 
3273 
3272 
3155 
3156 
3306 
3241 
3269 
3379 
3325 
3243 
3346 
3283 
3344 
3386 
3385 
3352 
3323 
3253 
3254 
3279 
3271 
3217 
3106 
3158 
3133 
3114 
3112 
3113 
3039 
3069 
3072 
3120 
3119 
3085 
3090 
3088 
3101 
3105 
3017 
3014 
3106 
3143 
3184 
3121 
3074 
3128 
3170 
3080 
3060 
3109 
3132 
3104 
3123 
3223 
3148 
3071 
3116 
3365 
3289 
3218 
3237 
3222 
3183 
3137 
3202 
3251 
3180 
3150 
3158 
3192 
3244 
3206 
3174 
3148 
3205 
3183 
3140 
3152 
3215 
3195 
3145 
3062 
3091 
3222 
3257 
3212 
3122 
3112 
3210 
3182 
3176 
3245 
3196 
3160 
3139 
3193 
3210 
3193 
3203 
3180 
3211 
3239 
3191 
3228 
3242 
3158 
3170 
3234 
3218 
3209 
3177 
3222 
3265 
3227 
3172 
3215 
3257 
3333 
3298 
3200 
3229 
3222 
3168 
3171 
3244 
3247 
3214 
3183 
3202 
3269 
3216 
3214 
3265 
3248 
3261 
3292 
3261 
3293 
3217 
3219 
3257 
3281 
3249 
3201 
3213 
3293 
3280 
3244 
3262 
3312 
3309 
3253 
3203 
3254 
3315 
3260 
3286 
3298 
3288 
3323 
3315 
3262 
3257 
3298 
3271 
3260 
3289 
3225 
3231 
3279 
3279 
3229 
3209 
3248 
3275 
3247 
3246 
3276 
3237 
3258 
3198 
3156 
3282 
3340 
3371 
3475 
3578 
3583 
3466 
3438 
3433 
3362 
3222 
3083 
3138 
3306 
3347 
3322 
3300 
3342 
3331 
3254 
3273 
3331 
3302 
3294 
3291 
3306 
3315 
3290 
3296 
3337 
3345 
3347 
3318 
3414 
3398 
3376 
3391 
3390 
3387 
3370 
3363 
3367 
3361 
3426 
3391 
3357 
3401 
3431 
3401 
3434 
3465 
3493 
3457 
3407 
3447 
3510 
3516 
3497 
3540 
3352 
3371 
3367 
3431 
3488 
3527 
3528 
3502 
3474 
3531 
3493 
3471 
3590 
3628 
3547 
3509 
3578 
3527 
3486 
3470 
3420 
3385 
3366 
3349 
3342 
3334 
3361 
3297 
3271 
3302 
3273 
3299 
3301 
3268 
3275 
3201 
3271 
3332 
3295 
3316 
3283 
3260 
3313 
3245 
3208 
3263 
3298 
3302 
3299 
3220 
3228 
3195 
3218 
3218 
3245 
3317 
3391 
3353 
3310 
3327 
3340 
3303 
3336 
3338 
3333 
3259 
3245 
3298 
3283 
3242 
3227 
3317 
3311 
3271 
3215 
3265 
3306 
3264 
3278 
3260 
3264 
3249 
3258 
3260 
3316 
3270 
3270 
3307 
3315 
3307 
3258 
3217 
3237 
3265 
3308 
3275 
3290 
3306 
3302 
3299 
3299 
3330 
3264 
3240 
3357 
3333 
3263 
3273 
3344 
3334 
3393 
3338 
3336 
3342 
3328 
3319 
3364 
3301 
3319 
3365 
3352 
3325 
3349 
3287 
3315 
3357 
3340 
3351 
3401 
3442 
3395 
3375 
3354 
3391 
3411 
3340 
3338 
3403 
3366 
3374 
3364 
3376 
3415 
3395 
3395 
3406 
3404 
3360 
3378 
3462 
3470 
3432 
3442 
3412 
3391 
3428 
3425 
3422 
3450 
3464 
3410 
3330 
3421 
3492 
3456 
3470 
3444 
3468 
3446 
3438 
3479 
3427 
3415 
3454 
3380 
3440 
3449 
3425 
3418 
3424 
3437 
3461 
3434 
3458 
3436 
3428 
3405 
3488 
3545 
3654 
3674 
3692 
3649 
3595 
3548 
3535 
3444 
3277 
3178 
3321 
3488 
3490 
3452 
3438 
3430 
3456 
3497 
3471 
3501 
3564 
3486 
3482 
3478 
3501 
3498 
3469 
3481 
3547 
3521 
3531 
3561 
3554 
3530 
3499 
3494 
3535 
3533 
3565 
3542 
3590 
3632 
3552 
3593 
3646 
3682 
3616 
3568 
3593 
3639 
3695 
3640 
3657 
3656 
3714 
3638 
3715 
3621 
3547 
3554 
3640 
3685 
3640 
3648 
3669 
3633 
3660 
3681 
3644 
3640 
3751 
3764 
3683 
3669 
3657 
3640 
3620 
3581 
3624 
3547 
3470 
3508 
3519 
3391 
3455 
3495 
3435 
3383 
3420 
3362 
3423 
3429 
3426 
3427 
3442 
3462 
3441 
3429 
3425 
3499 
3434 
3376 
3392 
3424 
3476 
3471 
3423 
3398 
3416 
3461 
3413 
3442 
3481 
3579 
3549 
3498 
3610 
3608 
3579 
3525 
3582 
3551 
3537 
3528 
3481 
3502 
3481 
3516 
3523 
3523 
3554 
3526 
3554 
3543 
3453 
3483 
3519 
3545 
3509 
3472 
3503 
3521 
3512 
3472 
3462 
3550 
3633 
3509 
3477 
3543 
3515 
3439 
3462 
3529 
3552 
3508 
3478 
3519 
3527 
3430 
3485 
3506 
3508 
3530 
3545 
3516 
3514 
3474 
3504 
3538 
3466 
3463 
3527 
3466 
3509 
3559 
3529 
3523 
3571 
3521 
3464 
3496 
3580 
3558 
3479 
3481 
3538 
3531 
3456 
3432 
3398 
3546 
3563 
3572 
3519 
3571 
3504 
3494 
3474 
3535 
3538 
3436 
3504 
3538 
3556 
3476 
3499 
3518 
3520 
3550 
3511 
3526 
3596 
3495 
3491 
3552 
3500 
3540 
3591 
3643 
3601 
3558 
3527 
3556 
3564 
3497 
3477 
3536 
3562 
3558 
3478 
3453 
3546 
3614 
3543 
3496 
3492 
3562 
3545 
3503 
3494 
3507 
3511 
3539 
3595 
3695 
3736 
3790 
3813 
3665 
3683 
3665 
3593 
3491 
3427 
3412 
3463 
3563 
3606 
3529 
3436 
3540 
3603 
3608 
3571 
3638 
3619 
3512 
3550 
3582 
3560 
3559 
3561 
3566 
3581 
3562 
3532 
3623 
3623 
3594 
3602 
3658 
3666 
3615 
3582 
3622 
3676 
3625 
3623 
3613 
3618 
3633 
3621 
3655 
3686 
3671 
3701 
3652 
3683 
3786 
3799 
3685 
3689 
3662 
3652 
3636 
3668 
3702 
3693 
3696 
3749 
3737 
3792 
3859 
3776 
3753 
3789 
3817 
3753 
3775 
3767 
3703 
3643 
3602 
3632 
3667 
3558 
3542 
3552 
3515 
3555 
3557 
3594 
3555 
3520 
3539 
3513 
3555 
3569 
3565 
3575 
3562 
3496 
3511 
3556 
3625 
3600 
3571 
3494 
3503 
3580 
3589 
3576 
3605 
3648 
3558 
3511 
3652 
3779 
3758 
3653 
3664 
3682 
3672 
3641 
3555 
3595 
3713 
3661 
3594 
3614 
3606 
3583 
3568 
3572 
3627 
3679 
3612 
3667 
3621 
3584 
3585 
3629 
3625 
3632 
3604 
3604 
3585 
3514 
3540 
3628 
3625 
3576 
3530 
3535 
3566 
3575 
3563 
3628 
3591 
3596 
3537 
3607 
3666 
3626 
3582 
3538 
3521 
3571 
3542 
3544 
3583 
3577 
3560 
3562 
3573 
3629 
3593 
3552 
3577 
3706 
3675 
3584 
3594 
3649 
3625 
3592 
3513 
3563 
3569 
3548 
3564 
3575 
3603 
3645 
3559 
3550 
3599 
3619 
3603 
3599 
3627 
3628 
3563 
3603 
3593 
3565 
3624 
3643 
3622 
3599 
3564 
3569 
3594 
3585 
3549 
3624 
3624 
3597 
3577 
3611 
3595 
3581 
3623 
3631 
3658 
3636 
3560 
3630 
3625 
3648 
3631 
3588 
3620 
3659 
3588 
3550 
3555 
3595 
3547 
3566 
3602 
3614 
3624 
3586 
3539 
3588 
3561 
3549 
3598 
3577 
3558 
3532 
3581 
3649 
3701 
3845 
3947 
3856 
3744 
3733 
3745 
3642 
3472 
3376 
3385 
3527 
3648 
3637 
3616 
3610 
3593 
3585 
3627 
3675 
3617 
3579 
3597 
3622 
3664 
3636 
3617 
3669 
3610 
3651 
3676 
3599 
3664 
3731 
3649 
3603 
3631 
3701 
3713 
3653 
3647 
3727 
3775 
3688 
3709 
3722 
3745 
3763 
3747 
3758 
3762 
3771 
3767 
3798 
3781 
3809 
3763 
3665 
3624 
3696 
3695 
3720 
3789 
3802 
3765 
3746 
3872 
3846 
3810 
3822 
3826 
3852 
3835 
3785 
3836 
3818 
3811 
3735 
3712 
3706 
3705 
3650 
3583 
3577 
3574 
3651 
3604 
3658 
3611 
3586 
3563 
3577 
3645 
3610 
3545 
3607 
3661 
3661 
3596 
3583 
3598 
3588 
3656 
3661 
3632 
3628 
3619 
3577 
3522 
3601 
3670 
3623 
3632 
3648 
3716 
3735 
3744 
3814 
3740 
3704 
3713 
3695 
3673 
3705 
3710 
3707 
3727 
3672 
3601 
3665 
3706 
3697 
3638 
3668 
3653 
3605 
3646 
3593 
3710 
3676 
3638 
3671 
3687 
3611 
3596 
3615 
3661 
3673 
3648 
3638 
3646 
3642 
3593 
3611 
3654 
3702 
3715 
3637 
3645 
3663 
3633 
3606 
3641 
3615 
3587 
3636 
3652 
3664 
3682 
3593 
3625 
3678 
3694 
3613 
3604 
3648 
3636 
3608 
3611 
3636 
3648 
3639 
3645 
3633 
3642 
3660 
3601 
3607 
3676 
3672 
3606 
3597 
3625 
3616 
3647 
3654 
3672 
3656 
3619 
3623 
3652 
3631 
3650 
3657 
3627 
3635 
3629 
3641 
3671 
3714 
3673 
3625 
3589 
3643 
3644 
3599 
3656 
3719 
3678 
3638 
3628 
3628 
3612 
3596 
3572 
3652 
3615 
3581 
3584 
3542 
3558 
3591 
3631 
3630 
3598 
3609 
3566 
3585 
3595 
3668 
3761 
3791 
3860 
3941 
3815 
3753 
3786 
3743 
3601 
3458 
3404 
3469 
3539 
3627 
3698 
3686 
3616 
3637 
3693 
3662 
3594 
3690 
3675 
3682 
3663 
3721 
3693 
3658 
3686 
3636 
3709 
3730 
3791 
3708 
3627 
3678 
3720 
3713 
3703 
3807 
3836 
3722 
3757 
3813 
3746 
3720 
3701 
3815 
3835 
3816 
3737 
3759 
3753 
3818 
3823 
3816 
3907 
3888 
3882 
3856 
3855 
3813 
3699 
3779 
3795 
3831 
3893 
3939 
3919 
3911 
3893 
3846 
3805 
3900 
3926 
3867 
3795 
3765 
3771 
3741 
3817 
3809 
3667 
3631 
3652 
3653 
3645 
3614 
3613 
3636 
3738 
3691 
3688 
3639 
3605 
3649 
3600 
3610 
3639 
3660 
3635 
3583 
3580 
3639 
3705 
3718 
3656 
3662 
3706 
3620 
3593 
3680 
3653 
3625 
3775 
3814 
3826 
3740 
3764 
3786 
3712 
3679 
3728 
3734 
3710 
3669 
3705 
3759 
3662 
3652 
3600 
3704 
3772 
3669 
3673 
3679 
3650 
3668 
3650 
3693 
3702 
3632 
3643 
3686 
3734 
3658 
3653 
3660 
3677 
3682 
3665 
3628 
3576 
3600 
3727 
3697 
3654 
3700 
3637 
3646 
3763 
3691 
3680 
3656 
3641 
3641 
3607 
3628 
3663 
3709 
3712 
3671 
3698 
3641 
3635 
3647 
3637 
3662 
3661 
3687 
3717 
3748 
3739 
3666 
3673 
3624 
3646 
3645 
3622 
3708 
3750 
3647 
3669 
3668 
3715 
3636 
3599 
3662 
3787 
3666 
3605 
3674 
3713 
3664 
3563 
3637 
3679 
3714 
3632 
3634 
3690 
3699 
3617 
3643 
3693 
3718 
3600 
3672 
3680 
3609 
3634 
3661 
3754 
3643 
3593 
3630 
3535 
3632 
3627 
3546 
3595 
3593 
3545 
3634 
3578 
3588 
3617 
3578 
3559 
3581 
3554 
3556 
3552 
3694 
3696 
3781 
3836 
3748 
3744 
3769 
3746 
3647 
3451 
3369 
3362 
3517 
3591 
3609 
3569 
3548 
3521 
3591 
3667 
3622 
3572 
3551 
3531 
3508 
3612 
3622 
3543 
3525 
3618 
3693 
3604 
3562 
3635 
3615 
3647 
3632 
3578 
3588 
3620 
3586 
3571 
3605 
3630 
3643 
3655 
3624 
3647 
3680 
3660 
3714 
3680 
3624 
3621 
3707 
3695 
3680 
3651 
3693 
3756 
3650 
3538 
3636 
3646 
3671 
3695 
3762 
3783 
3754 
3646 
3696 
3741 
3769 
3776 
3699 
3640 
3650 
3692 
3591 
3568 
3528 
3594 
3508 
3551 
3577 
3517 
3468 
3507 
3434 
3412 
3501 
3465 
3481 
3489 
3456 
3425 
3467 
3503 
3451 
3433 
3412 
3499 
3516 
3509 
3479 
3459 
3477 
3442 
3531 
3524 
3482 
3420 
3482 
3623 
3735 
3652 
3595 
3550 
3534 
3581 
3566 
3517 
3529 
3561 
3560 
3583 
3588 
3524 
3462 
3517 
3542 
3541 
3515 
3569 
3517 
3507 
3465 
3530 
3492 
3526 
3494 
3510 
3479 
3511 
3522 
3513 
3479 
3465 
3510 
3516 
3525 
3474 
3450 
3527 
3518 
3565 
3555 
3479 
3500 
3538 
3476 
3428 
3530 
3531 
3519 
3497 
3440 
3507 
3519 
3542 
3536 
3542 
3558 
3528 
3508 
3522 
3539 
3568 
3468 
3426 
3482 
3530 
3505 
3531 
3561 
3541 
3475 
3550 
3605 
3581 
3599 
3550 
3543 
3537 
3555 
3597 
3547 
3509 
3581 
3582 
3544 
3586 
3605 
3533 
3522 
3657 
3623 
3576 
3608 
3637 
3673 
3518 
3495 
3614 
3657 
3668 
3642 
3666 
3668 
3605 
3551 
3543 
3647 
3653 
3584 
3582 
3627 
3616 
3652 
3645 
3669 
3645 
3628 
3635 
3588 
3578 
3583 
3563 
3675 
3727 
3740 
3855 
3951 
3862 
3771 
3816 
3758 
3633 
3524 
3464 
3477 
3590 
3563 
3614 
3618 
3688 
3702 
3675 
3675 
3600 
3688 
3693 
3684 
3680 
3711 
3718 
3678 
3672 
3725 
3746 
3711 
3738 
3734 
3741 
3722 
3726 
3747 
3724 
3715 
3730 
3742 
3808 
3776 
3759 
3826 
3796 
3789 
3796 
3865 
3862 
3860 
3835 
3849 
3853 
3875 
3931 
3947 
3953 
3915 
3802 
3811 
3865 
3902 
3870 
3891 
3956 
3895 
3919 
3976 
3980 
3964 
3935 
3946 
3955 
3967 
3855 
3862 
3840 
3900 
3860 
3771 
3748 
3776 
3796 
3776 
3786 
3752 
3700 
3651 
3663 
3732 
3707 
3757 
3765 
3730 
3738 
3702 
3677 
3715 
3717 
3748 
3759 
3723 
3763 
3747 
3721 
3792 
3787 
3780 
3765 
3763 
3743 
3745 
3789 
3938 
3935 
3897 
3891 
3898 
3900 
3851 
3878 
3875 
3865 
3853 
3851 
3840 
3811 
3847 
3801 
3831 
3855 
3848 
3810 
3811 
3870 
3807 
3739 
3818 
3821 
3793 
3744 
3789 
3828 
3839 
3817 
3777 
3748 
3802 
3782 
3853 
3761 
3758 
3826 
3830 
3800 
3819 
3810 
3759 
3783 
3771 
3790 
3774 
3782 
3783 
3790 
3808 
3771 
3808 
3776 
3815 
3804 
3755 
3768 
3784 
3772 
3836 
3854 
3779 
3771 
3841 
3828 
3814 
3766 
3748 
3806 
3799 
3824 
3798 
3778 
3764 
3813 
3786 
3781 
3854 
3833 
3734 
3799 
3827 
3862 
3858 
3814 
3846 
3864 
3830 
3830 
3866 
3907 
3862 
3839 
3770 
3751 
3779 
3816 
3813 
3859 
3832 
3796 
3775 
3804 
3840 
3852 
3794 
3770 
3818 
3838 
3784 
3742 
3786 
3797 
3818 
3902 
4034 
4076 
4126 
4027 
3973 
3989 
3950 
3797 
3674 
3645 
3695 
3754 
3774 
3862 
3860 
3842 
3867 
3882 
3940 
3860 
3849 
3861 
3899 
3850 
3848 
3916 
3883 
3895 
3901 
3925 
3933 
3923 
3919 
3952 
3933 
3926 
3975 
3908 
3902 
3984 
4060 
4081 
4023 
3940 
3929 
4028 
4080 
4041 
3977 
3980 
3993 
4085 
4115 
4067 
4106 
4087 
3962 
4087 
4193 
4181 
4025 
4009 
4021 
4088 
4087 
4122 
4109 
4163 
4153 
4089 
4096 
4182 
4173 
4129 
4098 
4077 
4072 
4011 
3992 
3958 
3933 
3915 
3918 
3887 
3898 
3869 
3837 
3876 
3909 
3836 
3840 
3852 
3832 
3910 
3897 
3886 
3905 
3858 
3846 
3872 
3864 
3892 
3853 
3844 
3897 
3942 
3907 
3873 
3862 
3910 
3885 
3850 
3912 
4032 
4019 
3993 
4059 
4000 
3883 
3944 
4023 
3969 
3959 
3907 
3912 
3980 
3904 
3900 
3905 
3901 
3922 
3889 
3886 
3882 
3906 
3799 
3905 
4005 
3956 
3901 
3871 
3947 
3872 
3922 
3889 
3862 
3918 
3929 
3898 
3877 
3939 
3888 
3900 
3916 
3941 
3852 
3925 
3931 
3910 
3910 
3890 
3899 
3925 
3909 
3911 
3908 
3967 
3952 
3889 
3866 
3888 
3922 
3923 
3957 
3883 
3933 
3905 
3932 
3945 
3910 
3901 
3851 
3876 
3971 
3959 
3907 
3865 
3909 
3897 
3915 
3954 
3930 
3909 
3912 
3929 
3919 
3918 
3892 
3929 
3933 
3918 
3934 
3922 
3928 
3926 
3927 
3940 
3969 
3962 
3927 
3891 
3957 
3986 
3911 
3912 
3912 
3963 
4059 
3963 
3986 
3979 
4004 
3924 
3897 
3894 
3929 
3909 
3917 
3970 
3920 
3933 
3955 
3877 
3885 
3950 
3869 
3924 
3910 
3897 
3852 
3842 
3953 
3995 
4070 
4121 
4213 
4221 
4065 
4051 
4058 
4029 
3876 
3734 
3774 
3803 
3875 
3905 
3897 
3880 
3970 
3975 
3940 
4017 
3961 
3892 
3912 
3912 
3943 
3957 
3979 
3954 
3964 
4005 
3959 
3990 
4054 
3996 
3951 
3974 
4009 
4012 
3999 
3989 
4028 
4031 
3994 
3978 
4052 
4034 
4030 
4054 
4051 
4120 
4127 
4064 
4107 
4053 
4058 
4031 
3950 
4033 
4041 
4035 
4063 
4153 
4085 
4104 
4172 
4200 
4179 
4169 
4152 
4171 
4222 
4255 
4160 
4146 
4140 
4130 
4117 
4051 
4054 
4062 
4047 
3973 
3978 
3985 
3939 
3897 
3891 
3901 
3946 
3949 
3960 
3920 
3889 
3855 
3983 
4000 
3925 
3946 
3986 
4004 
3911 
3852 
3966 
4012 
4003 
3954 
3944 
3947 
3951 
3985 
4030 
4024 
4069 
4118 
4085 
4149 
4113 
4043 
4059 
4028 
4013 
4012 
3959 
4067 
4069 
4032 
4094 
4033 
4025 
4059 
4041 
3957 
3964 
4018 
4008 
3976 
4006 
4099 
3988 
3998 
4012 
4046 
4042 
4030 
4003 
4022 
4013 
4023 
4001 
4025 
3998 
3947 
3963 
4070 
4042 
4021 
4027 
4016 
3953 
3935 
3947 
3970 
4029 
4045 
3951 
3928 
3945 
3963 
4022 
4003 
3961 
3958 
3927 
3946 
3935 
3931 
3953 
3876 
3932 
3973 
3992 
4018 
3988 
3946 
3878 
3969 
3986 
3913 
3864 
3879 
3930 
3897 
3885 
3925 
3965 
3938 
4005 
3936 
3908 
3981 
3940 
3933 
3920 
3931 
3949 
3899 
3921 
3960 
3946 
3918 
3909 
3925 
3902 
3957 
3966 
3914 
3870 
3890 
3854 
3868 
3940 
3883 
3897 
3923 
3935 
3907 
3871 
3860 
3916 
3902 
3855 
3978 
3975 
3978 
3947 
3967 
3965 
4045 
4176 
4264 
4222 
4131 
4081 
4098 
4060 
3914 
3768 
3770 
3834 
3874 
3951 
3985 
3985 
4067 
3992 
4005 
4060 
3997 
4121 
4129 
4125 
4044 
3999 
4121 
4112 
4072 
4139 
4102 
4077 
4117 
4149 
4167 
4119 
4087 
4167 
4169 
4180 
4182 
4199 
4130 
4093 
4140 
4122 
4100 
4154 
4200 
4120 
4134 
4113 
4148 
4149 
4119 
4205 
4202 
4224 
4245 
4121 
4021 
4094 
4175 
4150 
4143 
4142 
4149 
4208 
4193 
4204 
4247 
4241 
4218 
4240 
4249 
4175 
4090 
4102 
4107 
4078 
4066 
3997 
3986 
4006 
3913 
3936 
3973 
3962 
3926 
3954 
3894 
3920 
3911 
3892 
3936 
3930 
3882 
3829 
3914 
3884 
3878 
3991 
3989 
3916 
4038 
3979 
3885 
3916 
3914 
3933 
3960 
4016 
4004 
3959 
3926 
3952 
4045 
4102 
4114 
4078 
4043 
4032 
4073 
4082 
4070 
4009 
3941 
3932 
3988 
3975 
3921 
3912 
3912 
3980 
3966 
3940 
3954 
3943 
3876 
3836 
3896 
3970 
3955 
3792 
3801 
3882 
3875 
3810 
3867 
3908 
3870 
3833 
3854 
3922 
3940 
3925 
3895 
3902 
3990 
3944 
3877 
3866 
4000 
3980 
3844 
3858 
3842 
3929 
3963 
3921 
3973 
3953 
3908 
3903 
3935 
3984 
3922 
3907 
3973 
3970 
3900 
3879 
3997 
3985 
3901 
3884 
3989 
4005 
3999 
3983 
3992 
3985 
3974 
3957 
3956 
3995 
3939 
3917 
3946 
4009 
4004 
4023 
3985 
3999 
3888 
3900 
3876 
3982 
4020 
3945 
3970 
3918 
3962 
4022 
3962 
3982 
4001 
3971 
3904 
3953 
3960 
3925 
3916 
3960 
4062 
4112 
4160 
4225 
4246 
4237 
4178 
4171 
4052 
3915 
3853 
3804 
3854 
3928 
3981 
4028 
3961 
4067 
4076 
4015 
4024 
4060 
4035 
4046 
4033 
4048 
4012 
3989 
4068 
4061 
4061 
4114 
4077 
3989 
4010 
4065 
4042 
4038 
4087 
4041 
4106 
4157 
4135 
4210 
4109 
4079 
4101 
4086 
4120 
4133 
4170 
4130 
4116 
4121 
4215 
4239 
4197 
4227 
4227 
4253 
4226 
4233 
4244 
4190 
4169 
4191 
4196 
4187 
4258 
4203 
4189 
4227 
4295 
4239 
4211 
4262 
4217 
4107 
4062 
4195 
4096 
4009 
3975 
3962 
3998 
3947 
3894 
3970 
3989 
3940 
3889 
3887 
3936 
3971 
3972 
3904 
3916 
3902 
3862 
3870 
3940 
3944 
3925 
3916 
3918 
3926 
3924 
3876 
3889 
3996 
3974 
3914 
3943 
3997 
3978 
4085 
4102 
4091 
4072 
4032 
4063 
4065 
4075 
3980 
3974 
3988 
4027 
3965 
3965 
4082 
4016 
3951 
3999 
3946 
3976 
4038 
3955 
3988 
4019 
4013 
3953 
3985 
3994 
3961 
3961 
3920 
3898 
3944 
3944 
3964 
3945 
3903 
3967 
3996 
3932 
3937 
3929 
3886 
3995 
3999 
3948 
3894 
3954 
3927 
3957 
3936 
3965 
4027 
3943 
3867 
3923 
3970 
3922 
3932 
3953 
4046 
3976 
3936 
3902 
3955 
3980 
3922 
3891 
3907 
3952 
3911 
3897 
3919 
3968 
4051 
3939 
3920 
4000 
3980 
3935 
3926 
3934 
3894 
3933 
3951 
3917 
3937 
3995 
3937 
3929 
3958 
3945 
3928 
3976 
3971 
3958 
3968 
3943 
4027 
4030 
3939 
3966 
3994 
3975 
3895 
3957 
3921 
3868 
3934 
3928 
3876 
3842 
3861 
3912 
3916 
3919 
3891 
3914 
3978 
3930 
3926 
3913 
3917 
4015 
4043 
4145 
4208 
4182 
4110 
4044 
4125 
4116 
3934 
3726 
3754 
3856 
3892 
3931 
3973 
3980 
3917 
3963 
3937 
3988 
4021 
3950 
3959 
3961 
3963 
3963 
3909 
3960 
3927 
3894 
3953 
3976 
3980 
4057 
3996 
3938 
4031 
4047 
4012 
4030 
4044 
4050 
3949 
3960 
4023 
4003 
4031 
3981 
4000 
4054 
4115 
4026 
4021 
4054 
4094 
4075 
4118 
4120 
4152 
4162 
4138 
4179 
4041 
3925 
4014 
4144 
4149 
4159 
4126 
4129 
4190 
4191 
4140 
4109 
4064 
4006 
4018 
3970 
4006 
4018 
3960 
3884 
3898 
3901 
3877 
3861 
3865 
3883 
3891 
3882 
3872 
3902 
3857 
3796 
3844 
3921 
3884 
3814 
3830 
3852 
3892 
3862 
3897 
3946 
3952 
3896 
3922 
3956 
3859 
3855 
3857 
3946 
3951 
3894 
4020 
4187 
4067 
3943 
3975 
4083 
4089 
3983 
3997 
4015 
4008 
3968 
3906 
3862 
3938 
3949 
3906 
3939 
3988 
3968 
3907 
3912 
3937 
3936 
3937 
3956 
3959 
3883 
3866 
3981 
3989 
3925 
3916 
3908 
3936 
3916 
3959 
3900 
3928 
3945 
3911 
3828 
3898 
3899 
3910 
4007 
3871 
3943 
3972 
3961 
3952 
3975 
3997 
3932 
3887 
3895 
3919 
3947 
3978 
3965 
3965 
3957 
3918 
3899 
3985 
3949 
3919 
3967 
4017 
3986 
3849 
3910 
4001 
3994 
3949 
3973 
3988 
4018 
3916 
3933 
3922 
3918 
3922 
3928 
3911 
3969 
4016 
3921 
3925 
3930 
3949 
3954 
3906 
3979 
4032 
3991 
3901 
3936 
3952 
3903 
3957 
3948 
3949 
3938 
3978 
3966 
3913 
3896 
3913 
3922 
3896 
3915 
3888 
3895 
3870 
3850 
3864 
3871 
3911 
3924 
3903 
3852 
3883 
3877 
3895 
3906 
3946 
4092 
4177 
4175 
4152 
4045 
3915 
3907 
3844 
3752 
3667 
3655 
3723 
3853 
3871 
3874 
3874 
3881 
3942 
3859 
3854 
3866 
3934 
3883 
3828 
3852 
3876 
3917 
3869 
3881 
3918 
3887 
3908 
3944 
3954 
3918 
3843 
3729 
3788 
3778 
3789 
3778 
3834 
3865 
3873 
3858 
3854 
3915 
3868 
3839 
3850 
3949 
3929 
3880 
3999 
3927 
3934 
3966 
3942 
4039 
4029 
3991 
4005 
4027 
4013 
3993 
4147 
4148 
4089 
4109 
4087 
4069 
4099 
4070 
4015 
4049 
4032 
3948 
3936 
3916 
3885 
3896 
3827 
3848 
3855 
3825 
3797 
3808 
3760 
3824 
3834 
3805 
3831 
3827 
3763 
3803 
3774 
3806 
3821 
3761 
3812 
3837 
3843 
3813 
3852 
3854 
3815 
3827 
3887 
3854 
3829 
3791 
3798 
3863 
3883 
3823 
3818 
3827 
3825 
3824 
3835 
3842 
3830 
3823 
3909 
4013 
4005 
3964 
3937 
3960 
3991 
3982 
3932 
3924 
3957 
3914 
3873 
3847 
3914 
3873 
3916 
3901 
3937 
3949 
3888 
3920 
3913 
3903 
3899 
3890 
3936 
3928 
3839 
3825 
3862 
3955 
3921 
3884 
3887 
3979 
3938 
3880 
3837 
3862 
3842 
3866 
3890 
3893 
3848 
3886 
3862 
3885 
3888 
3905 
3918 
3932 
3933 
3864 
3836 
3853 
3808 
3890 
3907 
3864 
3869 
3900 
3858 
3827 
3818 
3928 
3896 
3910 
3904 
3872 
3890 
3861 
3840 
3899 
3976 
3907 
3879 
3939 
3889 
3832 
3903 
3872 
3866 
3900 
3909 
3924 
3947 
3924 
3904 
3930 
3939 
3875 
3816 
3827 
3876 
3941 
3815 
3819 
3889 
3885 
3809 
3857 
3888 
3868 
3841 
3877 
3886 
3832 
3802 
3794 
3799 
3821 
3831 
3971 
4044 
4110 
4159 
4029 
3947 
4080 
4049 
3843 
3721 
3701 
3731 
3770 
3854 
3867 
3850 
3846 
3841 
3822 
3801 
3835 
3905 
3893 
3866 
3898 
3903 
3912 
3892 
3863 
3875 
3847 
3900 
3922 
3925 
3920 
3901 
3880 
3871 
3923 
3942 
3943 
3924 
3959 
3907 
3935 
4051 
3918 
3902 
3988 
3929 
3952 
3995 
3971 
3978 
3973 
3986 
4102 
3948 
3846 
3921 
3934 
3931 
3971 
4028 
4074 
4022 
4019 
4075 
4095 
4128 
4019 
4017 
4042 
4017 
4036 
4058 
4033 
3967 
3935 
3914 
3880 
3934 
3910 
3816 
3821 
3827 
3811 
3834 
3756 
3813 
3815 
3804 
3826 
3785 
3782 
3759 
3814 
3841 
3782 
3752 
3750 
3755 
3809 
3812 
3804 
3771 
3821 
3855 
3792 
3752 
3780 
3814 
3832 
3837 
3831 
3828 
3822 
3738 
3775 
3825 
3795 
3769 
3823 
3903 
3865 
3768 
3807 
3803 
3788 
3781 
3804 
3793 
3738 
3777 
3813 
3775 
3823 
3767 
3768 
3817 
3801 
3818 
3801 
3804 
3775 
3783 
3806 
3784 
3838 
3751 
3795 
3874 
3801 
3757 
3760 
3781 
3860 
3749 
3761 
3818 
3814 
3826 
3778 
3795 
3800 
3832 
3759 
3763 
3773 
3785 
3800 
3874 
3758 
3802 
3768 
3819 
3814 
3816 
3765 
3773 
3770 
3787 
3737 
3749 
3777 
3790 
3798 
3825 
3780 
3782 
3810 
3760 
3769 
3778 
3794 
3779 
3794 
3740 
3767 
3778 
3762 
3748 
3795 
3784 
3770 
3796 
3772 
3761 
3757 
3798 
3827 
3819 
3776 
3731 
3798 
3789 
3848 
3816 
3802 
3814 
3798 
3814 
3841 
3787 
3717 
3745 
3790 
3815 
3776 
3822 
3808 
3770 
3741 
3731 
3783 
3791 
3773 
3737 
3747 
3766 
3745 
3749 
3752 
3760 
3737 
3668 
3694 
3777 
3780 
3844 
4035 
4128 
4067 
3977 
3946 
3994 
3876 
3686 
3531 
3631 
3724 
3733 
3842 
3807 
3797 
3803 
3736 
3779 
3845 
3905 
3924 
3847 
3889 
3824 
3804 
3825 
3775 
3849 
3859 
3805 
3858 
3850 
3776 
3856 
3844 
3855 
3860 
3854 
3812 
3833 
3912 
3927 
3857 
3844 
3859 
3941 
3920 
3893 
3955 
3908 
3856 
3911 
3954 
3975 
3961 
3979 
3980 
3959 
3962 
4072 
4104 
4066 
4057 
4110 
4140 
4164 
4125 
4118 
4130 
4112 
4094 
4044 
4003 
4058 
4064 
3990 
4011 
4041 
3963 
3826 
3813 
3862 
3925 
3803 
3823 
3886 
3803 
3823 
3791 
3788 
3813 
3769 
3795 
3821 
3862 
3773 
3754 
3787 
3791 
3818 
3844 
3853 
3883 
3839 
3798 
3832 
3874 
3809 
3813 
3815 
3788 
3782 
3810 
3805 
3851 
3817 
3822 
3819 
3878 
3873 
3760 
3700 
3827 
3917 
3832 
3790 
3812 
3839 
3853 
3844 
3877 
3861 
3842 
3804 
3735 
3766 
3846 
3836 
3847 
3826 
3846 
3794 
3810 
3864 
3851 
3846 
3818 
3870 
3830 
3821 
3840 
3853 
3839 
3840 
3799 
3762 
3806 
3801 
3801 
3875 
3855 
3835 
3871 
3858 
3824 
3805 
3811 
3865 
3881 
3870 
3855 
3870 
3806 
3822 
3794 
3782 
3831 
3887 
3866 
3830 
3771 
3851 
3913 
3885 
3807 
3782 
3912 
3888 
3858 
3805 
3795 
3790 
3855 
3875 
3884 
3820 
3818 
3811 
3831 
3903 
3856 
3836 
3836 
3859 
3879 
3877 
3905 
3811 
3824 
3859 
3867 
3910 
3853 
3824 
3869 
3893 
3880 
3858 
3894 
3902 
3865 
3860 
3903 
3899 
3848 
3830 
3819 
3854 
3854 
3858 
3840 
3880 
3849 
3769 
3823 
3832 
3849 
3873 
3850 
3884 
3885 
3816 
3765 
3844 
3941 
3975 
4046 
4144 
4130 
4051 
4044 
3940 
3978 
3898 
3716 
3674 
3706 
3792 
3804 
3860 
3967 
3905 
3847 
3897 
3960 
3905 
3872 
3855 
3880 
3921 
3832 
3855 
3913 
4019 
3958 
3926 
3945 
3960 
3868 
3908 
3980 
3970 
3974 
3996 
3988 
3964 
3911 
3920 
3944 
3980 
3963 
4020 
3929 
3960 
4017 
4063 
4036 
4080 
4079 
4062 
4033 
4030 
4126 
4059 
4002 
4108 
4150 
4171 
4123 
4153 
4174 
4209 
4190 
4138 
4235 
4250 
4172 
4166 
4215 
4170 
4124 
4160 
4135 
4015 
3990 
3979 
3961 
4035 
3976 
3924 
3917 
3959 
3934 
3883 
3871 
3927 
3944 
3933 
3917 
3941 
3958 
3908 
3901 
3912 
3895 
3915 
3859 
3888 
3980 
3902 
3889 
3922 
3950 
3917 
3899 
3968 
3958 
3953 
3938 
3889 
3901 
3920 
3885 
3897 
3868 
3902 
3970 
3917 
3936 
3986 
3932 
3903 
3959 
3930 
3828 
3861 
3875 
3930 
3906 
3940 
3954 
3917 
3929 
3882 
3874 
3944 
3934 
3893 
3901 
3920 
3915 
3882 
3931 
4019 
3962 
3906 
3835 
3867 
3901 
3926 
3884 
3944 
3941 
3964 
3894 
3933 
3965 
3950 
3916 
3896 
3883 
3931 
3914 
3909 
4007 
3988 
3860 
3869 
3869 
3859 
3914 
3946 
3963 
3971 
3948 
3878 
3923 
3936 
3876 
3905 
3936 
3961 
3936 
3919 
3949 
3908 
3889 
3876 
3889 
3980 
3985 
3879 
3957 
3921 
3918 
3943 
3940 
3958 
3912 
3917 
3917 
3905 
3913 
3930 
3927 
3992 
3985 
3946 
3915 
3942 
4046 
3982 
3958 
3925 
3946 
3956 
3950 
3927 
3992 
3979 
4009 
3976 
3956 
4000 
3887 
3901 
3933 
3938 
3999 
3966 
3851 
3891 
3993 
3922 
3940 
3971 
3934 
3946 
3925 
3917 
3897 
3925 
3976 
4032 
4102 
4187 
4262 
4133 
4080 
4143 
4103 
4019 
3826 
3749 
3816 
3900 
4040 
3981 
3937 
3931 
3914 
3966 
3974 
3932 
3992 
3963 
3927 
4008 
4004 
4006 
4023 
4008 
3988 
4010 
3989 
4024 
4043 
3983 
3963 
3989 
4022 
4046 
4046 
4029 
4098 
4056 
4009 
4045 
4008 
4048 
4076 
4146 
4085 
4052 
4150 
4141 
4057 
4064 
4127 
4134 
4136 
4150 
4167 
4173 
4192 
4205 
4225 
4231 
4233 
4266 
4247 
4286 
4292 
4239 
4281 
4294 
4213 
4218 
4221 
4232 
4222 
4176 
4132 
4152 
4089 
4008 
3971 
4082 
4146 
4030 
3950 
3989 
3971 
4015 
4021 
4043 
4067 
4011 
3992 
4027 
4005 
3973 
3986 
3996 
4049 
4016 
3984 
3962 
4025 
4061 
3987 
4029 
4035 
4064 
4034 
3995 
4060 
4032 
3997 
4000 
4004 
3972 
4005 
4036 
4022 
4040 
3980 
3953 
3970 
4020 
4022 
3972 
4009 
4062 
4030 
3975 
3990 
4007 
4006 
3996 
3982 
4040 
4090 
4004 
3954 
3990 
4036 
3995 
3977 
3950 
3997 
3989 
3968 
4003 
3966 
3996 
3976 
4069 
4085 
3989 
3963 
3989 
3981 
3965 
3955 
3974 
4074 
4011 
3967 
3983 
3929 
3995 
4023 
3960 
3966 
4018 
4026 
4009 
3988 
4024 
3990 
3960 
3972 
4014 
3944 
3949 
4036 
4011 
4052 
3969 
3996 
4023 
4007 
3956 
3972 
4030 
4053 
3977 
4014 
3999 
3998 
4040 
3962 
3980 
3975 
3970 
3950 
3943 
4047 
4049 
3929 
3987 
4111 
4042 
4028 
4025 
4015 
4037 
4011 
4013 
4083 
4014 
3964 
3942 
3994 
4053 
4065 
4007 
4070 
4060 
4041 
4071 
4056 
4026 
4099 
4013 
4039 
4067 
4043 
4079 
4030 
3988 
3996 
3991 
3902 
3965 
4012 
4096 
4030 
3973 
4038 
4033 
4013 
3928 
3992 
4038 
4030 
4062 
4014 
4131 
4221 
4279 
4306 
4219 
4155 
4164 
4174 
4067 
3868 
3849 
3933 
4015 
4052 
4074 
4063 
4075 
4052 
3985 
3998 
3985 
3977 
4015 
4097 
4059 
4108 
4071 
4096 
4108 
4122 
4082 
4093 
4166 
4171 
4090 
4062 
4064 
4095 
4135 
4045 
4029 
4126 
4215 
4165 
4152 
4205 
4176 
4160 
4184 
4208 
4212 
4136 
4164 
4238 
4265 
4191 
4246 
4293 
4292 
4275 
4312 
4313 
4310 
4340 
4331 
4304 
4366 
4378 
4338 
4352 
4410 
4406 
4339 
4374 
4375 
4348 
4291 
4266 
4255 
4164 
4144 
4148 
4176 
4130 
4046 
4034 
4035 
4174 
4147 
4128 
4122 
4098 
4115 
4083 
4070 
4036 
4089 
4059 
4112 
4079 
4013 
4027 
4061 
4048 
4123 
4111 
4057 
4053 
4114 
4092 
4083 
4132 
4121 
4066 
4045 
4090 
4127 
4068 
4054 
4105 
4109 
3993 
3999 
4012 
4062 
4035 
4054 
4093 
4117 
4141 
4092 
4047 
4062 
4060 
4091 
4069 
4079 
4044 
4027 
4054 
4119 
4068 
4011 
4029 
4067 
4060 
4021 
4073 
4112 
4108 
4093 
4042 
3994 
4048 
4104 
4086 
4089 
4062 
4016 
4055 
4004 
4040 
4071 
4080 
4047 
4051 
4106 
4053 
4054 
4088 
4122 
4100 
4041 
4023 
4082 
4106 
4048 
4069 
4067 
4049 
4023 
4016 
4055 
4035 
4056 
4088 
4082 
4058 
4067 
4065 
4041 
4079 
4120 
3997 
4027 
4113 
4081 
4019 
3989 
4053 
4088 
4053 
3992 
4056 
4103 
4076 
4076 
4080 
4099 
4062 
4063 
4088 
4033 
4081 
4043 
4074 
4158 
4116 
4047 
4071 
4037 
4064 
4126 
4019 
4029 
4057 
4074 
4053 
4068 
4110 
4055 
4021 
4057 
4085 
4053 
4021 
4085 
4097 
4021 
3957 
4012 
4093 
4111 
4170 
4193 
4373 
4411 
4316 
4231 
4264 
4215 
4053 
3896 
3906 
3928 
4016 
4041 
4026 
4072 
4053 
4101 
4107 
4087 
4083 
4057 
4126 
4126 
4089 
4087 
4134 
4133 
4189 
4177 
4110 
4122 
4161 
4207 
4146 
4086 
4128 
4119 
4108 
4138 
4156 
4176 
4165 
4134 
4154 
4174 
4159 
4232 
4251 
4224 
4170 
4201 
4269 
4225 
4282 
4255 
4228 
4315 
4266 
4235 
4301 
4350 
4322 
4328 
4355 
4379 
4431 
4409 
4402 
4429 
4366 
4397 
4412 
4354 
4340 
4318 
4328 
4299 
4305 
4270 
4168 
4192 
4149 
4138 
4160 
4141 
4117 
4086 
4066 
4116 
4161 
4093 
4101 
4092 
4087 
4045 
4103 
4132 
4031 
4059 
4136 
4100 
4093 
4126 
4130 
4046 
4135 
4143 
4121 
4109 
4123 
4107 
4042 
4076 
4114 
4151 
4120 
4087 
4072 
4092 
4084 
4045 
4061 
4085 
4084 
4038 
4187 
4139 
4125 
4070 
4106 
4130 
4148 
4152 
4050 
4052 
4077 
4146 
4183 
4133 
4132 
4055 
4095 
4123 
4108 
4110 
4085 
4126 
4149 
4099 
4105 
4094 
4150 
4145 
4118 
4132 
4127 
4138 
4094 
4156 
4125 
4088 
4106 
4115 
4152 
4141 
4158 
4096 
4098 
4171 
4144 
4083 
4085 
4181 
4181 
4141 
4161 
4182 
4136 
4065 
4151 
4113 
4133 
4198 
4122 
4162 
4181 
4123 
4118 
4127 
4136 
4190 
4189 
4188 
4159 
4183 
4115 
4159 
4152 
4100 
4113 
4145 
4194 
4206 
4181 
4144 
4142 
4129 
4176 
4151 
4166 
4149 
4158 
4213 
4214 
4121 
4123 
4197 
4187 
4133 
4124 
4118 
4173 
4209 
4210 
4246 
4251 
4198 
4164 
4173 
4171 
4152 
4194 
4175 
4094 
4085 
4180 
4115 
4129 
4131 
4151 
4104 
4138 
4164 
4156 
4136 
4136 
4123 
4165 
4198 
4265 
4425 
4508 
4454 
4354 
4350 
4365 
4311 
4106 
3938 
4004 
4075 
4166 
4198 
4192 
4246 
4195 
4219 
4161 
4163 
4209 
4180 
4219 
4219 
4205 
4175 
4203 
4270 
4263 
4202 
4228 
4317 
4305 
4291 
4271 
4248 
4243 
4231 
4281 
4258 
4279 
4286 
4272 
4305 
4288 
4324 
4355 
4341 
4368 
4340 
4337 
4378 
4353 
4389 
4427 
4436 
4425 
4409 
4437 
4455 
4457 
4501 
4503 
4478 
4545 
4566 
4577 
4531 
4515 
4510 
4539 
4517 
4511 
4553 
4555 
4520 
4461 
4476 
4432 
4331 
4340 
4343 
4377 
4259 
4254 
4243 
4221 
4236 
4216 
4225 
4234 
4254 
4211 
4296 
4248 
4238 
4224 
4233 
4210 
4217 
4280 
4212 
4243 
4252 
4153 
4237 
4268 
4264 
4186 
4178 
4173 
4199 
4243 
4183 
4230 
4268 
4223 
4220 
4209 
4223 
4229 
4225 
4231 
4147 
4254 
4240 
4200 
4233 
4197 
4178 
4212 
4167 
4193 
4249 
4277 
4248 
4254 
4169 
4161 
4203 
4262 
4238 
4242 
4212 
4176 
4194 
4209 
4182 
4214 
4133 
4172 
4174 
4182 
4185 
4249 
4200 
4215 
4286 
4293 
4240 
4188 
4267 
4264 
4231 
4186 
4193 
4168 
4155 
4157 
4259 
4294 
4236 
4166 
4221 
4213 
4250 
4186 
4155 
4221 
4275 
4234 
4236 
4326 
4229 
4183 
4231 
4233 
4273 
4268 
4231 
4244 
4215 
4172 
4186 
4204 
4265 
4249 
4255 
4306 
4285 
4257 
4199 
4253 
4293 
4229 
4226 
4292 
4319 
4233 
4178 
4198 
4266 
4246 
4214 
4285 
4312 
4266 
4247 
4264 
4268 
4269 
4286 
4246 
4319 
4379 
4348 
4321 
4294 
4257 
4252 
4233 
4229 
4235 
4231 
4286 
4275 
4239 
4282 
4239 
4246 
4291 
4312 
4252 
4239 
4238 
4255 
4242 
4303 
4433 
4596 
4587 
4497 
4429 
4470 
4426 
4330 
4231 
4145 
4078 
4076 
4193 
4263 
4290 
4270 
4299 
4307 
4302 
4295 
4301 
4318 
4331 
4348 
4276 
4253 
4292 
4397 
4304 
4299 
4394 
4376 
4287 
4302 
4360 
4332 
4335 
4377 
4339 
4307 
4394 
4392 
4442 
4335 
4390 
4360 
4379 
4430 
4461 
4449 
4467 
4469 
4436 
4428 
4455 
4476 
4532 
4532 
4520 
4524 
4534 
4488 
4528 
4602 
4600 
4551 
4602 
4635 
4653 
4604 
4641 
4672 
4674 
4622 
4619 
4596 
4571 
4564 
4498 
4492 
4445 
4451 
4395 
4363 
4332 
4430 
4481 
4398 
4420 
4365 
4359 
4305 
4310 
4331 
4302 
4345 
4378 
4374 
4372 
4352 
4376 
4411 
4410 
4359 
4369 
4357 
4314 
4291 
4346 
4367 
4385 
4357 
4398 
4402 
4327 
4321 
4384 
4355 
4414 
4429 
4376 
4379 
4413 
4372 
4382 
4420 
4379 
4368 
4379 
4381 
4399 
4429 
4362 
4333 
4373 
4420 
4352 
4370 
4418 
4417 
4424 
4417 
4406 
4429 
4422 
4362 
4346 
4437 
4381 
4383 
4331 
4375 
4343 
4335 
4407 
4417 
4420 
4411 
4393 
4382 
4404 
4417 
4409 
4340 
4372 
4418 
4310 
4405 
4407 
4414 
4435 
4439 
4390 
4431 
4362 
4377 
4410 
4382 
4340 
4397 
4425 
4445 
4330 
4469 
4459 
4414 
4442 
4352 
4415 
4435 
4389 
4400 
4367 
4355 
4374 
4379 
4420 
4426 
4408 
4411 
4434 
4437 
4562 
4613 
4596 
4542 
4540 
4469 
4446 
4485 
4524 
4490 
4450 
4478 
4485 
4474 
4451 
4468 
4411 
4422 
4392 
4369 
4415 
4434 
4395 
4406 
4446 
4455 
4407 
4395 
4472 
4431 
4383 
4401 
4407 
4383 
4429 
4424 
4524 
4670 
4729 
4655 
4600 
4624 
4590 
4539 
4359 
4212 
4292 
4301 
4374 
4466 
4469 
4458 
4448 
4427 
4372 
4381 
4428 
4457 
4453 
4391 
4422 
4473 
4428 
4524 
4476 
4403 
4481 
4448 
4497 
4542 
4497 
4448 
4436 
4469 
4517 
4488 
4509 
4507 
4503 
4554 
4529 
4545 
4517 
4534 
4556 
4504 
4526 
4552 
4559 
4592 
4597 
4636 
4622 
4585 
4577 
4687 
4743 
4648 
4722 
4769 
4724 
4720 
4778 
4728 
4750 
4762 
4714 
4780 
4804 
4739 
4714 
4657 
4700 
4669 
4586 
4615 
4595 
4552 
4493 
4458 
4453 
4462 
4487 
4402 
4367 
4347 
4339 
4341 
4360 
4331 
4358 
4355 
4349 
4409 
4398 
4413 
4448 
4433 
4401 
4361 
4342 
4364 
4465 
4468 
4469 
4397 
4398 
4416 
4438 
4508 
4439 
4408 
4392 
4425 
4404 
4362 
4450 
4475 
4387 
4395 
4423 
4477 
4480 
4451 
4410 
4456 
4417 
4523 
4492 
4456 
4453 
4436 
4381 
4445 
4459 
4403 
4372 
4457 
4472 
4469 
4469 
4464 
4479 
4465 
4439 
4420 
4501 
4511 
4514 
4401 
4396 
4452 
4448 
4451 
4499 
4460 
4484 
4462 
4527 
4599 
4610 
4612 
4571 
4631 
4585 
4461 
4531 
4595 
4569 
4560 
4522 
4555 
4572 
4517 
4474 
4529 
4510 
4563 
4602 
4559 
4595 
4559 
4519 
4591 
4628 
4524 
4488 
4533 
4510 
4528 
4496 
4466 
4555 
4604 
4538 
4527 
4528 
4558 
4487 
4501 
4550 
4612 
4584 
4520 
4499 
4543 
4583 
4527 
4498 
4524 
4513 
4492 
4422 
4454 
4594 
4593 
4492 
4476 
4530 
4584 
4578 
4519 
4591 
4570 
4560 
4531 
4649 
4625 
4547 
4544 
4550 
4503 
4451 
4476 
4471 
4516 
4441 
4469 
4487 
4463 
4536 
4505 
4419 
4452 
4416 
4451 
4459 
4479 
4435 
4427 
4487 
4534 
4660 
4739 
4756 
4712 
4678 
4608 
4574 
4526 
4299 
4188 
4373 
4453 
4447 
4459 
4456 
4440 
4464 
4392 
4377 
4434 
4468 
4499 
4423 
4414 
4423 
4514 
4500 
4456 
4464 
4433 
4482 
4506 
4458 
4451 
4456 
4430 
4484 
4442 
4471 
4440 
4449 
4507 
4534 
4486 
4460 
4399 
4485 
4468 
4461 
4484 
4507 
4501 
4581 
4550 
4580 
4569 
4549 
4475 
4553 
4585 
4588 
4573 
4643 
4591 
4635 
4623 
4631 
4638 
4597 
4616 
4693 
4713 
4637 
4645 
4594 
4580 
4549 
4526 
4445 
4277 
4315 
4338 
4261 
4262 
4270 
4232 
4271 
4279 
4248 
4196 
4241 
4258 
4253 
4264 
4296 
4270 
4218 
4230 
4256 
4300 
4300 
4257 
4259 
4300 
4279 
4236 
4239 
4270 
4336 
4320 
4286 
4277 
4288 
4225 
4281 
4303 
4286 
4272 
4199 
4231 
4287 
4348 
4341 
4347 
4279 
4280 
4301 
4301 
4221 
4265 
4330 
4243 
4286 
4318 
4255 
4230 
4283 
4367 
4321 
4309 
4293 
4233 
4276 
4330 
4302 
4308 
4327 
4284 
4248 
4294 
4350 
4307 
4251 
4290 
4328 
4264 
4305 
4328 
4328 
4303 
4273 
4290 
4488 
4537 
4449 
4408 
4411 
4440 
4394 
4360 
4352 
4421 
4415 
4371 
4348 
4413 
4385 
4371 
4392 
4391 
4369 
4404 
4439 
4472 
4374 
4364 
4394 
4334 
4342 
4356 
4330 
4369 
4399 
4328 
4341 
4414 
4429 
4389 
4349 
4403 
4432 
4367 
4354 
4332 
4386 
4417 
4350 
4370 
4440 
4421 
4389 
4451 
4443 
4393 
4371 
4377 
4423 
4413 
4399 
4427 
4430 
4385 
4384 
4344 
4351 
4344 
4417 
4400 
4321 
4428 
4366 
4326 
4364 
4381 
4385 
4374 
4395 
4388 
4339 
4378 
4363 
4390 
4397 
4429 
4474 
4549 
4706 
4729 
4584 
4516 
4576 
4480 
4325 
4281 
4227 
4264 
4333 
4381 
4412 
4378 
4394 
4403 
4400 
4382 
4447 
4456 
4437 
4473 
4445 
4392 
4491 
4464 
4439 
4441 
4440 
4451 
4436 
4512 
4461 
4496 
4507 
4450 
4513 
4505 
4532 
4472 
4538 
4550 
4533 
4533 
4526 
4516 
4537 
4570 
4536 
4596 
4611 
4589 
4600 
4616 
4646 
4626 
4563 
4638 
4698 
4697 
4732 
4730 
4745 
4648 
4702 
4849 
4806 
4793 
4701 
4720 
4750 
4711 
4677 
4707 
4648 
4650 
4610 
4469 
4412 
4398 
4356 
4409 
4365 
4374 
4378 
4394 
4450 
4390 
4281 
4383 
4408 
4395 
4420 
4339 
4316 
4386 
4409 
4395 
4339 
4392 
4399 
4371 
4434 
4456 
4416 
4416 
4496 
4455 
4448 
4463 
4390 
4372 
4413 
4393 
4418 
4384 
4409 
4492 
4441 
4377 
4380 
4420 
4406 
4357 
4410 
4433 
4494 
4442 
4317 
4406 
4413 
4421 
4357 
4392 
4418 
4408 
4413 
4417 
4409 
4356 
4400 
4430 
4359 
4372 
4422 
4402 
4393 
4366 
4375 
4444 
4561 
4531 
4509 
4555 
4595 
4445 
4370 
4360 
4443 
4515 
4416 
4452 
4568 
4463 
4429 
4445 
4424 
4401 
4409 
4468 
4478 
4472 
4437 
4360 
4376 
4470 
4504 
4381 
4421 
4480 
4442 
4390 
4379 
4424 
4483 
4410 
4440 
4487 
4457 
4450 
4495 
4454 
4397 
4397 
4413 
4473 
4487 
4505 
4454 
4421 
4489 
4531 
4466 
4480 
4455 
4505 
4459 
4453 
4454 
4483 
4452 
4472 
4466 
4461 
4460 
4476 
4489 
4532 
4448 
4416 
4423 
4477 
4459 
4410 
4447 
4475 
4465 
4451 
4440 
4415 
4409 
4380 
4480 
4459 
4492 
4626 
4698 
4793 
4780 
4671 
4615 
4633 
4602 
4481 
4344 
4253 
4338 
4471 
4520 
4557 
4531 
4505 
4445 
4489 
4511 
4575 
4506 
4515 
4549 
4567 
4542 
4562 
4570 
4518 
4491 
4506 
4585 
4629 
4576 
4566 
4562 
4547 
4581 
4591 
4622 
4530 
4692 
4719 
4688 
4591 
4628 
4631 
4670 
4686 
4633 
4569 
4649 
4709 
4667 
4675 
4601 
4740 
4755 
4679 
4690 
4707 
4776 
4774 
4707 
4770 
4804 
4745 
4759 
4815 
4809 
4797 
4804 
4801 
4680 
4598 
4631 
4555 
4615 
4598 
4512 
4485 
4494 
4449 
4432 
4435 
4414 
4409 
4406 
4435 
4399 
4415 
4386 
4441 
4452 
4424 
4414 
4401 
4349 
4385 
4422 
4395 
4394 
4382 
4324 
4359 
4408 
4451 
4416 
4346 
4421 
4405 
4444 
4343 
4339 
4403 
4429 
4445 
4453 
4446 
4416 
4369 
4484 
4477 
4467 
4429 
4356 
4407 
4479 
4503 
4460 
4377 
4485 
4685 
4670 
4626 
4572 
4540 
4549 
4482 
4553 
4521 
4443 
4496 
4501 
4577 
4591 
4514 
4464 
4474 
4540 
4521 
4487 
4469 
4450 
4482 
4547 
4484 
4462 
4555 
4524 
4474 
4499 
4486 
4398 
4437 
4488 
4451 
4424 
4512 
4510 
4541 
4533 
4489 
4517 
4526 
4483 
4546 
4487 
4423 
4536 
4416 
4487 
4545 
4470 
4406 
4482 
4515 
4461 
4500 
4467 
4520 
4448 
4437 
4485 
4475 
4495 
4532 
4427 
4484 
4485 
4401 
4461 
4519 
4490 
4440 
4440 
4480 
4432 
4471 
4528 
4528 
4448 
4414 
4467 
4506 
4517 
4552 
4563 
4487 
4501 
4465 
4466 
4468 
4483 
4509 
4498 
4487 
4510 
4485 
4513 
4471 
4476 
4510 
4457 
4512 
4498 
4445 
4448 
4398 
4403 
4517 
4544 
4484 
4459 
4461 
4451 
4437 
4449 
4463 
4493 
4461 
4497 
4602 
4683 
4770 
4827 
4704 
4727 
4696 
4629 
4513 
4371 
4362 
4423 
4479 
4570 
4548 
4492 
4566 
4587 
4552 
4531 
4522 
4552 
4581 
4563 
4498 
4572 
4558 
4546 
4553 
4622 
4669 
4617 
4604 
4573 
4642 
4653 
4649 
4614 
4669 
4661 
4606 
4604 
4627 
4683 
4700 
4705 
4739 
4653 
4613 
4640 
4688 
4846 
4804 
4755 
4770 
4798 
4747 
4739 
4736 
4780 
4818 
4797 
4822 
4835 
4868 
4913 
4867 
4939 
4951 
4841 
4715 
4751 
4761 
4755 
4822 
4793 
4742 
4693 
4762 
4658 
4676 
4645 
4615 
4638 
4581 
4510 
4499 
4604 
4551 
4546 
4586 
4546 
4495 
4554 
4553 
4560 
4573 
4631 
4588 
4600 
4553 
4590 
4557 
4563 
4615 
4594 
4556 
4537 
4608 
4600 
4561 
4642 
4581 
4594 
4645 
4635 
4616 
4676 
4636 
4614 
4605 
4646 
4623 
4652 
4636 
4703 
4740 
4798 
4802 
4770 
4816 
4744 
4667 
4717 
4731 
4704 
4705 
4708 
4720 
4728 
4710 
4693 
4703 
4756 
4723 
4634 
4718 
4694 
4660 
4665 
4683 
4709 
4672 
4624 
4685 
4703 
4711 
4649 
4649 
4705 
4719 
4670 
4707 
4713 
4692 
4692 
4639 
4711 
4760 
4668 
4661 
4736 
4725 
4683 
4630 
4693 
4720 
4680 
4684 
4735 
4759 
4689 
4674 
4726 
4737 
4770 
4703 
4694 
4693 
4683 
4684 
4677 
4759 
4721 
4672 
4790 
4728 
4752 
4714 
4734 
4725 
4804 
4796 
4759 
4758 
4763 
4706 
4717 
4684 
4745 
4758 
4732 
4757 
4784 
4758 
4710 
4711 
4723 
4762 
4766 
4772 
4788 
4726 
4735 
4696 
4692 
4791 
4758 
4707 
4713 
4681 
4751 
4708 
4705 
4806 
4783 
4786 
4903 
4974 
5077 
5016 
4926 
4923 
4884 
4784 
4639 
4583 
4582 
4658 
4644 
4761 
4757 
4837 
4725 
4742 
4808 
4859 
4781 
4829 
4840 
4817 
4780 
4774 
4812 
4782 
4762 
4784 
4809 
4825 
4869 
4898 
4808 
4849 
4869 
4816 
4808 
4923 
4806 
4855 
4928 
4949 
4936 
4896 
4875 
4875 
4874 
4934 
4957 
4955 
4953 
4902 
4882 
5008 
5077 
5009 
4976 
5007 
5138 
5060 
5018 
5070 
5111 
5092 
5063 
5078 
5146 
5123 
4970 
4961 
4959 
4950 
4994 
5015 
4978 
4932 
4852 
4852 
4869 
4853 
4795 
4767 
4754 
4749 
4738 
4790 
4784 
4744 
4734 
4747 
4707 
4734 
4784 
4781 
4799 
4791 
4769 
4766 
4745 
4767 
4721 
4674 
4715 
4840 
4800 
4731 
4751 
4799 
4832 
4796 
4812 
4793 
4798 
4721 
4792 
4788 
4752 
4835 
4845 
4812 
4938 
5042 
4966 
4926 
4894 
4876 
4923 
4816 
4806 
4854 
4832 
4847 
4800 
4819 
4869 
4851 
4869 
4908 
4890 
4830 
4850 
4848 
4767 
4777 
4826 
4870 
4858 
4794 
4797 
4858 
4794 
4746 
4761 
4814 
4860 
4860 
4824 
4787 
4773 
4805 
4833 
4765 
4780 
4842 
4786 
4792 
4862 
4801 
4747 
4821 
4794 
4806 
4798 
4759 
4760 
4807 
4785 
4755 
4805 
4826 
4805 
4779 
4799 
4772 
4807 
4767 
4844 
4870 
4811 
4783 
4791 
4818 
4751 
4702 
4832 
4821 
4814 
4832 
4788 
4810 
4869 
4885 
4789 
4783 
4802 
4813 
4782 
4863 
4945 
4887 
4825 
4833 
4825 
4828 
4845 
4824 
4856 
4855 
4821 
4771 
4850 
4858 
4754 
4801 
4858 
4854 
4740 
4806 
4851 
4811 
4789 
4752 
4771 
4749 
4799 
4777 
4773 
4753 
4717 
4743 
4810 
4858 
5008 
5126 
5116 
5029 
4999 
4995 
4926 
4801 
4625 
4646 
4690 
4830 
4855 
4798 
4793 
4857 
4825 
4794 
4786 
4833 
4812 
4824 
4866 
4767 
4816 
4869 
4827 
4882 
4910 
4891 
4821 
4830 
4912 
4945 
4905 
4953 
4904 
4955 
4889 
4900 
4906 
4944 
4940 
4896 
4956 
4971 
5009 
4982 
4894 
5012 
5004 
5038 
5020 
5018 
5036 
5018 
5022 
5061 
5075 
5072 
5064 
5103 
5189 
5133 
5087 
5051 
4941 
4915 
4994 
5102 
5126 
5061 
5057 
5011 
5060 
4977 
4933 
4978 
4961 
4906 
4895 
4796 
4801 
4859 
4847 
4773 
4780 
4774 
4822 
4768 
4875 
4885 
4836 
4756 
4810 
4879 
4836 
4742 
4780 
4788 
4759 
4731 
4793 
4813 
4825 
4836 
4839 
4880 
4852 
4822 
4827 
4863 
4836 
4862 
4870 
4887 
4865 
4846 
4941 
4952 
4967 
4938 
4934 
4886 
4887 
4985 
4964 
4935 
4950 
4951 
4912 
4910 
4960 
4861 
4814 
4898 
4913 
4888 
4835 
4845 
4906 
4896 
4878 
4894 
4830 
4883 
4903 
4884 
4860 
4855 
4865 
4782 
4850 
4955 
4846 
4822 
4859 
4936 
4866 
4842 
4808 
4801 
4826 
4874 
4842 
4835 
4844 
4897 
4823 
4846 
4880 
4840 
4840 
4836 
4920 
4910 
4826 
4861 
4806 
4856 
4798 
4873 
4906 
4885 
4882 
4811 
4804 
4893 
4858 
4774 
4867 
4903 
4856 
4721 
4784 
4873 
4877 
4876 
4839 
4826 
4755 
4849 
4859 
4923 
4935 
4882 
4860 
4834 
4851 
4883 
4820 
4812 
4862 
4854 
4872 
4864 
4871 
4905 
4898 
4810 
4844 
4842 
4839 
4866 
4839 
4844 
4879 
4839 
4872 
4908 
4840 
4825 
4848 
4826 
4831 
4833 
4815 
4854 
4890 
4895 
4958 
5107 
5194 
5104 
5022 
5037 
4968 
4892 
4826 
4751 
4717 
4685 
4776 
4944 
4933 
4889 
4886 
4918 
4919 
4951 
4928 
4913 
4967 
4930 
4877 
4921 
4996 
5021 
4929 
4935 
5021 
4970 
4961 
4977 
4953 
4954 
4943 
4998 
4945 
4976 
5007 
5020 
5072 
5005 
4981 
5007 
5040 
4979 
5011 
4995 
5058 
5091 
5094 
5017 
5031 
5075 
5050 
5097 
5108 
5097 
5172 
5164 
5056 
5029 
5043 
5056 
5025 
5082 
5139 
5120 
5079 
5053 
5117 
5149 
5066 
5062 
5094 
5051 
4955 
4999 
4999 
4954 
4928 
4878 
4880 
4861 
4880 
4864 
4831 
4841 
4820 
4815 
4860 
4881 
4927 
4924 
4897 
4864 
4849 
4847 
4921 
4848 
4814 
4943 
4946 
4930 
4869 
4866 
4901 
4982 
4919 
4931 
4941 
4916 
4984 
4956 
4903 
4935 
5232 
5121 
4997 
5017 
5035 
5015 
5032 
5052 
5070 
5115 
4940 
4988 
4972 
5035 
5019 
5054 
5021 
5011 
4955 
5016 
5020 
4930 
4956 
4962 
4924 
4877 
4952 
5018 
5024 
4994 
4977 
4980 
4978 
5038 
4932 
4919 
4982 
4960 
5015 
5010 
4929 
4889 
4972 
4974 
4949 
5006 
5050 
4976 
4949 
4962 
5025 
4971 
4974 
4995 
5026 
5011 
5026 
5007 
5027 
4992 
4986 
4952 
5000 
5012 
4987 
4932 
5049 
5128 
5085 
5047 
5067 
5090 
5113 
5041 
5036 
5041 
5005 
5017 
5030 
5084 
5086 
5026 
4962 
5084 
5068 
4992 
5042 
5054 
4989 
5007 
4973 
5029 
5060 
5047 
5038 
5003 
5020 
4937 
4925 
4999 
5038 
5057 
5075 
5237 
5276 
5337 
5339 
5266 
5208 
5205 
5086 
4901 
4816 
4895 
4959 
4986 
5080 
5103 
5061 
5094 
5099 
5113 
5100 
5052 
5084 
5118 
5089 
5096 
5071 
5046 
5148 
5131 
5107 
5117 
5100 
5145 
5151 
5156 
5162 
5112 
5083 
5161 
5240 
5197 
5145 
5170 
5183 
5167 
5194 
5221 
5237 
5270 
5199 
5205 
5212 
5174 
5249 
5243 
5244 
5272 
5308 
5318 
5330 
5216 
5145 
5288 
5239 
5311 
5344 
5316 
5316 
5354 
5362 
5349 
5325 
5355 
5365 
5296 
5226 
5215 
5164 
5158 
5197 
5172 
5056 
5095 
5110 
5113 
5134 
5052 
5080 
5105 
5106 
5021 
5042 
5079 
5106 
5011 
4973 
5068 
5095 
5126 
5059 
5067 
5095 
5121 
5061 
5067 
5123 
5160 
5104 
5105 
5146 
5071 
5086 
5168 
5270 
5291 
5203 
5223 
5248 
5286 
5212 
5179 
5181 
5240 
5183 
5153 
5156 
5174 
5198 
5174 
5171 
5189 
5152 
5133 
5121 
5229 
5253 
5169 
5157 
5167 
5153 
5112 
5139 
5173 
5212 
5207 
5187 
5242 
5194 
5183 
5169 
5204 
5198 
5115 
5168 
5176 
5245 
5237 
5131 
5193 
5200 
5137 
5125 
5212 
5312 
5247 
5196 
5159 
5259 
5284 
5203 
5171 
5242 
5236 
5244 
5212 
5248 
5260 
5245 
5206 
5222 
5239 
5227 
5220 
5205 
5280 
5302 
5242 
5239 
5242 
5257 
5238 
5266 
5332 
5327 
5293 
5302 
5295 
5311 
5288 
5280 
5284 
5230 
5237 
5318 
5351 
5373 
5271 
5210 
5291 
5278 
5256 
5218 
5263 
5308 
5265 
5255 
5250 
5246 
5234 
5247 
5262 
5250 
5279 
5301 
5335 
5425 
5549 
5637 
5578 
5501 
5515 
5547 
5391 
5249 
5101 
5147 
5206 
5351 
5354 
5324 
5277 
5329 
5390 
5387 
5340 
5315 
5360 
5414 
5319 
5317 
5323 
5327 
5366 
5415 
5421 
5431 
5400 
5422 
5415 
5428 
5412 
5327 
5413 
5456 
5379 
5404 
5453 
5453 
5466 
5477 
5439 
5426 
5453 
5486 
5469 
5469 
5518 
5418 
5330 
5372 
5447 
5484 
5460 
5446 
5539 
5601 
5507 
5566 
5580 
5603 
5628 
5633 
5599 
5588 
5608 
5625 
5605 
5634 
5596 
5509 
5575 
5601 
5529 
5486 
5422 
5465 
5444 
5384 
5368 
5388 
5357 
5375 
5417 
5337 
5375 
5400 
5239 
5325 
5360 
5395 
5386 
5332 
5393 
5374 
5369 
5375 
5431 
5427 
5387 
5397 
5430 
5384 
5389 
5370 
5428 
5419 
5388 
5431 
5494 
5568 
5564 
5493 
5483 
5507 
5506 
5464 
5443 
5483 
5482 
5433 
5439 
5491 
5524 
5485 
5519 
5439 
5451 
5498 
5496 
5495 
5437 
5427 
5434 
5468 
5488 
5443 
5451 
5521 
5448 
5420 
5535 
5482 
5492 
5464 
5443 
5492 
5463 
5455 
5380 
5477 
5513 
5482 
5487 
5502 
5485 
5501 
5476 
5467 
5479 
5488 
5464 
5441 
5506 
5527 
5541 
5483 
5485 
5602 
5573 
5530 
5532 
5554 
5516 
5508 
5521 
5555 
5569 
5538 
5539 
5574 
5593 
5495 
5522 
5597 
5539 
5464 
5480 
5541 
5561 
5483 
5449 
5475 
5596 
5546 
5534 
5559 
5564 
5528 
5513 
5529 
5528 
5558 
5586 
5679 
5702 
5782 
5776 
5733 
5687 
5679 
5622 
5508 
5364 
5377 
5362 
5423 
5493 
5516 
5516 
5508 
5537 
5543 
5594 
5535 
5548 
5540 
5572 
5587 
5530 
5555 
5576 
5589 
5584 
5551 
5565 
5593 
5541 
5581 
5641 
5638 
5580 
5584 
5664 
5634 
5611 
5576 
5624 
5635 
5598 
5598 
5660 
5658 
5595 
5659 
5720 
5681 
5656 
5710 
5680 
5649 
5741 
5684 
5660 
5679 
5627 
5626 
5643 
5663 
5680 
5641 
5691 
5759 
5800 
5762 
5773 
5744 
5715 
5663 
5638 
5579 
5607 
5590 
5568 
5513 
5558 
5522 
5533 
5437 
5475 
5403 
5382 
5481 
5483 
5477 
5435 
5431 
5434 
5428 
5442 
5457 
5488 
5487 
5426 
5467 
5457 
5478 
5496 
5490 
5484 
5513 
5452 
5464 
5505 
5538 
5677 
5627 
5604 
5579 
5570 
5585 
5601 
5622 
5606 
5557 
5532 
5602 
5623 
5528 
5525 
5544 
5562 
5534 
5566 
5553 
5562 
5564 
5540 
5516 
5585 
5571 
5539 
5550 
5529 
5490 
5476 
5558 
5577 
5525 
5487 
5572 
5567 
5542 
5543 
5564 
5565 
5578 
5544 
5558 
5611 
5609 
5571 
5499 
5547 
5602 
5575 
5533 
5555 
5539 
5562 
5562 
5617 
5634 
5604 
5583 
5582 
5575 
5582 
5620 
5605 
5610 
5565 
5634 
5621 
5592 
5628 
5600 
5568 
5640 
5642 
5634 
5613 
5636 
5658 
5752 
5705 
5635 
5644 
5644 
5662 
5645 
5651 
5620 
5569 
5516 
5594 
5612 
5596 
5608 
5649 
5636 
5602 
5604 
5576 
5591 
5570 
5632 
5684 
5724 
5780 
5875 
5919 
5942 
5845 
5793 
5787 
5791 
5688 
5494 
5385 
5539 
5657 
5736 
5696 
5695 
5688 
5704 
5688 
5726 
5738 
5705 
5701 
5700 
5751 
5761 
5699 
5728 
5719 
5736 
5737 
5693 
5736 
5766 
5810 
5740 
5695 
5729 
5697 
5765 
5842 
5807 
5767 
5778 
5801 
5783 
5763 
5831 
5823 
5782 
5829 
5813 
5843 
5811 
5806 
5876 
5877 
5772 
5726 
5803 
5894 
5875 
5829 
5845 
5848 
5851 
5853 
5842 
5969 
5952 
5901 
5869 
5845 
5862 
5844 
5847 
5853 
5860 
5826 
5729 
5711 
5663 
5659 
5681 
5669 
5637 
5661 
5602 
5601 
5698 
5656 
5642 
5672 
5689 
5650 
5688 
5647 
5637 
5645 
5702 
5696 
5665 
5670 
5707 
5755 
5641 
5670 
5696 
5722 
5863 
5897 
5842 
5856 
5882 
5812 
5809 
5818 
5718 
5760 
5774 
5806 
5859 
5736 
5796 
5801 
5766 
5762 
5796 
5836 
5767 
5736 
5753 
5768 
5797 
5738 
5692 
5710 
5767 
5796 
5728 
5752 
5822 
5790 
5771 
5739 
5747 
5726 
5741 
5738 
5811 
5775 
5685 
5727 
5758 
5780 
5791 
5766 
5761 
5823 
5767 
5735 
5772 
5808 
5703 
5752 
5791 
5761 
5813 
5713 
5736 
5836 
5784 
5775 
5759 
5753 
5778 
5749 
5745 
5827 
5835 
5777 
5775 
5802 
5793 
5796 
5795 
5807 
5836 
5814 
5724 
5791 
5766 
5765 
5760 
5793 
5845 
5802 
5776 
5784 
5814 
5815 
5885 
5878 
5856 
5853 
5866 
5823 
5843 
5821 
5801 
5746 
5787 
5792 
5843 
5804 
5749 
5833 
5806 
5869 
5820 
5796 
5796 
5761 
5803 
5828 
5785 
5849 
5968 
5971 
6036 
6125 
6074 
5968 
5995 
5985 
5846 
5688 
5635 
5696 
5756 
5789 
5850 
5861 
5866 
5887 
5857 
5794 
5802 
5870 
5911 
5795 
5853 
5873 
5901 
5880 
5874 
5886 
5888 
5901 
5798 
5727 
5761 
5771 
5837 
5805 
5805 
5836 
5817 
5832 
5856 
5965 
5963 
5896 
5877 
5859 
5932 
5938 
5957 
5967 
5913 
5945 
6008 
6029 
5989 
6017 
6019 
6111 
6077 
6014 
6024 
6096 
6094 
6112 
6113 
6097 
6105 
6060 
6032 
6183 
6207 
6196 
6024 
5987 
6018 
6025 
5980 
5929 
5966 
5964 
5880 
5808 
5815 
5851 
5872 
5810 
5847 
5780 
5803 
5765 
5863 
5904 
5876 
5820 
5815 
5834 
5795 
5799 
5810 
5907 
5859 
5784 
5787 
5809 
5828 
5822 
5823 
5877 
6009 
6056 
5999 
5950 
6023 
5983 
5918 
5975 
5970 
5993 
5921 
5889 
5915 
5930 
5925 
5936 
5892 
5945 
5973 
5897 
5909 
5929 
5922 
5947 
5951 
5934 
5862 
5883 
5901 
5901 
5960 
5852 
5911 
5907 
5920 
5883 
5904 
5920 
5942 
5959 
5876 
5860 
5903 
5876 
5890 
5880 
5896 
5925 
5900 
5869 
5864 
5880 
5898 
5895 
5884 
5921 
5866 
5850 
5863 
5893 
5865 
5895 
5848 
5920 
5884 
5836 
5855 
5917 
5892 
5907 
5888 
5911 
5889 
5841 
5851 
5941 
5972 
5901 
5898 
5967 
5977 
5903 
5848 
5907 
6000 
6014 
5949 
5982 
5992 
5902 
5890 
5917 
5932 
5939 
5907 
5881 
5931 
5917 
5913 
5904 
5905 
5944 
5942 
5935 
5958 
5888 
5814 
5899 
5955 
5955 
5982 
5977 
6096 
6226 
6144 
6001 
5965 
5983 
6002 
5869 
5780 
5754 
5780 
5816 
5871 
5897 
5894 
5884 
5951 
5948 
5974 
5912 
5957 
5890 
5865 
5872 
5939 
5909 
5993 
6008 
5943 
5983 
6014 
5966 
5923 
5985 
5987 
5977 
6001 
6020 
6042 
6067 
5968 
5981 
6018 
5967 
5967 
6022 
6072 
6080 
6058 
6039 
6054 
6088 
6069 
6050 
6072 
6086 
6055 
6053 
6128 
5992 
5983 
6008 
6045 
6059 
6016 
6043 
6071 
6085 
6197 
6138 
6119 
6067 
6084 
6043 
5985 
6021 
5965 
5908 
5925 
5922 
5902 
5856 
5828 
5894 
5891 
5804 
5774 
5839 
5885 
5826 
5816 
5846 
5791 
5796 
5753 
5797 
5841 
5818 
5807 
5817 
5825 
5845 
5843 
5795 
5812 
5876 
5925 
5912 
5917 
6031 
6000 
5961 
5977 
5951 
5962 
5930 
5869 
5891 
5887 
5917 
5917 
5921 
5938 
5883 
5824 
5872 
5934 
5918 
5918 
5917 
5875 
5857 
5865 
5904 
5933 
5846 
5787 
5884 
5894 
5809 
5799 
5899 
5915 
5884 
5891 
5829 
5846 
5880 
5825 
5769 
5818 
5877 
5858 
5778 
5798 
5841 
5904 
5854 
5861 
5808 
5821 
5850 
5801 
5821 
5861 
5785 
5797 
5841 
5868 
5820 
5841 
5859 
5859 
5877 
5837 
5844 
5829 
5798 
5802 
5810 
5826 
5877 
5798 
5811 
5889 
5831 
5841 
5833 
5886 
5853 
5821 
5815 
5807 
5863 
5894 
5895 
5887 
5906 
5834 
5786 
5874 
5782 
5822 
5846 
5795 
5736 
5809 
5796 
5821 
5880 
5814 
5737 
5782 
5828 
5807 
5800 
5818 
5842 
5820 
5816 
5905 
6004 
6110 
6072 
5987 
5973 
5988 
5905 
5722 
5618 
5679 
5715 
5731 
5818 
5922 
5870 
5817 
5818 
5824 
5827 
5825 
5790 
5845 
5887 
5865 
5828 
5833 
5852 
5865 
5869 
5857 
5860 
5875 
5904 
5875 
5797 
5854 
5831 
5871 
5884 
5847 
5889 
5919 
5907 
5934 
5908 
5932 
5897 
5921 
5934 
5964 
5985 
5975 
5955 
5966 
5961 
5971 
5929 
5981 
6051 
6043 
6043 
6002 
6037 
6095 
6122 
6158 
6113 
6052 
5991 
5985 
5983 
5957 
5987 
5981 
5978 
5958 
5928 
5868 
5851 
5815 
5828 
5781 
5815 
5764 
5767 
5763 
5729 
5680 
5748 
5792 
5707 
5786 
5791 
5737 
5726 
5756 
5731 
5705 
5723 
5732 
5758 
5764 
5777 
5781 
5804 
5760 
5718 
5723 
5810 
5785 
5702 
5703 
5801 
5850 
5783 
5799 
5760 
5838 
6014 
5903 
5887 
5909 
5902 
5879 
5904 
5886 
5868 
5914 
5826 
5869 
5884 
5825 
5787 
5860 
5812 
5776 
5848 
5787 
5801 
5825 
5982 
6045 
6042 
5926 
5889 
5886 
5950 
5917 
5681 
5590 
5733 
5773 
5864 
5882 
5826 
5853 
5874 
5819 
5864 
5857 
5860 
5768 
5834 
5896 
5887 
5812 
5821 
5828 
5901 
5851 
5854 
5900 
5836 
5837 
5842 
5900 
5930 
5850 
5859 
5905 
5921 
5866 
5925 
5920 
5932 
5872 
5851 
5891 
5929 
5969 
5932 
6008 
6064 
5953 
5956 
5985 
6030 
6107 
6084 
6066 
6136 
6168 
6110 
6110 
6087 
6158 
6136 
6119 
6069 
6058 
6061 
5977 
5971 
5958 
5890 
5902 
5971 
5928 
5805 
5624 
5614 
5655 
5703 
5695 
5672 
5697 
5725 
5713 
5672 
5738 
5774 
5710 
5655 
5704 
5704 
5725 
5753 
5709 
5736 
5695 
5635 
5660 
5787 
5723 
5681 
5741 
5686 
5684 
5778 
5780 
5757 
5735 
5678 
5708 
5741 
5705 
5704 
5752 
5740 
5738 
5725 
5666 
5663 
5726 
5730 
5648 
5713 
5769 
5755 
5713 
5776 
5875 
5882 
5859 
5843 
5835 
5792 
5862 
5831 
5825 
5863 
5798 
5765 
5799 
5797 
5735 
5740 
5761 
5737 
5721 
5681 
5673 
5768 
5768 
5694 
5750 
5754 
5757 
5722 
5716 
5749 
5732 
5731 
5725 
5735 
5724 
5703 
5682 
5700 
5763 
5721 
5674 
5662 
5616 
5709 
5736 
5698 
5682 
5718 
5669 
5637 
5708 
5744 
5776 
5735 
5689 
5709 
5666 
5683 
5686 
5665 
5709 
5648 
5636 
5698 
5625 
5677 
5710 
5759 
5713 
5665 
5709 
5688 
5690 
5715 
5705 
5724 
5679 
5633 
5659 
5744 
5717 
5715 
5662 
5656 
5674 
5670 
5608 
5649 
5689 
5673 
5725 
5701 
5518 
5479 
5537 
5612 
5626 
5637 
5614 
5602 
5574 
5538 
5595 
5628 
5642 
5676 
5631 
5614 
5610 
5664 
5614 
5597 
5619 
5660 
5640 
5559 
5683 
5757 
5699 
5717 
5695 
5689 
5690 
5643 
5681 
5754 
5686 
5670 
5649 
5686 
5706 
5674 
5631 
5750 
5717 
5677 
5681 
5757 
5712 
5700 
5718 
5686 
5748 
5768 
5674 
5676 
5698 
5655 
5626 
5637 
5669 
5698 
5658 
5639 
5650 
5668 
5608 
5704 
5806 
5896 
5953 
5863 
5735 
5787 
5818 
5783 
5691 
5579 
5476 
5546 
5646 
5704 
5729 
5720 
5679 
5739 
5712 
5811 
5777 
5679 
5738 
5775 
5792 
5810 
5762 
5712 
5752 
5750 
5741 
5779 
5771 
5748 
5815 
5732 
5787 
5842 
5807 
5768 
5793 
5733 
5728 
5784 
5844 
5749 
5797 
5819 
5758 
5778 
5816 
5862 
5839 
5835 
5822 
5877 
5846 
5817 
5937 
5920 
5877 
5861 
5864 
5850 
5834 
5870 
5964 
5977 
5957 
5945 
5913 
5978 
5983 
5915 
5862 
5978 
5995 
5977 
5908 
5876 
5822 
5837 
5821 
5841 
5824 
5802 
5766 
5745 
5723 
5736 
5689 
5685 
5683 
5723 
5715 
5692 
5772 
5759 
5707 
5644 
5672 
5777 
5770 
5702 
5653 
5677 
5629 
5681 
5699 
5697 
5674 
5736 
5689 
5684 
5732 
5715 
5674 
5649 
5676 
5727 
5734 
5686 
5669 
5704 
5709 
5668 
5688 
5707 
5695 
5703 
5701 
5647 
5652 
5692 
5768 
5696 
5631 
5791 
5725 
5676 
5689 
5734 
5749 
5697 
5655 
5686 
5707 
5678 
5680 
5645 
5593 
5648 
5675 
5702 
5703 
5738 
5738 
5726 
5692 
5689 
5684 
5686 
5717 
5680 
5674 
5706 
5609 
5635 
5712 
5683 
5677 
5683 
5662 
5641 
5693 
5698 
5706 
5693 
5704 
5745 
5771 
5732 
5660 
5690 
5722 
5717 
5725 
5691 
5713 
5695 
5688 
5673 
5680 
5769 
5787 
5777 
5719 
5700 
5739 
5686 
5768 
5833 
5782 
5798 
5781 
5741 
5747 
5753 
5737 
5748 
5732 
5690 
5710 
5748 
5755 
5708 
5719 
5662 
5718 
5756 
5717 
5732 
5700 
5706 
5676 
5715 
5777 
5788 
5839 
5953 
5983 
5984 
5962 
5954 
5949 
5818 
5651 
5564 
5594 
5688 
5767 
5796 
5719 
5702 
5742 
5761 
5764 
5808 
5773 
5767 
5743 
5741 
5829 
5795 
5786 
5823 
5845 
5766 
5846 
5813 
5821 
5795 
5767 
5895 
5866 
5796 
5779 
5800 
5788 
5848 
5864 
5785 
5810 
5862 
5910 
5904 
5913 
5901 
5874 
5878 
5937 
5936 
5932 
5968 
5947 
5948 
6000 
5989 
5988 
6002 
5994 
5967 
6037 
6132 
6123 
6051 
6096 
6080 
6027 
6031 
6072 
6059 
6008 
5990 
5972 
5948 
5946 
5836 
5871 
5923 
5908 
5865 
5787 
5849 
5851 
5785 
5779 
5792 
5801 
5793 
5756 
5672 
5836 
5813 
5734 
5746 
5781 
5794 
5880 
5870 
5837 
5794 
5804 
5799 
5763 
5856 
5788 
5731 
5744 
5744 
5832 
5877 
5831 
5777 
5819 
5799 
5767 
5762 
5847 
5838 
5776 
5752 
5853 
5806 
5775 
5813 
5795 
5776 
5746 
5768 
5775 
5805 
5828 
5776 
5791 
5755 
5706 
5735 
5824 
5833 
5798 
5795 
5781 
5771 
5811 
5841 
5770 
5796 
5822 
5750 
5773 
5799 
5764 
5766 
5787 
5789 
5798 
5775 
5833 
5783 
5778 
5730 
5756 
5832 
5835 
5765 
5835 
5840 
5790 
5770 
5777 
5849 
5803 
5781 
5790 
5795 
5749 
5761 
5822 
5820 
5825 
5800 
5809 
5811 
5801 
5788 
5835 
5822 
5863 
5826 
5810 
5823 
5822 
5845 
5844 
5814 
5874 
5835 
5805 
5805 
5857 
5831 
5747 
5766 
5809 
5801 
5910 
5826 
5814 
5878 
5869 
5782 
5840 
5903 
5905 
5884 
5859 
5872 
5921 
5865 
5799 
5896 
5917 
5817 
5850 
5890 
5894 
5851 
5855 
5853 
5851 
5783 
5864 
5904 
5859 
5867 
5848 
5864 
5909 
5868 
5794 
5778 
5861 
5878 
5849 
5885 
5966 
6043 
6156 
6213 
6090 
6018 
6031 
6049 
5889 
5742 
5722 
5714 
5837 
5854 
5895 
5903 
5916 
5918 
5928 
5883 
5888 
5918 
5909 
5870 
5890 
5966 
5926 
5919 
5955 
5900 
5933 
5989 
5946 
5957 
5956 
5926 
5923 
5956 
5984 
5951 
5929 
5941 
5918 
5982 
6017 
5993 
5994 
5989 
6046 
6062 
6061 
6037 
6018 
6000 
6050 
6062 
6069 
6065 
6095 
6063 
6093 
6172 
6142 
6219 
6200 
6173 
6215 
6277 
6218 
6188 
6174 
6213 
6216 
6167 
6183 
6191 
6184 
6161 
6101 
6109 
6025 
6022 
6067 
6066 
6068 
5977 
5865 
5963 
5965 
5926 
5934 
5933 
5961 
5982 
5898 
5932 
6016 
5965 
5999 
5973 
5946 
5953 
5973 
5939 
5959 
5994 
5916 
5897 
5989 
5987 
5948 
5918 
5970 
5960 
5996 
6017 
5963 
5941 
6005 
6019 
5966 
5962 
5998 
5968 
5941 
6023 
5971 
5899 
5934 
5910 
5894 
5919 
5918 
5950 
5988 
5961 
5914 
5932 
5968 
5967 
5955 
5989 
6022 
5981 
5951 
5961 
5980 
6028 
5968 
5985 
5954 
5899 
5984 
5979 
5947 
5999 
6023 
5979 
5998 
5943 
5927 
5987 
6003 
6014 
5995 
5949 
5951 
6024 
6033 
6005 
5907 
6031 
6003 
5922 
5969 
5976 
5950 
5968 
5947 
5970 
5995 
6019 
6011 
6001 
5992 
5986 
5975 
5958 
6002 
6077 
6014 
5903 
5967 
6010 
6013 
5972 
6020 
5985 
5994 
6037 
6035 
6052 
6001 
6005 
6030 
6059 
6013 
6026 
6036 
6096 
6072 
6044 
6003 
5986 
5950 
5997 
5942 
5958 
6032 
5990 
5999 
5992 
6031 
6019 
5993 
6036 
5989 
5954 
6009 
5954 
6027 
6029 
6066 
6196 
6315 
6275 
6162 
6162 
6236 
6117 
6007 
5881 
5824 
5921 
5976 
5960 
6002 
6069 
6048 
6016 
6034 
6025 
6038 
5985 
6036 
6075 
5991 
6025 
6078 
6124 
6020 
5983 
6013 
6071 
6103 
6054 
6149 
6117 
6068 
6001 
6033 
6104 
6110 
6036 
6057 
6107 
6043 
6078 
6084 
6056 
6128 
6109 
6131 
6149 
6148 
6133 
6133 
6054 
6128 
6203 
6209 
6200 
6199 
6308 
6226 
6194 
6263 
6282 
6262 
6240 
6301 
6289 
6196 
6287 
6298 
6279 
6215 
6133 
6130 
6196 
6137 
6106 
6113 
6069 
6002 
5994 
6032 
6015 
5989 
5938 
5906 
5887 
5921 
5977 
5980 
6003 
5976 
5944 
5853 
5891 
6010 
5956 
5906 
5960 
5945 
5891 
5920 
5939 
5934 
5939 
5874 
5919 
5907 
5964 
5918 
5940 
5943 
5917 
5924 
5879 
5875 
5928 
5783 
5833 
5921 
5980 
5928 
5857 
5895 
5941 
5905 
5851 
5833 
5963 
5935 
5842 
5880 
5895 
5894 
5893 
5882 
5825 
5827 
5827 
5806 
5872 
5866 
5938 
5938 
5938 
5904 
5830 
5798 
5910 
5889 
5860 
5837 
5770 
5883 
5905 
5887 
5848 
5803 
5797 
5792 
5782 
5872 
5858 
5877 
5843 
5842 
5860 
5889 
5882 
5853 
5769 
5879 
5855 
5869 
5894 
5854 
5820 
5770 
5843 
5811 
5763 
5832 
5971 
5971 
5868 
5816 
5863 
5886 
5875 
5819 
5826 
5872 
5855 
5801 
5894 
5867 
5862 
5866 
5878 
5897 
5899 
5864 
5827 
5842 
5865 
5852 
5905 
5930 
5906 
5859 
5873 
5908 
5908 
5907 
5907 
5914 
5939 
5918 
5819 
5845 
5877 
5881 
5906 
5900 
5890 
5890 
5853 
5889 
5857 
5883 
5879 
5851 
5898 
5926 
5885 
6067 
6195 
6272 
6230 
6089 
6079 
6088 
6038 
5870 
5745 
5878 
5962 
5947 
5934 
6067 
6017 
5947 
5961 
5903 
5926 
5972 
5940 
5915 
6021 
5984 
5939 
5990 
6045 
5996 
5908 
5996 
6021 
5954 
6011 
6018 
5976 
5976 
6032 
6032 
6017 
6024 
5985 
5988 
6105 
6053 
6001 
6043 
6125 
6103 
6011 
6070 
6133 
6136 
6111 
6074 
6097 
6136 
6097 
6127 
6196 
6246 
6223 
6154 
6189 
6238 
6249 
6267 
6265 
6316 
6290 
6252 
6276 
6311 
6239 
6209 
6188 
6168 
6216 
6126 
6034 
6119 
6107 
6038 
5939 
5981 
6001 
6027 
5986 
5997 
6012 
6013 
5966 
5954 
5971 
5957 
5939 
5963 
5982 
5971 
5972 
5973 
6030 
6042 
6000 
5952 
5984 
5957 
5965 
6044 
6009 
5991 
5989 
5981 
5917 
6035 
6029 
6027 
5999 
5964 
5965 
5987 
6033 
5985 
6008 
6046 
5963 
5971 
6031 
5977 
6009 
6017 
5972 
5992 
5966 
5928 
5959 
5991 
5964 
5937 
6017 
6012 
5995 
5950 
6001 
6030 
6020 
6062 
5987 
5976 
5987 
5998 
5986 
6007 
5987 
5921 
5928 
5961 
6016 
6000 
6015 
6020 
6022 
5992 
5972 
6055 
6023 
6015 
6001 
5982 
6000 
5980 
6012 
6013 
6000 
6018 
5992 
5971 
5997 
6010 
6020 
6024 
5994 
6011 
5971 
6021 
6038 
5990 
5982 
5965 
6020 
6047 
6041 
6008 
5986 
6020 
5984 
6003 
6041 
6082 
5991 
6010 
6022 
6038 
5993 
6066 
6063 
6067 
6021 
6080 
6078 
6064 
6037 
6051 
6063 
6051 
6090 
6077 
6085 
6065 
6048 
6053 
6052 
6070 
6123 
6118 
6021 
6041 
6075 
6090 
6058 
6093 
6084 
6093 
5991 
6071 
6143 
6082 
6065 
6020 
5994 
6058 
6072 
6051 
6043 
6073 
6114 
6114 
6178 
6304 
6388 
6355 
6220 
6249 
6167 
6162 
6105 
6003 
5946 
5921 
6027 
6132 
6104 
6118 
6100 
6147 
6157 
6129 
6122 
6149 
6146 
6089 
6095 
6168 
6187 
6154 
6173 
6201 
6135 
6160 
6223 
6176 
6195 
6233 
6191 
6167 
6202 
6236 
6232 
6194 
6235 
6226 
6208 
6196 
6283 
6319 
6173 
6198 
6317 
6277 
6311 
6307 
6256 
6314 
6342 
6318 
6333 
6392 
6385 
6393 
6383 
6389 
6382 
6361 
6424 
6489 
6450 
6423 
6473 
6457 
6397 
6361 
6381 
6483 
6448 
6322 
6316 
6336 
6304 
6222 
6197 
6244 
6252 
6231 
6175 
6136 
6172 
6161 
6137 
6133 
6198 
6207 
6145 
6118 
6173 
6180 
6113 
6152 
6139 
6158 
6111 
6135 
6149 
6183 
6137 
6123 
6183 
6181 
6187 
6177 
6183 
6190 
6200 
6144 
6124 
6137 
6147 
6108 
6174 
6179 
6176 
6119 
6113 
6190 
6198 
6127 
6113 
6104 
6110 
6137 
6211 
6147 
6162 
6194 
6145 
6131 
6194 
6188 
6164 
6144 
6138 
6131 
6095 
6116 
6185 
6235 
6126 
6070 
6084 
6164 
6205 
6202 
6142 
6178 
6154 
6162 
6163 
6165 
6166 
6079 
6110 
6220 
6113 
6189 
6194 
6194 
6159 
6179 
6148 
6117 
6172 
6189 
6143 
6146 
6173 
6130 
6107 
6201 
6172 
6161 
6162 
6186 
6212 
6172 
6140 
6105 
6128 
6151 
6126 
6125 
6230 
6254 
6182 
6152 
6164 
6170 
6133 
6204 
6223 
6225 
6196 
6196 
6201 
6240 
6204 
6179 
6228 
6235 
6198 
6142 
6174 
6190 
6183 
6183 
6141 
6252 
6238 
6119 
6169 
6229 
6198 
6148 
6105 
6180 
6179 
6202 
6228 
6301 
6371 
6517 
6506 
6375 
6352 
6348 
6336 
6162 
6081 
6066 
6028 
6117 
6173 
6282 
6229 
6201 
6196 
6279 
6252 
6250 
6282 
6236 
6176 
6166 
6238 
6281 
6217 
6182 
6244 
6283 
6292 
6271 
6238 
6262 
6268 
6241 
6281 
6288 
6310 
6265 
6177 
6245 
6268 
6310 
6320 
6280 
6287 
6311 
6367 
6391 
6367 
6357 
6318 
6318 
6390 
6422 
6416 
6446 
6398 
6404 
6383 
6422 
6424 
6468 
6492 
6475 
6529 
6496 
6529 
6513 
6514 
6468 
6521 
6499 
6442 
6434 
6407 
6318 
6312 
6371 
6288 
6199 
6232 
6297 
6255 
6236 
6171 
6187 
6219 
6191 
6210 
6267 
6229 
6254 
6185 
6171 
6221 
6127 
6212 
6249 
6241 
6181 
6145 
6173 
6178 
6296 
6306 
6250 
6233 
6225 
6237 
6151 
6190 
6278 
6223 
6187 
6269 
6295 
6260 
6235 
6203 
6194 
6215 
6245 
6264 
6256 
6244 
6212 
6223 
6218 
6193 
6235 
6258 
6243 
6240 
6278 
6234 
6238 
6197 
6262 
6302 
6296 
6267 
6230 
6247 
6273 
6268 
6275 
6296 
6261 
6275 
6267 
6240 
6287 
6272 
6321 
6272 
6247 
6269 
6293 
6299 
6254 
6222 
6271 
6269 
6257 
6217 
6293 
6305 
6271 
6275 
6332 
6271 
6264 
6357 
6277 
6268 
6236 
6307 
6280 
6264 
6300 
6312 
6340 
6279 
6294 
6248 
6272 
6275 
6291 
6303 
6315 
6395 
6309 
6259 
6278 
6237 
6295 
6308 
6279 
6292 
6311 
6316 
6281 
6283 
6310 
6331 
6317 
6272 
6300 
6350 
6324 
6312 
6398 
6358 
6343 
6351 
6321 
6338 
6313 
6290 
6309 
6295 
6354 
6358 
6294 
6316 
6313 
6275 
6341 
6289 
6289 
6257 
6328 
6322 
6248 
6284 
6357 
6406 
6472 
6566 
6590 
6587 
6531 
6533 
6480 
6274 
6144 
6135 
6230 
6350 
6352 
6299 
6323 
6359 
6357 
6380 
6332 
6359 
6365 
6345 
6326 
6367 
6407 
6337 
6322 
6378 
6436 
6406 
6433 
6437 
6416 
6385 
6411 
6400 
6405 
6414 
6405 
6430 
6436 
6450 
6450 
6449 
6471 
6399 
6390 
6403 
6481 
6471 
6503 
6469 
6475 
6589 
6562 
6498 
6531 
6575 
6565 
6576 
6600 
6579 
6633 
6572 
6620 
6666 
6645 
6660 
6682 
6697 
6702 
6611 
6573 
6710 
6654 
6585 
6506 
6481 
6524 
6465 
6433 
6396 
6457 
6461 
6399 
6418 
6451 
6452 
6378 
6354 
6393 
6389 
6422 
6428 
6364 
6347 
6387 
6383 
6373 
6387 
6403 
6338 
6343 
6453 
6410 
6370 
6352 
6428 
6416 
6361 
6372 
6414 
6377 
6361 
6409 
6426 
6401 
6394 
6389 
6395 
6418 
6349 
6390 
6451 
6462 
6446 
6400 
6368 
6468 
6428 
6279 
6405 
6422 
6413 
6428 
6388 
6371 
6468 
6450 
6395 
6413 
6432 
6428 
6378 
6388 
6435 
6409 
6414 
6478 
6451 
6429 
6439 
6544 
6474 
6408 
6419 
6434 
6470 
6464 
6443 
6461 
6516 
6473 
6411 
6452 
6489 
6509 
6449 
6413 
6402 
6585 
6540 
6431 
6447 
6519 
6464 
6447 
6498 
6482 
6500 
6467 
6405 
6510 
6582 
6506 
6403 
6475 
6525 
6533 
6524 
6494 
6500 
6515 
6474 
6496 
6556 
6493 
6468 
6565 
6555 
6537 
6486 
6497 
6509 
6516 
6506 
6470 
6502 
6516 
6491 
6521 
6495 
6612 
6634 
6559 
6504 
6539 
6538 
6463 
6517 
6481 
6533 
6521 
6499 
6504 
6497 
6448 
6505 
6521 
6505 
6507 
6496 
6500 
6493 
6510 
6486 
6467 
6552 
6665 
6693 
6824 
6880 
6763 
6599 
6674 
6712 
6551 
6371 
6352 
6445 
6472 
6527 
6538 
6577 
6606 
6597 
6586 
6545 
6578 
6648 
6685 
6612 
6603 
6609 
6609 
6630 
6674 
6664 
6626 
6601 
6674 
6699 
6656 
6669 
6699 
6675 
6673 
6630 
6716 
6713 
6642 
6755 
6778 
6712 
6739 
6743 
6801 
6783 
6753 
6745 
6824 
6844 
6798 
6761 
6773 
6857 
6810 
6773 
6819 
6859 
6881 
6869 
6896 
6959 
6949 
6954 
6969 
6948 
6926 
6960 
7024 
6964 
6945 
6969 
6911 
6885 
6856 
6848 
6769 
6699 
6734 
6766 
6679 
6683 
6719 
6707 
6640 
6625 
6657 
6659 
6655 
6661 
6672 
6669 
6690 
6667 
6662 
6660 
6652 
6636 
6646 
6691 
6625 
6652 
6646 
6664 
6666 
6647 
6650 
6651 
6671 
6673 
6628 
6673 
6705 
6697 
6614 
6674 
6683 
6682 
6699 
6626 
6614 
6647 
6642 
6704 
6699 
6701 
6651 
6697 
6664 
6630 
6586 
6595 
6659 
6652 
6650 
6668 
6697 
6646 
6537 
6585 
6688 
6674 
6618 
6606 
6716 
6667 
6618 
6625 
6642 
6724 
6676 
6613 
6629 
6663 
6650 
6616 
6647 
6657 
6648 
6618 
6639 
6626 
6640 
6636 
6637 
6627 
6691 
6683 
6808 
6843 
6827 
6777 
6728 
6699 
6792 
6724 
6649 
6667 
6710 
6690 
6648 
6648 
6709 
6632 
6654 
6703 
6764 
6742 
6654 
6662 
6715 
6674 
6638 
6712 
6716 
6709 
6718 
6668 
6635 
6669 
6694 
6652 
6639 
6671 
6657 
6629 
6712 
6711 
6728 
6674 
6703 
6712 
6660 
6763 
6794 
6757 
6732 
6734 
6725 
6707 
6735 
6667 
6643 
6701 
6703 
6717 
6676 
6685 
6631 
6643 
6666 
6678 
6721 
6713 
6655 
6565 
6656 
6737 
6743 
6746 
6876 
7005 
6944 
6824 
6823 
6864 
6818 
6691 
6487 
6511 
6591 
6649 
6664 
6804 
6733 
6664 
6700 
6695 
6687 
6734 
6706 
6663 
6700 
6740 
6728 
6747 
6754 
6795 
6728 
6735 
6763 
6764 
6748 
6804 
6827 
6731 
6706 
6749 
6747 
6792 
6750 
6813 
6865 
6796 
6764 
6818 
6774 
6813 
6836 
6830 
6874 
6830 
6838 
6761 
6859 
6883 
6920 
6913 
6880 
6946 
6994 
6914 
6924 
7036 
6977 
6979 
7016 
7031 
6992 
7039 
7008 
7019 
6951 
6964 
6924 
6910 
6896 
6856 
6824 
6882 
6853 
6783 
6593 
6523 
6598 
6638 
6586 
6592 
6619 
6646 
6575 
6601 
6619 
6651 
6661 
6673 
6708 
6706 
6596 
6605 
6724 
6743 
6635 
6605 
6647 
6689 
6642 
6640 
6687 
6705 
6616 
6617 
6753 
6781 
6718 
6717 
6667 
6688 
6745 
6712 
6694 
6645 
6684 
6764 
6687 
6655 
6726 
6739 
6640 
6712 
6754 
6718 
6676 
6668 
6698 
6699 
6689 
6671 
6655 
6667 
6677 
6678 
6694 
6710 
6664 
6656 
6691 
6750 
6850 
6853 
6828 
6816 
6810 
6757 
6778 
6833 
6782 
6742 
6751 
6775 
6751 
6720 
6758 
6793 
6793 
6731 
6744 
6717 
6756 
6758 
6722 
6765 
6729 
6706 
6782 
6785 
6807 
6797 
6704 
6751 
6783 
6745 
6662 
6707 
6768 
6822 
6719 
6729 
6769 
6760 
6720 
6743 
6875 
6798 
6758 
6848 
6864 
6851 
6774 
6724 
6808 
6880 
6904 
6880 
6862 
6866 
6899 
6841 
6936 
6968 
6914 
6871 
6924 
6972 
6952 
6930 
6948 
6906 
6927 
6960 
6890 
6966 
7009 
6965 
6916 
6897 
6927 
6970 
6954 
6938 
6969 
6973 
6916 
6942 
6970 
6967 
6931 
6951 
6987 
6964 
6958 
6958 
6956 
6972 
6933 
6891 
6858 
6917 
6951 
7013 
7098 
7140 
7309 
7243 
7127 
7206 
7176 
7096 
6969 
6854 
6833 
6853 
6899 
7010 
6993 
6958 
6996 
7023 
7000 
7009 
6956 
7015 
7063 
7018 
7036 
6999 
7034 
7012 
7072 
7054 
7046 
7038 
6995 
6983 
7010 
7016 
7035 
7042 
7081 
7086 
7056 
7026 
7051 
7060 
7057 
7148 
7203 
7103 
7108 
7097 
7143 
7125 
7155 
7208 
7169 
7144 
7177 
7174 
7205 
7246 
7227 
7272 
7263 
7260 
7333 
7289 
7192 
7316 
7358 
7340 
7355 
7366 
7345 
7320 
7262 
7295 
7263 
7221 
7193 
7177 
7020 
6939 
7031 
7040 
6996 
6993 
7010 
7014 
6961 
6954 
7083 
6996 
6974 
7019 
7039 
6997 
6951 
6989 
7035 
6982 
7033 
7026 
7021 
6987 
7023 
7069 
7039 
7033 
7010 
7025 
7056 
7017 
7028 
7022 
7060 
7097 
7051 
7019 
7021 
6995 
7029 
7049 
7044 
7084 
7080 
7073 
7029 
6983 
7021 
7082 
7066 
7049 
7064 
7085 
7018 
7086 
7005 
7001 
7086 
7057 
7031 
7019 
7002 
7022 
7016 
7003 
7042 
7106 
7083 
7154 
7196 
7195 
7213 
7197 
7165 
7161 
7141 
7075 
7076 
7131 
7123 
7065 
7066 
7076 
7127 
7101 
7080 
7071 
7073 
7005 
7084 
7110 
7125 
7145 
7109 
7111 
7036 
7119 
7069 
7073 
7071 
7012 
7061 
7136 
7082 
7040 
6992 
7062 
7140 
7154 
7119 
7034 
7075 
7068 
7071 
7074 
7073 
7053 
7060 
7057 
7071 
7033 
7060 
7127 
7063 
7103 
7122 
7114 
7112 
7114 
7098 
7078 
7072 
7085 
7104 
7185 
7137 
7099 
7115 
7124 
7086 
7096 
7172 
7135 
7089 
7114 
7067 
7057 
7095 
7123 
7106 
7123 
7112 
7091 
7106 
7077 
7092 
7088 
7067 
7068 
7118 
7079 
7059 
7055 
7018 
7111 
7207 
7272 
7387 
7424 
7332 
7265 
7280 
7229 
7186 
7037 
6883 
6888 
7011 
7061 
7162 
7159 
7091 
7102 
7137 
7137 
7105 
7115 
7135 
7158 
7160 
7057 
7096 
7183 
7167 
7162 
7161 
7158 
7152 
7143 
7108 
7172 
7151 
7212 
7183 
7179 
7197 
7167 
7161 
7184 
7202 
7167 
7198 
7218 
7195 
7247 
7259 
7273 
7251 
7204 
7218 
7263 
7293 
7314 
7255 
7245 
7334 
7300 
7314 
7331 
7288 
7358 
7418 
7386 
7429 
7417 
7373 
7403 
7408 
7409 
7331 
7394 
7355 
7334 
7138 
7128 
7068 
7121 
7139 
7082 
7082 
7101 
7116 
7031 
7025 
7072 
7072 
7092 
7097 
7099 
7089 
7031 
7056 
7080 
7057 
7033 
7104 
7089 
7081 
7037 
7050 
7094 
7062 
7079 
7046 
7106 
7158 
7097 
7083 
7081 
7116 
7125 
7099 
7094 
7154 
7128 
7046 
7036 
7083 
7036 
7085 
7144 
7178 
7171 
7010 
7134 
7125 
7226 
7130 
7087 
7145 
7097 
7030 
7064 
7146 
7168 
7105 
7049 
7129 
7260 
7337 
7257 
7225 
7235 
7177 
7117 
7169 
7134 
7237 
7250 
7196 
7208 
7136 
7157 
7195 
7172 
7182 
7122 
7116 
7174 
7168 
7187 
7186 
7203 
7161 
7074 
7129 
7171 
7174 
7178 
7169 
7124 
7187 
7184 
7192 
7160 
7170 
7105 
7119 
7146 
7134 
7183 
7170 
7115 
7126 
7148 
7142 
7086 
7188 
7186 
7143 
7145 
7123 
7135 
7102 
7069 
7141 
7144 
7114 
7152 
7210 
7183 
7150 
7122 
7107 
7122 
7175 
7142 
7081 
7138 
7166 
7117 
7122 
7177 
7196 
7202 
7131 
7176 
7202 
7179 
7122 
7125 
7148 
7098 
7148 
7162 
7185 
7156 
7155 
7167 
7165 
7140 
7105 
7107 
7141 
7136 
7083 
7095 
7137 
7104 
7122 
7097 
7078 
7157 
7084 
7101 
7130 
7081 
7131 
7135 
7177 
7263 
7401 
7426 
7393 
7336 
7280 
7291 
7200 
7091 
6997 
6972 
7000 
7143 
7190 
7252 
7150 
7158 
7202 
7166 
7143 
7128 
7129 
7153 
7181 
7181 
7214 
7211 
7169 
7143 
7167 
7213 
7234 
7206 
7229 
7213 
7211 
7216 
7230 
7299 
7263 
7219 
7210 
7246 
7259 
7242 
7276 
7316 
7273 
7243 
7263 
7341 
7285 
7293 
7259 
7274 
7427 
7382 
7345 
7321 
7395 
7421 
7371 
7442 
7465 
7487 
7483 
7448 
7465 
7472 
7448 
7452 
7504 
7404 
7280 
7284 
7305 
7311 
7322 
7242 
7260 
7262 
7225 
7167 
7124 
7148 
7159 
7167 
7166 
7185 
7150 
7099 
7089 
7107 
7191 
7090 
7079 
7179 
7137 
7161 
7158 
7174 
7146 
7146 
7144 
7135 
7152 
7145 
7128 
7195 
7172 
7137 
7112 
7087 
7175 
7143 
7137 
7210 
7166 
7141 
7053 
7176 
7193 
7169 
7135 
7115 
7130 
7103 
7172 
7298 
7293 
7244 
7216 
7205 
7255 
7259 
7159 
7137 
7139 
7238 
7242 
7186 
7189 
7246 
7181 
7145 
7157 
7217 
7215 
7147 
7204 
7240 
7211 
7100 
7119 
7171 
7149 
7208 
7196 
7172 
7221 
7226 
7141 
7092 
7153 
7199 
7131 
7188 
7217 
7185 
7215 
7233 
7201 
7168 
7098 
7150 
7234 
7142 
7178 
7134 
7199 
7227 
7155 
7206 
7240 
7228 
7187 
7211 
7239 
7223 
7200 
7189 
7190 
7187 
7220 
7226 
7178 
7147 
7213 
7267 
7171 
7230 
7290 
7230 
7203 
7206 
7207 
7261 
7197 
7161 
7181 
7218 
7238 
7236 
7240 
7213 
7120 
7188 
7194 
7222 
7234 
7208 
7218 
7236 
7229 
7303 
7256 
7247 
7236 
7235 
7275 
7220 
7216 
7229 
7212 
7257 
7251 
7160 
7145 
7214 
7242 
7183 
7136 
7241 
7226 
7165 
7213 
7216 
7241 
7257 
7176 
7198 
7213 
7208 
7184 
7216 
7166 
7280 
7362 
7313 
7412 
7508 
7489 
7349 
7316 
7388 
7290 
7201 
7046 
7005 
7106 
7164 
7216 
7253 
7256 
7210 
7228 
7302 
7299 
7287 
7206 
7253 
7284 
7254 
7232 
7269 
7265 
7281 
7318 
7388 
7436 
7328 
7300 
7314 
7335 
7308 
7343 
7340 
7328 
7315 
7288 
7287 
7318 
7387 
7375 
7296 
7378 
7369 
7398 
7445 
7442 
7398 
7393 
7401 
7430 
7451 
7448 
7420 
7477 
7456 
7528 
7521 
7535 
7562 
7500 
7512 
7575 
7595 
7564 
7563 
7543 
7501 
7487 
7376 
7438 
7429 
7424 
7378 
7343 
7361 
7310 
7302 
7253 
7272 
7239 
7190 
7277 
7256 
7226 
7258 
7214 
7264 
7291 
7310 
7170 
7121 
7218 
7280 
7254 
7219 
7193 
7265 
7269 
7211 
7253 
7241 
7167 
7200 
7262 
7279 
7220 
7286 
7243 
7293 
7311 
7258 
7311 
7264 
7235 
7233 
7216 
7287 
7284 
7212 
7234 
7351 
7431 
7441 
7400 
7378 
7420 
7388 
7365 
7381 
7338 
7334 
7327 
7342 
7384 
7368 
7316 
7272 
7289 
7293 
7307 
7292 
7335 
7370 
7340 
7264 
7239 
7273 
7348 
7334 
7276 
7259 
7268 
7262 
7204 
7256 
7317 
7286 
7289 
7361 
7336 
7275 
7266 
7296 
7299 
7309 
7197 
7242 
7330 
7313 
7225 
7266 
7323 
7325 
7300 
7288 
7288 
7244 
7319 
7297 
7345 
7265 
7239 
7256 
7276 
7268 
7301 
7285 
7243 
7257 
7275 
7246 
7242 
7268 
7275 
7291 
7309 
7303 
7273 
7234 
7213 
7289 
7318 
7284 
7288 
7310 
7297 
7285 
7254 
7365 
7330 
7225 
7286 
7330 
7302 
7242 
7342 
7335 
7346 
7294 
7249 
7366 
7281 
7254 
7226 
7217 
7292 
7266 
7226 
7262 
7238 
7251 
7267 
7206 
7288 
7217 
7246 
7261 
7218 
7253 
7260 
7178 
7294 
7367 
7454 
7518 
7523 
7458 
7427 
7452 
7441 
7249 
7090 
7053 
7154 
7298 
7329 
7343 
7293 
7278 
7304 
7252 
7243 
7260 
7237 
7311 
7306 
7324 
7319 
7262 
7271 
7370 
7344 
7251 
7336 
7362 
7360 
7365 
7324 
7348 
7380 
7329 
7321 
7379 
7374 
7383 
7376 
7397 
7394 
7382 
7465 
7410 
7356 
7430 
7483 
7450 
7471 
7459 
7479 
7447 
7462 
7523 
7516 
7479 
7583 
7574 
7567 
7509 
7495 
7565 
7618 
7610 
7578 
7483 
7505 
7463 
7448 
7450 
7485 
7462 
7469 
7384 
7366 
7314 
7297 
7332 
7315 
7256 
7205 
7220 
7237 
7275 
7237 
7233 
7229 
7242 
7216 
7208 
7237 
7298 
7226 
7209 
7262 
7308 
7303 
7211 
7179 
7248 
7241 
7285 
7264 
7188 
7219 
7198 
7250 
7345 
7372 
7264 
7268 
7276 
7276 
7266 
7247 
7280 
7293 
7418 
7390 
7424 
7393 
7330 
7291 
7331 
7403 
7359 
7247 
7358 
7337 
7302 
7276 
7331 
7330 
7341 
7283 
7224 
7254 
7306 
7321 
7274 
7277 
7303 
7286 
7243 
7370 
7375 
7335 
7265 
7305 
7262 
7268 
7254 
7280 
7356 
7350 
7288 
7233 
7277 
7272 
7239 
7307 
7383 
7329 
7280 
7303 
7389 
7417 
7296 
7224 
7341 
7348 
7294 
7259 
7284 
7276 
7265 
7289 
7347 
7326 
7284 
7299 
7271 
7289 
7323 
7288 
7299 
7302 
7287 
7269 
7291 
7236 
7314 
7311 
7271 
7310 
7327 
7360 
7295 
7309 
7359 
7227 
7237 
7285 
7290 
7244 
7240 
7378 
7398 
7336 
7297 
7293 
7303 
7306 
7312 
7366 
7374 
7328 
7343 
7303 
7285 
7321 
7324 
7296 
7335 
7368 
7313 
7328 
7330 
7355 
7285 
7304 
7311 
7287 
7264 
7221 
7223 
7262 
7333 
7318 
7317 
7323 
7323 
7295 
7276 
7286 
7198 
7247 
7340 
7301 
7364 
7475 
7509 
7591 
7563 
7486 
7468 
7403 
7271 
7167 
7092 
7144 
7254 
7351 
7327 
7255 
7321 
7360 
7355 
7327 
7294 
7319 
7392 
7357 
7312 
7360 
7364 
7303 
7353 
7403 
7351 
7310 
7359 
7424 
7371 
7391 
7441 
7424 
7420 
7367 
7353 
7382 
7434 
7421 
7323 
7410 
7490 
7484 
7400 
7431 
7435 
7463 
7447 
7472 
7509 
7481 
7455 
7526 
7537 
7544 
7500 
7364 
7455 
7511 
7481 
7443 
7488 
7544 
7495 
7498 
7601 
7597 
7520 
7511 
7544 
7535 
7435 
7458 
7521 
7417 
7361 
7376 
7359 
7315 
7445 
7364 
7268 
7274 
7358 
7291 
7291 
7275 
7257 
7298 
7298 
7279 
7293 
7299 
7311 
7261 
7289 
7285 
7304 
7258 
7271 
7361 
7311 
7247 
7282 
7321 
7255 
7286 
7314 
7323 
7336 
7335 
7281 
7297 
7330 
7371 
7374 
7508 
7514 
7439 
7424 
7429 
7403 
7400 
7372 
7360 
7400 
7373 
7309 
7421 
7403 
7348 
7336 
7375 
7368 
7341 
7383 
7314 
7340 
7375 
7314 
7317 
7408 
7401 
7349 
7352 
7369 
7366 
7314 
7279 
7329 
7338 
7278 
7293 
7366 
7411 
7365 
7317 
7320 
7327 
7373 
7353 
7372 
7318 
7351 
7259 
7310 
7411 
7337 
7310 
7363 
7354 
7319 
7348 
7349 
7358 
7361 
7300 
7320 
7367 
7394 
7373 
7289 
7293 
7382 
7356 
7383 
7321 
7342 
7372 
7375 
7359 
7369 
7362 
7351 
7322 
7331 
7380 
7370 
7336 
7336 
7404 
7390 
7385 
7390 
7376 
7385 
7382 
7332 
7374 
7408 
7374 
7385 
7407 
7348 
7325 
7373 
7374 
7407 
7365 
7306 
7306 
7324 
7354 
7341 
7291 
7247 
7327 
7348 
7319 
7351 
7384 
7321 
7309 
7332 
7319 
7295 
7350 
7495 
7600 
7625 
7588 
7441 
7429 
7452 
7381 
7250 
7179 
7188 
7162 
7246 
7356 
7330 
7316 
7332 
7356 
7351 
7284 
7328 
7452 
7421 
7367 
7324 
7311 
7388 
7341 
7335 
7444 
7438 
7412 
7412 
7372 
7395 
7432 
7393 
7362 
7337 
7365 
7471 
7480 
7459 
7459 
7474 
7492 
7505 
7502 
7464 
7489 
7512 
7532 
7470 
7444 
7499 
7547 
7599 
7585 
7534 
7599 
7588 
7557 
7572 
7710 
7643 
7616 
7642 
7582 
7441 
7484 
7548 
7553 
7543 
7557 
7562 
7547 
7549 
7515 
7459 
7443 
7437 
7390 
7352 
7384 
7355 
7253 
7226 
7243 
7368 
7388 
7298 
7317 
7314 
7307 
7327 
7321 
7346 
7353 
7327 
7375 
7327 
7324 
7304 
7334 
7347 
7335 
7379 
7379 
7374 
7359 
7351 
7354 
7326 
7350 
7334 
7322 
7339 
7415 
7430 
7513 
7518 
7529 
7484 
7473 
7458 
7486 
7474 
7474 
7425 
7446 
7464 
7410 
7365 
7393 
7481 
7509 
7443 
7455 
7453 
7416 
7365 
7411 
7497 
7424 
7392 
7469 
7486 
7476 
7441 
7407 
7372 
7436 
7423 
7377 
7444 
7530 
7508 
7423 
7420 
7431 
7382 
7362 
7390 
7485 
7459 
7397 
7433 
7432 
7426 
7474 
7455 
7471 
7463 
7441 
7455 
7471 
7457 
7444 
7421 
7444 
7482 
7448 
7362 
7453 
7509 
7418 
7359 
7462 
7532 
7561 
7438 
7437 
7432 
7439 
7467 
7481 
7427 
7403 
7469 
7490 
7489 
7494 
7489 
7453 
7440 
7526 
7530 
7447 
7512 
7511 
7488 
7506 
7477 
7519 
7468 
7437 
7525 
7544 
7543 
7473 
7495 
7539 
7566 
7529 
7536 
7533 
7484 
7497 
7452 
7488 
7459 
7406 
7452 
7538 
7552 
7521 
7476 
7464 
7482 
7477 
7470 
7425 
7448 
7481 
7510 
7613 
7747 
7754 
7822 
7785 
7770 
7758 
7673 
7612 
7448 
7335 
7399 
7457 
7542 
7542 
7495 
7574 
7651 
7585 
7589 
7540 
7524 
7609 
7637 
7614 
7635 
7630 
7640 
7566 
7576 
7656 
7711 
7659 
7622 
7657 
7668 
7690 
7672 
7650 
7656 
7616 
7565 
7658 
7723 
7724 
7727 
7710 
7688 
7737 
7788 
7723 
7727 
7793 
7750 
7763 
7774 
7827 
7789 
7811 
7805 
7679 
7656 
7684 
7774 
7819 
7784 
7797 
7804 
7874 
7920 
7841 
7842 
7836 
7876 
7839 
7870 
7886 
7797 
7754 
7681 
7669 
7696 
7692 
7591 
7688 
7691 
7634 
7629 
7658 
7668 
7605 
7543 
7600 
7668 
7673 
7623 
7603 
7646 
7659 
7633 
7632 
7684 
7697 
7618 
7641 
7653 
7680 
7699 
7647 
7681 
7678 
7743 
7896 
7897 
7837 
7790 
7753 
7826 
7814 
7801 
7815 
7770 
7823 
7820 
7746 
7692 
7743 
7784 
7744 
7751 
7765 
7797 
7807 
7755 
7733 
7812 
7801 
7806 
7836 
7795 
7750 
7737 
7789 
7783 
7774 
7879 
7831 
7837 
7874 
7829 
7793 
7822 
7821 
7807 
7800 
7817 
7852 
7789 
7772 
7843 
7871 
7816 
7806 
7829 
7838 
7874 
7813 
7834 
7849 
7853 
7852 
7801 
7843 
7857 
7899 
7855 
7842 
7879 
7879 
7877 
7852 
7887 
7896 
7857 
7853 
7901 
7908 
7856 
7859 
7912 
7927 
7910 
7913 
7901 
7850 
7863 
7839 
7870 
7968 
7937 
7901 
7925 
7943 
7906 
7904 
7944 
7946 
7989 
7964 
7925 
7967 
7953 
7898 
7939 
7938 
7960 
7941 
7986 
7977 
7924 
7918 
7940 
7905 
7957 
7892 
7953 
7966 
7940 
7938 
7916 
7930 
7939 
7912 
7951 
7910 
7915 
7898 
7946 
8000 
8020 
8072 
8119 
8175 
8223 
8201 
8074 
8122 
8200 
8050 
7835 
7779 
7838 
7869 
7889 
7937 
8028 
8027 
8009 
8051 
8084 
8052 
8000 
7986 
8045 
8121 
8065 
8062 
8003 
8058 
8091 
8048 
8045 
8133 
8157 
8068 
8132 
8145 
8161 
8180 
8130 
8078 
8097 
8117 
8192 
8219 
8219 
8081 
7944 
8092 
8124 
8090 
8056 
8152 
8165 
8163 
8191 
8166 
8181 
8276 
8350 
8315 
8261 
8284 
8261 
8293 
8343 
8284 
8353 
8301 
8286 
8367 
8353 
8302 
8329 
8364 
8344 
8264 
8260 
8228 
8194 
8176 
8152 
8142 
8165 
8085 
8124 
8119 
8110 
8058 
8060 
8076 
8154 
8095 
8026 
8054 
8100 
8069 
8049 
8120 
8183 
8182 
8130 
8087 
8081 
8074 
8074 
8096 
8175 
8145 
8102 
8103 
8146 
8173 
8171 
8094 
8137 
8310 
8353 
8323 
8317 
8262 
8235 
8206 
8184 
8185 
8256 
8231 
8176 
8200 
8201 
8188 
8162 
8179 
8182 
8206 
8181 
8244 
8240 
8186 
8156 
8189 
8207 
8219 
8165 
8151 
8168 
8226 
8213 
8163 
8182 
8233 
8198 
8119 
8135 
8301 
8243 
8187 
8221 
8242 
8104 
8165 
8272 
8247 
8205 
8216 
8253 
8192 
8155 
8192 
8221 
8250 
8224 
8187 
8191 
8201 
8248 
8244 
8244 
8268 
8289 
8226 
8190 
8220 
8254 
8240 
8266 
8270 
8234 
8213 
8294 
8262 
8251 
8286 
8277 
8305 
8255 
8292 
8285 
8277 
8349 
8302 
8229 
8185 
8245 
8288 
8252 
8212 
8189 
8236 
8263 
8253 
8240 
8254 
8290 
8261 
8202 
8239 
8308 
8292 
8321 
8394 
8496 
8539 
8562 
8511 
8472 
8428 
8391 
8293 
8154 
8066 
8154 
8239 
8319 
8374 
8285 
8314 
8357 
8353 
8395 
8360 
8364 
8361 
8329 
8325 
8385 
8384 
8377 
8318 
8409 
8409 
8370 
8383 
8401 
8454 
8397 
8350 
8384 
8442 
8424 
8423 
8454 
8424 
8461 
8460 
8434 
8479 
8472 
8462 
8454 
8508 
8493 
8479 
8521 
8553 
8566 
8478 
8506 
8553 
8667 
8550 
8411 
8464 
8516 
8532 
8543 
8625 
8604 
8556 
8577 
8593 
8600 
8573 
8622 
8599 
8570 
8546 
8546 
8450 
8434 
8439 
8434 
8334 
8381 
8422 
8413 
8430 
8334 
8293 
8318 
8291 
8335 
8392 
8374 
8335 
8344 
8369 
8405 
8381 
8297 
8339 
8419 
8350 
8364 
8412 
8341 
8390 
8382 
8384 
8417 
8411 
8390 
8415 
8569 
8519 
8460 
8557 
8536 
8496 
8507 
8491 
8490 
8485 
8420 
8454 
8558 
8536 
8463 
8521 
8511 
8484 
8468 
8502 
8461 
8469 
8428 
8409 
8452 
8493 
8476 
8465 
8467 
8419 
8493 
8486 
8445 
8482 
8550 
8517 
8502 
8526 
8514 
8440 
8423 
8513 
8500 
8483 
8457 
8452 
8435 
8494 
8485 
8464 
8477 
8472 
8497 
8473 
8483 
8449 
8505 
8543 
8575 
8514 
8476 
8536 
8508 
8467 
8453 
8422 
8470 
8538 
8459 
8457 
8512 
8494 
8483 
8559 
8495 
8480 
8533 
8489 
8478 
8498 
8503 
8490 
8473 
8464 
8466 
8505 
8521 
8546 
8560 
8543 
8475 
8529 
8582 
8500 
8558 
8570 
8565 
8544 
8442 
8494 
8583 
8551 
8572 
8515 
8477 
8487 
8552 
8424 
8445 
8502 
8519 
8479 
8451 
8493 
8527 
8493 
8500 
8476 
8439 
8471 
8542 
8566 
8574 
8651 
8775 
8819 
8732 
8645 
8644 
8657 
8504 
8320 
8352 
8416 
8491 
8535 
8464 
8473 
8465 
8539 
8510 
8455 
8524 
8517 
8453 
8462 
8463 
8546 
8469 
8390 
8533 
8582 
8520 
8491 
8543 
8530 
8466 
8422 
8490 
8561 
8552 
8522 
8537 
8585 
8548 
8497 
8517 
8545 
8525 
8468 
8479 
8586 
8636 
8692 
8616 
8606 
8604 
8572 
8643 
8529 
8475 
8490 
8506 
8501 
8558 
8594 
8599 
8588 
8604 
8581 
8592 
8630 
8621 
8632 
8615 
8576 
8606 
8556 
8520 
8550 
8472 
8424 
8437 
8416 
8368 
8390 
8312 
8252 
8214 
8275 
8293 
8226 
8193 
8285 
8312 
8273 
8293 
8257 
8223 
8216 
8224 
8231 
8239 
8204 
8180 
8277 
8249 
8165 
8234 
8274 
8234 
8411 
8410 
8350 
8306 
8307 
8280 
8238 
8305 
8297 
8227 
8273 
8252 
8346 
8347 
8283 
8239 
8235 
8216 
8242 
8215 
8219 
8211 
8136 
8146 
8217 
8176 
8216 
8266 
8236 
8219 
8202 
8177 
8248 
8241 
8201 
8143 
8164 
8210 
8124 
8150 
8187 
8135 
8075 
8106 
8155 
8117 
8147 
8154 
8169 
8170 
8167 
8151 
8164 
8136 
8097 
8085 
8050 
8129 
8116 
8106 
8041 
8094 
8131 
8149 
8177 
8109 
8105 
8122 
8118 
8106 
8138 
8069 
8060 
8090 
8180 
8058 
7979 
8047 
8095 
8093 
8032 
8116 
8159 
8138 
8096 
8117 
8200 
8170 
8074 
8077 
8107 
8074 
8088 
8069 
8045 
8131 
8061 
7970 
8028 
8091 
8105 
8065 
8047 
8048 
8027 
8058 
8002 
7989 
8052 
7994 
7975 
7963 
7991 
8016 
7965 
7943 
8013 
8113 
8241 
8342 
8343 
8204 
8127 
8123 
8102 
7958 
7777 
7700 
7854 
7894 
7874 
7928 
7968 
7978 
7911 
7952 
7974 
8014 
8017 
7974 
8008 
8004 
8000 
8019 
8000 
8022 
8007 
8023 
8010 
8034 
7962 
7973 
7961 
7989 
8009 
8004 
8033 
8073 
8067 
8055 
8045 
8086 
8092 
8018 
8007 
8069 
8134 
8113 
8074 
8055 
8129 
8152 
8061 
8116 
8148 
8100 
8117 
8007 
8051 
8051 
8064 
8139 
8160 
8105 
8117 
8105 
8114 
8142 
8253 
8198 
8132 
8060 
8099 
8100 
8024 
8024 
7984 
7963 
8036 
7999 
7938 
7906 
7904 
7904 
7937 
7850 
7807 
7860 
7966 
7842 
7846 
7904 
7858 
7822 
7885 
7909 
7894 
7871 
7860 
7898 
7933 
7914 
7881 
7868 
7928 
7854 
7886 
8090 
8070 
8043 
7959 
7990 
8066 
8030 
7928 
7937 
8020 
8037 
8017 
7936 
7981 
8024 
7966 
7960 
7934 
7950 
7964 
7947 
7966 
7967 
7925 
7923 
7954 
7944 
7899 
7906 
7916 
7955 
7958 
7941 
7887 
7962 
7929 
7934 
7937 
7850 
7884 
7927 
7903 
7868 
7909 
7908 
7909 
7858 
7943 
7914 
7891 
7931 
7922 
7910 
7882 
7896 
7931 
7861 
7865 
7900 
7868 
7822 
7894 
7889 
7877 
7892 
7877 
7890 
7881 
7843 
7923 
7915 
7863 
7867 
7876 
7889 
7886 
7933 
7903 
7808 
7867 
7962 
7877 
7883 
7864 
7906 
7878 
7831 
7821 
7868 
7862 
7779 
7805 
7843 
7865 
7814 
7825 
7818 
7792 
7845 
7856 
7841 
7818 
7814 
7819 
7856 
7875 
8000 
8042 
8127 
8144 
8036 
7977 
7985 
7960 
7794 
7697 
7657 
7738 
7837 
7822 
7826 
7821 
7913 
7850 
7880 
7950 
7873 
7828 
7827 
7835 
7866 
7882 
7837 
7837 
7953 
7923 
7883 
7955 
7886 
7887 
7887 
7904 
7883 
7849 
7830 
7832 
7868 
7968 
7966 
7936 
7897 
7934 
7948 
7933 
8006 
7987 
7975 
7925 
7953 
8028 
8043 
7945 
7737 
7839 
7928 
7887 
7931 
7937 
7974 
7978 
7969 
8009 
8042 
8023 
8022 
8048 
8080 
8124 
8089 
8019 
8041 
8025 
7948 
7888 
7920 
7882 
7827 
7791 
7848 
7834 
7798 
7767 
7792 
7766 
7695 
7772 
7868 
7813 
7755 
7726 
7771 
7726 
7755 
7789 
7751 
7726 
7814 
7810 
7743 
7814 
7827 
7775 
7772 
7683 
7746 
7906 
8005 
7897 
7825 
7860 
7880 
7849 
7819 
7900 
7886 
7891 
8001 
7824 
7819 
7794 
7792 
7747 
7756 
7743 
7761 
7800 
7761 
7709 
7731 
7817 
7848 
7798 
7797 
7748 
7748 
7729 
7744 
7699 
7661 
7722 
7741 
7710 
7625 
7687 
7696 
7619 
7591 
7702 
7692 
7696 
7726 
7686 
7647 
7617 
7602 
7597 
7574 
7559 
7582 
7562 
7528 
7568 
7614 
7581 
7487 
7523 
7569 
7552 
7509 
7518 
7556 
7504 
7474 
7486 
7540 
7541 
7479 
7456 
7480 
7443 
7478 
7510 
7422 
7527 
7518 
7472 
7427 
7449 
7484 
7458 
7410 
7402 
7452 
7439 
7443 
7381 
7372 
7347 
7374 
7453 
7412 
7350 
7395 
7399 
7397 
7355 
7314 
7302 
7318 
7367 
7336 
7324 
7351 
7368 
7392 
7306 
7244 
7265 
7230 
7256 
7249 
7250 
7387 
7470 
7607 
7655 
7518 
7404 
7486 
7417 
7248 
7109 
7051 
7154 
7232 
7285 
7333 
7305 
7296 
7203 
7195 
7288 
7260 
7202 
7197 
7270 
7306 
7228 
7266 
7169 
7230 
7224 
7212 
7214 
7216 
7195 
7170 
7201 
7197 
7216 
7204 
7219 
7205 
7224 
7215 
7113 
7170 
7229 
7235 
7185 
7226 
7214 
7186 
7196 
7216 
7202 
7108 
7075 
7075 
7138 
7139 
7154 
7217 
7188 
7203 
7215 
7232 
7226 
7199 
7199 
7187 
7275 
7222 
7171 
7255 
7298 
7261 
7263 
7201 
7130 
7149 
7124 
7019 
7019 
7033 
6993 
6993 
6961 
6990 
6975 
6848 
6889 
6999 
6984 
6969 
6967 
6963 
6995 
6957 
6910 
6974 
7006 
7014 
6975 
6915 
6898 
6971 
6997 
6943 
6976 
7013 
7027 
7122 
7147 
7115 
7007 
7084 
7178 
7126 
7104 
7065 
7081 
7063 
7029 
7053 
7062 
7058 
7025 
7009 
7033 
7165 
7147 
7025 
7098 
7095 
7046 
7056 
7016 
7009 
7070 
7058 
7069 
7033 
6992 
7016 
7020 
7105 
7115 
7031 
6997 
6985 
7092 
7070 
7025 
7035 
7064 
7082 
7142 
7016 
6995 
7137 
7020 
6980 
7105 
7114 
7111 
7086 
7060 
7038 
6988 
7031 
7059 
7052 
7072 
7086 
7094 
7055 
7062 
7069 
7031 
7068 
7052 
7070 
7066 
7029 
6989 
6971 
7024 
7041 
7049 
7039 
7011 
7087 
7108 
7027 
6997 
7014 
7038 
7053 
7044 
7100 
7137 
7063 
7049 
7052 
7026 
7042 
7008 
7036 
7059 
7077 
7014 
6959 
6984 
7038 
7038 
6984 
6984 
7000 
6991 
7046 
7021 
6969 
6983 
6955 
7008 
6973 
6985 
6939 
6912 
6896 
7015 
7117 
7112 
7256 
7286 
7165 
7076 
7118 
7107 
6997 
6812 
6822 
6847 
6828 
6894 
6952 
6978 
7004 
6955 
6982 
6959 
6982 
6944 
6987 
6976 
7008 
7018 
7016 
6997 
7009 
7017 
7024 
7052 
7054 
7030 
7030 
7092 
7100 
7040 
7017 
7030 
7097 
7137 
7045 
6980 
7130 
7237 
7139 
7100 
7085 
7103 
7123 
7099 
7135 
7138 
7113 
7113 
7114 
7038 
7006 
7040 
7106 
7123 
7207 
7149 
7144 
7163 
7211 
7173 
7114 
7167 
7243 
7134 
7157 
7212 
7217 
7154 
7164 
7109 
7077 
7046 
7033 
7043 
7058 
6963 
6935 
6956 
6944 
6934 
6961 
6978 
6983 
6942 
6874 
6926 
6961 
6948 
6941 
6922 
6987 
6995 
6919 
6910 
6963 
6948 
6989 
7068 
7015 
6925 
7059 
7110 
7078 
7073 
7044 
7029 
7048 
7081 
7137 
7094 
7049 
7038 
7013 
7071 
7027 
7043 
7021 
6987 
6979 
6998 
6978 
7004 
6979 
7026 
7080 
7078 
6983 
6977 
7013 
7062 
7001 
6974 
7018 
7004 
6919 
6967 
7052 
6969 
6944 
6944 
7018 
7047 
6981 
6932 
7006 
7030 
6987 
6911 
6980 
7004 
7021 
7030 
7005 
6992 
7014 
7017 
7008 
6976 
6998 
6961 
6999 
7044 
7011 
6987 
7025 
7041 
7070 
7036 
6946 
6964 
7068 
6995 
6999 
7046 
7088 
7055 
7033 
7031 
7056 
7036 
6985 
7034 
7058 
7074 
7044 
7034 
7087 
7071 
6983 
7075 
7165 
7050 
7061 
7114 
7074 
7134 
7083 
7068 
7114 
7011 
7029 
7064 
7024 
7082 
7101 
7029 
7052 
7053 
7056 
7029 
7042 
7150 
7059 
7021 
7058 
7048 
7008 
7035 
7121 
7119 
7223 
7328 
7327 
7269 
7256 
7272 
7240 
7105 
6939 
6920 
6917 
7042 
7129 
7176 
7074 
7075 
7201 
7088 
7043 
7086 
7093 
7127 
7107 
7064 
7205 
7137 
7093 
7179 
7143 
7133 
7148 
7138 
7155 
7128 
7137 
7129 
7156 
7158 
7244 
7140 
7097 
7157 
7191 
7226 
7230 
7250 
7225 
7151 
7176 
7210 
7250 
7130 
7100 
7138 
7139 
7107 
7163 
7232 
7176 
7165 
7219 
7244 
7297 
7348 
7289 
7273 
7281 
7312 
7342 
7311 
7355 
7325 
7305 
7296 
7277 
7220 
7200 
7224 
7191 
7190 
7187 
7157 
7063 
7067 
7014 
7077 
7107 
7068 
7080 
7016 
7033 
7042 
7017 
7030 
7051 
7118 
7117 
7068 
7103 
7093 
7149 
7116 
7039 
7110 
7119 
7071 
7104 
7285 
7263 
7264 
7201 
7111 
7245 
7222 
7186 
7211 
7205 
7174 
7201 
7166 
7216 
7206 
7173 
7125 
7128 
7149 
7171 
7150 
7145 
7223 
7195 
7147 
7104 
7119 
7156 
7170 
7171 
7157 
7170 
7154 
7041 
7075 
7114 
7152 
7166 
7198 
7195 
7117 
7101 
7089 
7148 
7144 
7108 
7125 
7119 
7147 
7122 
7111 
7137 
7138 
7137 
7130 
7168 
7122 
7099 
7072 
7154 
7145 
7106 
7076 
7134 
7143 
7098 
7070 
7056 
7168 
7180 
7102 
7111 
7120 
7128 
7131 
7150 
7088 
7083 
7069 
7094 
7160 
7156 
7099 
7026 
7086 
7142 
7108 
7084 
7118 
7154 
7130 
7124 
7163 
7170 
7080 
7084 
7143 
7166 
7099 
7152 
7162 
7188 
7150 
7176 
7179 
7188 
7174 
7147 
7097 
7146 
7167 
7130 
7051 
7192 
7163 
7121 
7161 
7166 
7159 
7120 
7155 
7149 
7145 
7139 
7137 
7130 
7206 
7318 
7394 
7438 
7442 
7341 
7356 
7402 
7276 
7116 
7058 
7006 
7067 
7174 
7227 
7216 
7187 
7192 
7195 
7195 
7216 
7181 
7210 
7251 
7205 
7157 
7192 
7189 
7218 
7260 
7265 
7241 
7229 
7284 
7296 
7242 
7221 
7301 
7286 
7279 
7248 
7281 
7275 
7259 
7279 
7308 
7321 
7340 
7323 
7332 
7332 
7313 
7307 
7332 
7272 
7159 
7119 
7165 
7297 
7356 
7377 
7265 
7323 
7399 
7443 
7325 
7356 
7457 
7467 
7402 
7371 
7360 
7418 
7410 
7387 
7409 
7413 
7329 
7297 
7271 
7277 
7206 
7190 
7220 
7208 
7111 
7190 
7152 
7162 
7143 
7078 
7117 
7139 
7140 
7131 
7120 
7164 
7186 
7116 
7153 
7163 
7158 
7120 
7157 
7168 
7164 
7137 
7165 
7214 
7250 
7381 
7314 
7271 
7259 
7256 
7243 
7268 
7300 
7282 
7250 
7250 
7300 
7302 
7208 
7210 
7247 
7270 
7228 
7260 
7253 
7243 
7246 
7271 
7284 
7265 
7171 
7183 
7259 
7287 
7287 
7201 
7230 
7261 
7237 
7214 
7208 
7264 
7276 
7182 
7221 
7225 
7215 
7235 
7258 
7249 
7272 
7256 
7176 
7224 
7265 
7245 
7205 
7245 
7247 
7209 
7218 
7276 
7263 
7221 
7162 
7245 
7237 
7259 
7170 
7152 
7268 
7337 
7229 
7187 
7211 
7246 
7229 
7219 
7195 
7175 
7242 
7207 
7177 
7206 
7263 
7205 
7237 
7239 
7195 
7206 
7237 
7215 
7200 
7221 
7185 
7271 
7257 
7198 
7214 
7239 
7226 
7229 
7265 
7275 
7270 
7228 
7179 
7126 
7189 
7194 
7192 
7239 
7258 
7209 
7175 
7165 
7205 
7230 
7201 
7224 
7211 
7241 
7186 
7191 
7263 
7289 
7337 
7402 
7511 
7425 
7357 
7368 
7354 
7272 
7074 
7012 
7057 
7121 
7193 
7207 
7280 
7297 
7214 
7236 
7183 
7206 
7251 
7256 
7205 
7246 
7275 
7312 
7229 
7215 
7298 
7263 
7232 
7250 
7307 
7236 
7287 
7246 
7171 
7171 
7184 
7193 
7186 
7219 
7235 
7214 
7254 
7307 
7250 
7243 
7284 
7270 
7306 
7392 
7349 
7325 
7321 
7297 
7345 
7389 
7408 
7347 
7363 
7451 
7444 
7429 
7434 
7400 
7430 
7437 
7403 
7444 
7490 
7467 
7456 
7495 
7465 
7414 
7279 
7262 
7326 
7312 
7327 
7254 
7186 
7205 
7183 
7143 
7167 
7175 
7176 
7174 
7163 
7187 
7176 
7157 
7143 
7185 
7200 
7174 
7150 
7144 
7146 
7129 
7123 
7152 
7175 
7182 
7155 
7119 
7239 
7386 
7347 
7359 
7320 
7299 
7285 
7242 
7267 
7279 
7197 
7215 
7264 
7247 
7243 
7265 
7276 
7199 
7183 
7229 
7212 
7247 
7142 
7212 
7299 
7254 
7212 
7204 
7240 
7241 
7233 
7229 
7192 
7238 
7183 
7122 
7123 
7224 
7222 
7223 
7220 
7221 
7232 
7191 
7179 
7219 
7196 
7113 
7125 
7190 
7217 
7167 
7101 
7160 
7248 
7252 
7120 
7157 
7156 
7170 
7246 
7169 
7239 
7162 
7130 
7164 
7221 
7170 
7211 
7143 
7194 
7225 
7220 
7103 
7106 
7222 
7191 
7157 
7149 
7173 
7113 
7134 
7198 
7212 
7143 
7138 
7169 
7191 
7102 
7117 
7136 
7141 
7135 
7105 
7165 
7168 
7161 
7202 
7200 
7226 
7206 
7107 
7041 
7107 
7136 
7120 
7085 
7105 
7067 
7117 
7096 
7090 
7064 
7060 
6978 
6986 
7122 
7142 
7067 
7047 
7104 
7161 
7185 
7195 
7318 
7366 
7232 
7204 
7209 
7164 
7017 
6927 
6900 
6967 
7002 
6992 
7138 
7111 
7022 
7011 
7086 
7118 
7118 
7066 
7001 
7017 
7081 
7086 
7047 
7072 
7087 
7066 
7058 
7031 
7075 
6960 
6876 
6926 
6944 
7006 
6940 
6995 
7074 
7016 
7028 
7011 
7041 
7102 
7025 
7013 
7067 
7123 
7095 
7069 
7088 
7069 
7013 
7026 
7072 
7184 
7157 
7110 
7144 
7189 
7204 
7172 
7205 
7248 
7192 
7168 
7219 
7239 
7249 
7197 
7223 
7241 
7172 
7173 
7125 
7105 
7144 
7093 
7060 
7088 
6990 
6990 
6967 
6937 
6916 
6949 
6971 
7007 
6945 
6883 
6863 
6906 
6955 
6987 
6911 
6960 
7008 
7003 
6916 
6880 
7000 
6980 
6916 
6936 
7010 
6973 
6888 
6958 
7052 
7160 
7128 
7071 
7045 
7037 
7150 
7077 
7084 
7085 
7068 
7020 
7050 
7044 
7016 
7028 
7015 
7004 
7029 
6965 
7079 
7054 
6983 
6979 
7008 
6965 
6990 
7011 
6980 
7014 
6997 
6960 
6962 
6974 
6966 
6983 
6975 
6976 
7022 
6993 
6962 
7000 
6964 
7032 
6997 
6902 
6984 
7071 
7057 
6970 
6967 
7055 
7018 
6990 
7012 
6980 
6992 
7008 
7026 
7044 
7045 
6989 
6967 
7029 
7023 
6974 
7008 
7079 
7049 
7001 
7041 
7083 
7040 
6974 
7003 
7045 
7060 
7032 
7021 
7048 
7073 
7031 
6989 
7072 
7069 
7009 
7018 
7045 
7040 
7032 
7028 
7011 
7034 
7053 
7032 
7068 
7066 
7097 
7088 
7020 
7044 
7097 
7008 
6998 
7026 
7038 
7020 
7037 
7041 
7012 
7015 
7007 
6988 
6992 
7054 
7013 
6956 
7039 
7006 
6977 
6987 
7014 
7005 
7049 
7109 
7225 
7301 
7259 
7156 
7160 
7183 
7129 
6964 
6779 
6828 
6913 
6992 
7049 
7073 
7058 
7000 
7023 
7090 
7044 
6981 
7008 
6985 
7009 
7037 
6978 
6977 
7019 
7043 
7080 
7050 
7038 
7008 
7020 
7073 
7044 
7043 
7044 
7022 
7047 
7025 
7039 
7080 
7111 
7061 
7093 
7051 
6992 
7085 
7051 
7130 
7170 
7156 
7089 
6924 
6909 
7036 
7106 
7078 
7132 
7216 
7153 
7115 
7130 
7211 
7177 
7111 
7164 
7192 
7165 
7242 
7300 
7215 
7183 
7206 
7173 
7118 
7120 
7091 
7034 
7133 
7098 
7067 
6994 
6972 
6950 
6925 
6930 
6932 
6911 
6945 
6912 
6881 
6962 
6940 
6958 
6929 
6892 
6919 
6966 
6940 
6941 
6957 
6927 
6908 
6910 
6947 
6978 
6942 
6934 
7024 
7147 
7167 
7101 
7107 
7111 
7090 
7113 
7119 
7020 
6982 
6975 
6950 
7017 
7052 
7039 
7005 
7017 
6979 
7026 
7013 
6989 
7019 
7020 
7033 
7000 
7016 
7012 
6998 
6991 
6979 
6947 
6976 
6973 
6928 
6968 
6983 
6954 
6974 
6974 
6984 
6952 
6999 
7025 
7014 
7007 
6952 
6930 
6963 
6970 
6974 
6965 
6917 
6996 
6980 
6974 
6976 
6915 
6955 
7008 
6960 
6921 
6942 
6991 
7029 
6971 
6977 
7033 
6956 
6967 
7021 
6967 
6949 
6971 
6958 
6989 
6973 
6953 
7016 
6999 
7003 
7016 
6982 
7017 
6989 
7086 
7041 
7067 
7055 
7069 
6968 
6930 
6968 
6987 
6976 
6970 
6966 
6979 
6986 
7013 
7030 
6991 
6958 
6964 
6945 
6945 
6928 
6941 
6977 
7056 
7019 
7006 
7178 
7250 
7278 
7122 
7099 
7173 
7112 
6957 
6810 
6781 
6801 
6798 
6879 
6991 
7062 
7012 
7018 
6986 
6988 
7055 
7050 
7052 
7041 
7037 
7040 
7049 
7074 
7010 
6955 
6975 
7034 
7079 
7048 
7057 
7086 
7085 
7061 
7022 
7062 
7073 
7070 
7051 
7109 
7115 
7112 
7058 
7056 
7111 
7155 
7098 
7114 
7133 
7126 
7047 
7086 
7177 
7176 
7145 
7093 
7207 
7241 
7149 
7172 
7063 
7063 
7093 
7095 
7127 
7171 
7218 
7216 
7144 
7183 
7176 
7107 
7138 
7111 
6982 
7025 
7029 
6994 
6971 
6949 
6815 
6875 
7011 
6946 
6951 
6901 
6945 
6906 
6892 
6932 
6920 
6907 
6897 
6901 
6885 
6905 
6828 
6871 
6867 
6882 
6937 
6934 
6929 
6949 
6991 
6992 
6964 
6938 
6924 
6895 
6937 
6990 
7061 
7059 
7027 
7019 
7014 
6963 
7020 
7014 
6985 
7015 
7018 
7002 
7003 
6975 
6929 
7012 
7042 
6989 
6949 
6943 
6991 
6929 
6989 
6980 
6988 
7036 
6964 
6987 
7033 
6945 
6897 
6977 
6953 
6970 
6995 
6941 
6924 
6953 
6923 
6890 
6940 
6985 
6960 
6932 
6935 
6995 
6932 
6898 
6976 
6945 
6896 
6929 
6963 
6984 
6940 
6902 
6935 
6979 
7026 
6967 
6914 
6908 
6927 
6889 
6918 
6993 
6950 
6929 
6933 
6921 
6924 
6915 
6900 
6967 
6984 
6953 
6927 
6970 
6967 
6945 
6961 
6986 
6996 
7010 
6962 
6916 
6875 
6909 
6967 
7013 
6972 
6945 
6914 
6911 
6879 
6887 
6887 
6885 
6955 
6962 
6921 
6870 
6900 
6897 
7008 
7020 
7012 
7148 
7222 
7274 
7185 
7071 
7042 
7025 
6939 
6807 
6703 
6767 
6814 
6922 
7011 
7007 
7002 
6911 
6965 
7015 
6789 
6746 
6825 
6827 
6817 
6832 
6808 
6851 
6886 
6946 
6903 
6898 
6923 
6943 
6936 
6954 
6957 
6898 
6880 
6996 
7055 
7031 
6938 
6990 
7055 
6954 
6921 
7006 
7011 
7012 
7013 
7062 
7041 
7011 
7066 
7064 
7116 
7083 
7095 
7097 
7167 
7137 
7131 
7159 
7273 
7223 
7081 
7152 
7188 
7134 
7183 
7172 
7232 
7164 
7131 
7131 
7114 
7124 
7082 
7011 
6952 
6953 
6926 
6939 
6936 
6896 
6857 
6793 
6789 
6831 
6855 
6725 
6789 
6889 
6855 
6748 
6742 
6841 
6881 
6795 
6785 
6784 
6806 
6785 
6761 
6840 
6853 
6807 
6743 
6798 
6797 
6757 
6775 
6813 
6838 
6859 
6840 
6822 
6796 
6801 
6805 
6814 
6887 
7006 
6951 
6924 
6935 
6936 
6910 
6887 
6851 
6878 
6906 
6889 
6886 
6902 
6835 
6831 
6839 
6868 
6854 
6834 
6902 
6949 
6853 
6886 
6812 
6829 
6855 
6862 
6836 
6859 
6890 
6878 
6881 
6872 
6898 
6877 
6837 
6849 
6914 
6856 
6911 
6904 
6858 
6868 
6897 
6864 
6847 
6763 
6812 
6839 
6835 
6849 
6851 
6867 
6852 
6864 
6859 
6813 
6865 
6842 
6915 
6874 
6808 
6849 
6856 
6812 
6884 
6866 
6857 
6839 
6809 
6808 
6860 
6851 
6807 
6823 
6858 
6839 
6859 
6878 
6885 
6858 
6834 
6866 
6894 
6888 
6808 
6780 
6800 
6797 
6779 
6764 
6713 
6823 
6812 
6758 
6820 
6788 
6758 
6778 
6750 
6683 
6714 
6780 
6858 
6861 
7038 
7129 
7172 
7051 
6992 
6988 
6928 
6823 
6638 
6624 
6637 
6830 
6900 
6860 
6885 
6890 
6870 
6884 
6911 
6868 
6882 
6871 
6886 
6913 
6961 
6884 
6850 
6853 
6884 
6884 
6914 
6962 
6895 
6914 
6910 
6917 
6922 
6982 
6959 
6874 
6948 
6962 
6905 
6778 
6837 
6846 
6847 
6869 
6910 
6890 
6904 
6946 
6988 
6976 
6981 
6982 
6999 
7011 
7028 
6987 
7009 
7069 
7114 
7072 
7068 
7183 
7191 
7089 
7138 
7161 
7097 
7079 
7124 
7136 
7132 
7091 
7020 
6994 
6969 
6941 
6936 
6903 
6912 
6958 
6842 
6824 
6883 
6840 
6879 
6854 
6840 
6777 
6836 
6864 
6838 
6851 
6812 
6799 
6817 
6876 
6843 
6816 
6800 
6813 
6801 
6799 
6839 
6841 
6813 
6800 
6777 
6820 
6870 
6857 
6814 
6853 
6902 
6847 
6821 
6905 
6844 
6781 
6810 
6824 
6822 
6834 
6795 
6829 
6774 
6791 
6795 
6859 
6901 
6857 
6813 
6780 
6834 
6819 
6842 
6806 
6798 
6853 
6840 
6841 
6792 
6758 
6746 
6864 
6889 
6785 
6763 
6777 
6771 
6789 
6826 
6789 
6804 
6816 
6825 
6809 
6799 
6777 
6808 
6816 
6788 
6812 
6821 
6722 
6744 
6779 
6840 
6834 
6764 
6761 
6842 
6808 
6784 
6790 
6781 
6862 
6852 
6755 
6763 
6853 
6881 
6865 
6850 
6847 
6860 
6845 
6812 
6841 
6853 
6804 
6857 
6894 
6883 
6752 
6815 
6865 
6884 
6894 
6839 
6865 
6830 
6801 
6832 
6853 
6795 
6789 
6816 
6853 
6871 
6770 
6805 
6817 
6821 
6789 
6768 
6784 
6813 
6798 
6788 
6849 
6880 
6953 
7051 
7100 
7125 
6975 
6868 
6918 
6903 
6778 
6653 
6632 
6704 
6698 
6708 
6784 
6869 
6849 
6867 
6848 
6865 
6939 
6901 
6835 
6837 
6883 
6840 
6862 
6877 
6855 
6883 
6839 
6945 
6911 
6924 
6894 
6816 
6849 
6900 
6836 
6940 
6961 
6930 
6860 
6881 
6962 
6977 
6936 
6917 
6917 
6947 
6951 
6953 
6944 
6972 
6969 
6958 
6931 
6978 
7011 
7021 
7004 
7066 
7095 
7048 
7033 
7028 
7059 
7117 
7130 
7104 
7150 
7164 
7163 
7087 
7067 
7067 
7077 
7013 
7047 
7045 
6950 
6966 
6922 
6898 
6870 
6862 
6861 
6900 
6857 
6850 
6853 
6875 
6864 
6825 
6826 
6875 
6825 
6792 
6827 
6875 
6841 
6850 
6895 
6841 
6863 
6903 
6855 
6855 
6797 
6785 
6790 
6879 
6893 
6835 
6815 
6826 
6883 
6868 
6788 
6816 
6841 
6848 
6848 
6830 
6867 
6864 
6785 
6788 
6860 
6858 
6746 
6764 
6848 
6815 
6781 
6788 
6813 
6840 
6864 
6836 
6853 
6865 
6839 
6759 
6764 
6849 
6796 
6746 
6724 
6845 
6829 
6794 
6790 
6824 
6821 
6763 
6804 
6820 
6804 
6812 
6802 
6786 
6836 
6820 
6715 
6748 
6824 
6826 
6756 
6805 
6833 
6762 
6778 
6785 
6792 
6785 
6750 
6759 
6733 
6760 
6758 
6817 
6799 
6812 
6787 
6764 
6744 
6806 
6814 
6723 
6792 
6760 
6792 
6735 
6741 
6742 
6753 
6773 
6816 
6806 
6824 
6798 
6778 
6833 
6810 
6715 
6746 
6898 
6823 
6744 
6821 
6836 
6798 
6806 
6813 
6786 
6744 
6737 
6786 
6734 
6709 
6737 
6756 
6757 
6768 
6760 
6732 
6720 
6760 
6798 
6686 
6684 
6703 
6750 
6791 
6835 
7000 
7027 
7001 
6926 
6920 
6940 
6883 
6769 
6642 
6595 
6658 
6755 
6820 
6789 
6803 
6765 
6735 
6795 
6796 
6708 
6696 
6766 
6843 
6809 
6755 
6787 
6829 
6763 
6738 
6752 
6787 
6895 
6858 
6799 
6831 
6847 
6838 
6774 
6889 
6878 
6805 
6863 
6875 
6865 
6853 
6902 
6871 
6879 
6900 
6848 
6858 
6939 
6934 
6892 
6926 
6971 
6962 
6930 
6915 
6890 
7008 
7049 
7102 
7063 
7025 
7012 
7042 
7056 
7082 
7043 
7053 
7023 
7039 
7038 
6991 
6973 
6951 
6935 
6928 
6829 
6882 
6971 
6826 
6806 
6860 
6787 
6757 
6738 
6748 
6703 
6692 
6748 
6759 
6742 
6710 
6759 
6786 
6703 
6732 
6830 
6759 
6785 
6697 
6726 
6750 
6747 
6754 
6737 
6689 
6726 
6747 
6731 
6757 
6764 
6801 
6776 
6764 
6757 
6755 
6746 
6786 
6802 
6750 
6717 
6706 
6731 
6725 
6791 
6745 
6726 
6766 
6774 
6727 
6708 
6820 
6786 
6706 
6750 
6835 
6818 
6742 
6762 
6794 
6822 
6744 
6783 
6810 
6772 
6740 
6743 
6759 
6801 
6818 
6743 
6736 
6813 
6766 
6748 
6811 
6826 
6806 
6775 
6724 
6766 
6811 
6796 
6751 
6762 
6762 
6713 
6819 
6764 
6773 
6748 
6758 
6815 
6783 
6724 
6734 
6724 
6718 
6734 
6738 
6767 
6796 
6706 
6723 
6754 
6727 
6754 
6684 
6695 
6712 
6762 
6765 
6737 
6775 
6773 
6724 
6725 
6733 
6724 
6738 
6705 
6709 
6729 
6713 
6757 
6717 
6681 
6716 
6704 
6636 
6710 
6817 
6723 
6719 
6707 
6721 
6753 
6760 
6740 
6737 
6728 
6761 
6761 
6779 
6767 
6735 
6701 
6724 
6771 
6692 
6672 
6732 
6714 
6665 
6721 
6769 
6743 
6699 
6676 
6684 
6686 
6754 
6673 
6674 
6688 
6671 
6675 
6744 
6775 
6876 
6980 
6990 
6944 
