7308.305181062839,7413.268973024961,7492.036520485463,7325.426617315605,7298.135137335675,7455.33495608985,7644.900100815309,7528.0675325474185,7492.930590263676,7613.875879511343,7789.381776974414,7674.538513963046,7562.355108541859,7614.211155678172,7693.582200238968,7502.318322934905,7273.302349245829,7273.235294012463,7434.61488897978,7432.759694189989,7264.6298723971695,7283.517096461904,7438.593499492825,7472.881075487266,7276.29748300284,7262.774677607379,7395.097004782797,7479.072508701385,7323.6831812480905,7286.266361029907,7358.820123531834,7495.836317042866,7349.141818182686,7267.513247431904,7343.352716368761,7498.518526377503,7394.694673382602,7280.4772592159825,7360.340042154795,7477.262017400506,7431.9773831340535,7278.48795395946,7316.35180906675,7489.711939062112,7472.434040598159,7287.6968726750465,7312.708474720535,7457.346613090827,7512.376607939793,7335.149626153663,7327.862957461233,7449.031764153453,7551.670974692223,7391.7665948589565,7347.308975137351,7451.244586854528,7567.987748144597,7420.935621373132,7365.816219546345,7458.061868913397,7610.724283543144,7502.497136890547,7395.946371072098,7451.6469182547235,7608.377350375337,7542.171483298717,7406.205821777085,7461.414630581693,7601.180088660728,7510.7225788501,7235.729066816458,7261.813552595801,7421.807339406889,7484.146354692741,7300.817346670312,7293.933009378077,7400.5731821743475,7465.929682961665,7281.728956905479,7238.992421506932,7316.4635677890265,7420.8015109064,7273.905846346122,7169.925531140034,7228.889433013133,7383.071766265842,7286.48987847446,7134.542719667283,7185.281179580829,7354.081553707309,7283.628855184181,7141.6505744040705,7184.051833635787,7340.961079712043,7347.308975137351,7161.253054291375,7180.654368478581,7304.617143227714,7358.998937487476,7190.310322083274,7174.105307353176,7297.978675124487,7380.344853442294,7208.795214747813,7178.486249266416,7272.229465511974,7403.635371164724,7268.809648610312,7175.357005042673,7249.050706511821,7397.89097283971,7282.041881327854,7190.75735697238,7237.338392417239,7395.7005018830905,7320.665695746625,7166.1927898159975,7207.744682758414,7356.272024663928,7355.802638030367,7336.915413965633,7418.365170760771,7494.7857850534665,7533.431951216692,7348.471265849026,7319.324591079306,7408.4409962226155,7507.593334626357,7326.723018494013,7252.29170945784,7337.675373277113,7461.995775937531,7311.769701453412,7221.245136409419,7295.140003578664,7436.939470403132,7320.598640513259,7211.276258382351,7243.283956442351,7388.145612257196,7357.166094442141,7210.516299070871,7197.7087494979805,7340.648155289669,7355.5567688413585,7190.980874416933,7200.480365810438,7316.374160811206,7370.621844604236,7197.9993221759,7180.475554522938,7292.547201221848,7389.12908901323,7226.631906823148,7178.709766710969,7285.72991916298,7430.479816255548,7283.807669139823,7175.513467253861,7228.509453357394,7365.190370701596,7271.156581778119,7151.820618131235,7181.973121401445,7327.080646405298,7279.9184656046,7133.3804289556065,7173.546513741793,7306.897021162155,7307.813442684823,7147.931414596012,7143.997507571878,7271.134230033664,7349.208873416052,7178.530952755327,7165.7234031824355,7342.3468878682725,7520.110311521329,7391.878353581233,7383.4964494104925,7525.139454023773,7663.362641735393,7520.15501501024,7414.878298625744,7430.412761022182,7447.802418208411,7229.805854535802,7065.855808956124,7145.606833172659,7328.8464342172665,7308.528698507393,7169.523199739838,7205.7553775018905,7318.274059089907,7320.084550390787,7171.13252534062,7178.173324844042,7286.132250563175,7349.499446093971,7187.963388915467,7167.869170650145,7269.435497455061,7364.184542201107,7212.930287472044,7161.4989234803825,7262.595863651737,7377.372071429739,7223.726180043957,7137.493149935383,7228.6435638241255,7384.949312800088,7301.890230404167,7154.033440832311,7176.653406221081,7337.988297699488,7324.957230682044,7168.003281116878,7193.037234906821,7332.579175541303,7344.8055797583565,7187.114022626165,7198.334598342729,7324.890175448678,7407.368112488761,7224.24027016643,7199.4745373099495,7312.462605531527,7445.835464696344,7278.800878381834,7220.082845697742,7320.598640513259,7467.740174262545,7338.16711165513,7265.412183453105,7331.998030185465,7461.347575348327,7397.220420506052,7284.545276706848,7324.867823704222,7474.155124921218,7455.625528767769,7280.164334793608,7288.255666286429,7302.471375760005,7225.38020913365,7079.155096907031,7092.744957535859,7206.560040302282,7263.445229941039,7096.075367459699,7050.1425326040435,7146.947937839978,7253.074020513776,7068.2250938683865,6998.599409890105,7066.951044434434,7206.358874602184,7090.778004023791,6990.6198371195605,7024.952116602912,7171.020766618343,7109.3746554106065,6969.676252564937,7024.862709625091,7174.664100964559,7130.720571365425,6967.463429863862,6997.191249989421,7127.948955052967,7155.933339111011,6996.945380800412,6999.694645368415,7118.650629359559,7199.027502420843,7052.981204149867,7027.880195126557,7109.888745533079,7205.7553775018905,7088.431070855984,7024.616840436082,7087.335835377674,7234.365610404684,7133.9839260559,7031.501177728317,7094.421338370006,7250.436514668049,7176.184019587519,7049.986070392856,7063.106544388122,7216.506566584893,7212.393845605117,7058.390326308051,7128.440693430984,7423.751941174501,7437.252394825506,7240.154712218608,7217.6688572965695,7316.30710557784,7395.342873971806,7210.203374648497,7182.263694079363,7260.137171761653,7376.36624292925,7205.889487968623,7117.22011771442,7200.323903599251,7348.113637937741,7240.24411919643,7089.839230756668,7131.882862077101,7287.875686630689,7237.271337183874,7119.947030537967,7164.89638863759,7306.561744995326,7263.9816718079655,7092.722605791403,7107.6088675986375,7230.252889424907,7244.759171576402,7069.365032835607,7075.064727671711,7172.384223030117,7232.666877826081,7086.352358621641,7060.156114120021,7171.80307767428,7281.170163294097,7139.393048214084,7101.126861706599,7185.191772603009,7299.677407703091,7204.660142023581,7163.644690948092,7303.499556004948,7504.508793891525,7499.233782200073,7393.867658837755,7451.9374909326425,7575.363823814849,7571.5640272574465,7393.644141393202,7315.122463121708,7291.049634343342,7252.001136779922,7099.40577738354,7104.524326863805,7251.19647397953,7338.144759910675,7180.006167889377,7127.166643997031,7206.157708902087,7349.767667027434,7222.228613165452,7134.296850478274,7218.42881660805,7352.159303684152,7254.5939391367365,7160.314281024252,7213.399674105606,7375.986263273509,7317.849375945256,7167.243321805397,7183.224819090941,7342.145722168175,7339.552919811359,7177.1674963435535,7217.221822407463,7326.477149305004,7381.46244066506,7214.76313051738,7195.048891907799,7303.141928093663,7417.89578412721,7279.7172999045015,7212.416197349572,7315.748311966457,7442.28153732795,7324.778416726401,7250.14594199013,7320.442178302072,7471.964653964598,7396.147536772197,7292.770718666401,7354.238015918496,7504.464090402615,7465.57205505038,7328.600565028259,7373.12523998323,7533.119026794318,7541.8585588763435,7400.193202518607,7417.269935282462,7547.915881623731,7606.388045118814,7421.561470217881,7434.838406424333,7536.9858785850865,7637.121693744862,7337.742428510479,7212.259735138386,7322.945573681066,7469.751831263523,7334.568480797825,7228.844729524223,7306.0700066173085,7449.232929853551,7324.30903009284,7197.149955886598,7236.62313659467,7375.874504551233,7316.083588133287,7164.4270020040285,7209.644581037114,7344.269137891429,7341.162245412141,7172.7642026858575,7192.098461639698,7327.862957461233,7388.6597023796685,7214.651371795103,7183.9177231690555,7301.8455269152555,7411.413778235171,7250.928253046067,7204.280162367841,7301.487899003971,7442.482703028048,7318.676390490102,7229.738799302435,7298.604523969237,7440.649859982713,7360.7200218105345,7250.9506047905215,7278.331491748273,7434.99486863552,7410.22913577904,7265.970977064488,7285.864029629712,7411.927868357643,7454.597348522824,7292.837773899767,7265.278072986373,7409.5585834453805,7473.238703398551,7301.979637381988,7284.232352284474,7392.928885570632,7482.268808158495,7440.538101260437,7474.62451155478,7537.142340796273,7654.444295697725,7484.43692737066,7398.4050629621825,7460.386450336749,7584.013948919052,7491.276561173983,7364.385707901205,7408.061016566875,7551.961547370142,7495.679854831679,7341.45281809006,7398.449766451093,7522.323134222404,7526.078227290896,7362.575216600325,7359.937710754599,7490.583657095869,7551.939195625687,7386.8939145676995,7363.424582889626,7460.051174169919,7571.027585390519,7413.336028258327,7375.27100745094,7455.8713979567765,7618.927373758242,7499.926686278187,7390.93958031411,7437.118284358774,7580.482373295114,7471.696433031134,7348.024230959921,7404.238868265018,7534.7060006506445,7500.8878112897655,7337.675373277113,7362.642271833691,7510.00732302753,7521.540823166469,7354.260367662951,7344.313841380339,7473.618683054291,7557.527131739514,7376.41094641816,7350.281757149906,7495.232819942573,7679.478249487669,7567.45130627767,7537.097637307363,7664.055545813507,7888.154135722415,7772.170933743827,7663.697917902222,7738.196282171761,7859.655661541899,7660.099287044917,7409.044493322908,7393.375920459738,7541.344468753871,7517.5622126534245,7350.952309483566,7386.759804100968,7530.235651759584,7571.720489468634,7384.524629655437,7370.845362048789,7510.096730005352,7584.1257076413285,7394.493507682504,7380.009577275465,7489.309607661916,7611.685408554722,7442.6615169836905,7388.346777957294,7472.14346792024,7606.432748607725,7482.335863391861,7399.746167629501,7450.954014176609,7611.46189111017,7543.06555307693,7400.349664729794,7441.141598360729,7606.946838730198,7589.847754221887,7418.409874249683,7425.830653408844,7591.255914122572,7631.623164608856,7441.655688483202,7447.400086808216,7591.12180365584,7693.7163107056995,7503.145337479751,7471.741136520045,7587.545524542991,7747.204035187249,7582.0693471514405,7510.275543960995,7626.370504661859,7826.530376259134,7729.188529156271,7626.839891295421,7713.877584204386,7845.283489857136,7571.049937134974,7199.832165221234,7090.68859704597,7242.546348875327,7201.240325121918,6802.909887183891,6796.293770825121,6985.322473683653,7077.992806195356,6857.179922721377,6846.205216193822,7041.961794133401,7262.215883995997,7044.666355212493,6697.767281266128,6520.7414651800955,6590.478907880653,6530.53152925152,6516.606392455864,6653.711992944717,6837.286870156154,6758.720488395749,6670.229932097189,6732.613650871951,6942.116551651544,6914.1321675935,6799.0877388820345,6881.900952088947,7062.838323454657,7112.414492656529,6986.685930095427,7018.313648499686,7185.549400514294,7274.710509146513,7136.643783646082,7140.354173225663,7258.5278461608705,7397.935676328621,7253.00696528041,7194.691263996514,7309.221602585507,7466.019089939487,7321.671524247114,7253.096372258231,7343.799751257868,7489.756642551022,7389.330254713328,7271.335395733762,7325.091341148775,7502.698302590645,7467.427249840171,7344.604414058258,7361.792905544389,7619.329705158438,7768.885227308897,7560.902245152265,7552.296823536972,7722.684171519777,7804.290390526104,7609.182013175728,7567.250140577572,7672.28098777306,7802.502250969679,7676.304301775015,7596.933257214219,7623.464777882669,7720.270183118604,7525.474730190603,7365.436239890604,7368.5878358588025,7511.05785501693,7361.8376090333,7174.865266664657,7224.486139355438,7421.6508771957015,7367.671414336135,7192.880772695634,7245.429723910061,7428.155234832197,7446.953051919109,7239.14888371812,7241.473465141472,7358.775420042923,7422.857871396288,7152.424115231528,7080.384442852073,7168.740888683902,7209.733988014936,6938.942603938891,6800.719416227272,6808.922506442369,6895.915495862424,6702.259981901644,6562.606282544885,6636.1435218028455,6805.793262218626,6668.553551263041,6466.382022664789,6538.712267722162,6759.5251511961405,6733.4630171612525,6535.605375242874,6570.183523915234,6747.768133612649,6787.755404443194,6642.022030594591,6659.299929058544,6844.059448726112,6914.333333293597,6731.183139226811,6688.290141617077,6777.2500845491995,6858.051640755134,6551.989203928614,6390.184925816647,6484.1740112512125,6671.347519319955,6553.710288251673,6499.730825392106,6612.316562213488,6783.910904396881,6703.42227261332,6571.435221604732,6578.654835063796,6715.201641941267,6672.174533864801,6529.10101760638,6603.688788853739,6811.716474499282,6855.302376187132,6732.323078194032,6792.583381245539,6934.9192899369355,7038.474921998373,6915.652086216461,6927.3420485665865,7078.864524229112,7214.629020050647,7072.11429740361,7045.023983123778,7165.164609571053,7316.240050344473,7199.5862960322265,7139.9518418254665,7220.909860242589,7385.999844789487,7301.8455269152555,7206.001246690899,7284.142945306653,7453.94914793362,7428.758731932489,7279.605541182225,7316.597678255758,7478.4690116010925,7517.361046953327,7355.713231052546,7371.918245782644,7508.912087549221,7584.528039041525,7432.849101167811,7426.545909231414,7548.631137446301,7672.750374406622,7487.275598916483,7436.447732025115,7543.669050177223,7687.010787369108,7564.523227754024,7430.5692232333695,7349.3876873716945,7514.611782385324,7453.14448513323,7338.994126199977,7387.139783756707,7535.2871460064825,7487.00737798302,7334.367315097727,7346.5713675703255,7475.563284821902,7487.677930316679,7288.076852330787,7277.616235925703,7403.411853720171,7465.996738195031,7290.580247709781,7260.561854906304,7373.16994347214,7472.903427231721,7320.151605624153,7271.737727133957,7354.416829874138,7490.695415818145,7386.715100612057,7277.817401625801,7331.327477851806,7482.827601769877,7422.924926629655,7308.8863264186775,7349.298280393873,7506.341636936861,7471.942302220143,7331.103960407253,7372.320577182839,7515.461148674625,7520.736160366078,7365.212722446052,7362.977548000521,7494.159936208718,7564.679689965212,7404.9764758320425,7383.630559877224,7483.207581425618,7602.6776555392335,7450.261110098495,7389.352606457783,7468.366023107294,7600.576591560435,7499.792575811455,7567.205437088662,7667.900045859819,7781.066928037039,7691.972874638185,7539.06459081943,7577.867219193843,7717.677380761788,7664.99431908063,7508.353293937838,7521.58552665538,7635.221795466161,7661.1945225232275,7491.947113507643,7493.601142597336,7597.894382225798,7674.940845363241,7502.094805490352,7466.5555318064135,7582.337568084904,7693.358682794415,7540.316288508927,7498.093843232852,7584.349225085882,7723.220613386705,7590.160678644262,7483.118174447796,7537.477616963103,7672.862133128898,7585.5338675420135,7466.399069595226,7508.375645682293,7645.771818849065,7616.669847568256,7464.566226549891,7481.821773269388,7609.293771898005,7647.805827594499,7469.215389396595,7471.584674308858,7600.956571216175,7685.468517001691,7501.446604901148,7494.718729820101,7637.144045489317,7814.795710420098,7710.256601602627,7691.928171149275,7832.587699006522,8006.350160402079,7870.406850624901,7776.216599490238,7812.4040737633795,7871.122106447471,7671.073993572473,7452.250415355017,7488.817869283899,7663.317938246481,7661.641557412334,7508.643866615756,7539.779846642,7673.152705806817,7700.846517186942,7524.1336255232845,7526.480558691092,7655.114848031384,7747.360497398437,7565.193780087684,7522.099616777852,7630.863205297376,7758.446962648269,7612.17714693274,7532.0014395715525,7634.752408832599,7767.275901708115,7630.505577386091,7538.461093719136,7614.5911353339125,7755.362421913436,7685.155592579316,7563.584454486901,7618.837966780421,7756.6811748363,7749.081581721495,7581.667015751245,7597.961437459164,7733.368305369414,7778.272959980126,7609.964324231663,7590.853582722376,7716.38097958338,7807.464338238757,7639.312164701482,7611.55129808799,7709.317828335504,7836.588661264022,7705.629790500378,7617.340399901915,7692.6657787163,7843.964736934274,7743.113665951928,7644.296603715015,7722.058322675029,7880.643949585432,7782.631550148911,7645.391839193326,7718.236174373171,7861.332042376047,7857.331080118547,7715.531613294079,7749.48391312169,7888.176487466871,7819.1543005888825,7519.864442332321,7539.310460008438,7668.1235633043725,7737.726895538199,7565.7525736990665,7520.982029555086,7592.172335645239,7705.518031778101,7551.514512481036,7488.415537883704,7560.030527118508,7682.696900689233,7581.443498306692,7488.370834394794,7534.303669250449,7684.730909434666,7612.624181821845,7476.278540644472,7532.984916327587,7683.076880344973,7681.512258233101,7533.186082027684,7551.961547370142,7670.80577263901,7718.571450540001,7548.720544424123,7537.231747774094,7654.6231096533675,7754.021317246118,7588.193725132195,7534.124855294807,7617.094530712907,7745.572357842012,7603.705835784178,7475.4738778440815,7546.239500789583,7703.595781754945,7588.55135304348,7470.735308019556,7525.8994133352535,7684.507391990112,7659.071106799974,7502.743006079556,7502.228915957084,7645.637708382334,7660.971005078674,7525.184157512684,7695.660912473311,7858.918053974874,7872.910246003896,7683.747432678632,7670.425792983269,7758.134038225894,7850.804370737597,7700.243020086649,7651.583272407445,7724.29349712056,7853.710097516788,7715.397502827347,7630.773798319555,7674.538513963046,7819.578983733533,7722.013619186118,7584.1257076413285,7635.89234779982,7810.794748162598,7727.221575644205,7589.132498399317,7607.9526672306865,7734.2176716587155,7727.57920355549,7550.240463047084,7549.949890369165,7667.631824926356,7707.127357378884,7526.145282524262,7524.223032501106,7640.675621113256,7762.447924905769,7630.79615006401,7585.019777419541,7670.13522030535,7802.457547480768,7666.357775492404,7572.614559246846,7640.697972857711,7839.494388043212,7831.0677803835615,7752.568453856523,7828.273812326648,8036.368553205557,8047.20914926638,7869.825705269063,7904.314446963603,8058.385021494034,7973.806020475152,7706.322694578493,7706.322694578493,7811.889983640908,7882.745013564231,7724.874642476398,7699.57246775299,7795.662617166355,7898.838269572052,7715.732778994176,7654.42194395327,7731.446055346258,7867.255254656703,7743.180721185294,7665.284891758549,7715.978648183185,7877.648815828421,7829.480806527235,7644.698935115211,7673.242112784638,7827.558556504078,7806.704378927277,7674.069127329484,7700.868868931398,7847.988050936228,7855.230016139748,7708.960200424219,7716.33627609447,7846.311670102081,7903.599191141033,7724.1817383982825,7708.133185879373,7828.497329771201,7950.046116119161,7799.149489301382,7743.605404329945,7809.520698728646,7953.28711906518,7851.184350393338,7751.853198033953,7799.283599768115,7954.427058032401,7900.961685295307,7786.230181006215,7816.472091254246,7992.112099184049,7978.321072855124,7843.137722389427,7886.634217099455,8048.907881844984,8086.369405552078,7934.288136278169,7914.059807546117,8051.567739435165,8140.013592244815,7987.373529359524,7881.3145019190915,7844.501178801201,7979.416308333434,7860.728545275753,7830.374876305446,7902.325141707081,8046.672707399453,7932.254127532737,7837.080399642039,7895.999598026228,8042.627041653042,7959.456200534845,7819.35546628898,7865.735336033743,8012.452186638378,7993.162631173448,7817.209698821271,7822.417655279358,7972.91195069694,8008.808852292163,7807.889021383407,7786.945436828785,7901.140499250949,7971.392032073979,7753.864855034931,7715.889241205364,7817.947306388296,7946.738057939775,7805.877364382431,7741.593747328967,7813.5440127306,7974.320110597624,7865.914149989385,7758.357555670447,7800.088262568505,7961.423154046912,7901.341664951046,7780.284616981104,7815.68978019831,7971.615549518532,7974.4095175754455,7792.689835153799,7813.9910476197065,7956.371659800013,8016.006114006772,7832.252422839692,7814.59454472,7910.975266811284,8011.736930815809,7838.309745587081,7866.763516278686,8098.282885346757,8220.435168795011,8028.25486996828,7944.212310816326,8023.82922456613,8192.026101592315,8071.6172542115755,7952.773028942708,7970.229741362303,8142.718153323907,8091.085623632148,7941.261880548225,7988.2675991377355,8130.447045617944,8135.878519520584,7947.296851551158,7926.576784441088,8077.78633568124,8140.259461433824,7948.660307962931,7954.874092921507,8061.02252733976,8185.007653833349,8036.569718905655,7986.457107836856,8078.1886670814365,8157.716173853419,8005.836070279607,7919.4689297043005,8002.282142911214,8127.586022327665,8021.549346631688,7904.359150452513,7963.613625003532,8123.026266458782,8087.1740683524695,7921.324124494091,7957.578654000599,8096.762966723796,8110.375179097078,7964.105363381549,7946.961575384328,8105.346036594634,8265.138657705624,8158.18556048698,8142.315821923712,8292.720710363474,8465.276177558444,8303.695416891029,8245.692640029507,8358.859522206727,8450.47932272903,8200.787985418796,7981.472668823322,7986.859439237051,8148.149627226548,8082.927236905961,7957.24337783377,8008.004189491772,8170.18844725948,8155.793923830262,7990.882753239007,7987.932322970906,8142.204063201436,8161.09128726617,7998.527049842722,8001.432776621912,8103.468490060389,8183.934770099494,8004.897297012484,7986.457107836856,8087.889324175039,8217.663552482552,8047.857349855584,7985.674796780921,8075.640568213531,8219.898726928082,8081.541428749732,7974.34246234208,8052.528864446744,8229.755846232872,8135.856167776128,7994.347273629579,8038.424913695445,8214.936639659005,8148.417848160011,8001.388073133001,8032.121721759048,8186.058185822748,8221.48570078441,8041.934137574928,8034.155730504482,8176.469287451421,8253.046363955304,8083.977768895361,8056.149847048503,8168.087383280681,8306.154108781113,8151.256519705835,8094.192516111436,8185.298226511268,8335.569004484298,8224.033799652314,8132.637516574564,8191.623770192119,8358.926577440092,8302.913105835094,8175.195238017469,8180.403194475555,8197.85990689515,8096.047710901226,7961.534912769189,8000.873983010529,8152.307051695235,8181.878409609606,7993.274389895724,7971.14616288497,8084.715376462385,8155.570406385709,7967.011090160739,7917.747845381242,8007.378340647023,8125.395551371044,7960.864360435529,7894.882010803463,7999.15289868747,8173.116525783125,8047.656184155487,7913.255144745725,7980.355081600557,8160.420734932511,8108.788205240751,7918.0607698036165,7958.2715580787135,8123.406246114522,8108.3635220961005,7917.434920958868,7957.735116211787,8120.2770018907795,8159.928996554494,7975.013014675738,7971.794363474174,8105.882478461562,8208.097005855681,8024.767997833253,7968.083973894593,8072.064289100682,8210.153366345568,8068.376251265557,7982.433793834901,8050.8971871015065,8227.900651443082,8119.070007690193,7990.614532305543,8033.619288637554,8199.804508662763,8162.946482055961,8188.986264346393,8237.780122492328,8311.227954772468,8300.387358711643,8115.001990199326,8120.075836190682,8240.663497527063,8287.155125994102,8101.03214991476,8069.516190232777,8186.773441645318,8271.419497897567,8099.5569347807095,8036.614422394565,8141.868787034606,8281.142506735625,8126.624897316086,8041.978841063838,8105.502498805821,8256.421477368054,8142.718153323907,8025.796178078196,8086.481164274355,8247.212558652469,8176.3351769846895,8013.390959905501,8058.1168005605705,8239.501206815386,8270.883056030638,8084.424803784466,8073.226579812358,8202.307904041756,8267.083259473236,8069.963225121883,8037.977878806339,8160.532493654788,8280.270788701868,8098.394644069033,8034.06632352666,8143.5228161242985,8285.612855626685,8139.097170722148,8042.850559097596,8110.4198825859885,8290.552591151309,8186.236999778391,8057.446248226911,8119.181766412469,8331.188062571056,8366.660281021628,8242.786913250317,8326.74006542445,8547.530597153975,8574.151524800245,8379.713699783528,8375.153943914645,8476.250884086,8428.57461316283,8115.60548729962,8043.230538753336,8177.139839785081,8318.73814090945,8153.938729040472,8088.045786386227,8189.008616090849,8347.460132534521,8197.077595839215,8089.945684664927,8151.815313317217,8341.536920253864,8254.92391048955,8119.897022235039,8174.681147894997,8333.177367827579,8277.63328285614,8110.643400030542,8140.415923645011,8294.017111541882,8316.860594375205,8120.768740268796,8112.006856442315,8255.326241889745,8360.290033851867,8167.394479202567,8129.642382817553,8251.258224398878,8377.098545682258,8204.453671509465,8137.353734654634,8235.746113746896,8395.494031368975,8266.21154143948,8165.114601268126,8226.403084564578,8399.115013970735,8352.869254692705,8196.675264439018,8237.221328880945,8404.345322173276,8401.976037261014,8227.431264809522,8263.127000704646,8436.218909766545,8462.19163682361,8293.681835375051,8290.217314984478,8439.839892368305,8533.851329547326,8346.387248800665,8320.45922523251,8437.180034778123,8590.714167441627,8381.881818995693,8159.861941321128,8217.641200738097,8428.395799207186,8299.180364511058,8170.121392026114,8240.663497527063,8401.685464583095,8346.253138333934,8176.022252562315,8190.081499824703,8340.799312686839,8328.59526021424,8132.346943896645,8134.582118342176,8300.45441394501,8336.17250158459,8138.136045710569,8117.013647200304,8244.306831873278,8372.56114155783,8190.282665524801,8141.712324823418,8259.39425938061,8411.05084550987,8217.842366438195,8123.294487392246,8221.217479850946,8401.149022716168,8293.234800485945,8164.935787312483,8202.464366252943,8398.913848270637,8369.007214189436,8194.23892429339,8231.38752357811,8440.979831335526,8448.713534917062,8243.971555706448,8265.809210039284,8427.658191640163,8498.803794241405,8293.234800485945,8272.604140353696,8424.461892183053,8537.673477849183,8320.436873488054,8263.127000704646,8380.250141650456,8544.200187230133,8399.785566304394,8435.458950455064,8553.699678623638,8703.456366474196,8598.380815789797,8402.870107039227,8434.609584165762,8611.501289785063,8570.396431731753,8402.490127383486,8425.400665450175,8596.816193677925,8619.905545700258,8424.260726482955,8413.017799021936,8532.443169646642,8622.833624223904,8427.47937768452,8383.267627151923,8528.509262622507,8664.296110188498,8462.459857757076,8408.14511873068,8535.483006892564,8693.979226825146,8541.093294750845,8402.221906450022,8474.52979976294,8669.973453280147,8573.436268977675,8400.925505271614,8437.895290600693,8637.921051731235,8601.912391413736,8425.423017194631,8457.743639677004,8636.311726130454,8683.228037742143,8496.568619795873,8455.82138965385,8632.556633061962,8730.747846454125,8530.699733579127,8560.628719404784,8773.439678363762,8924.470415648273,8797.110175741933,8769.885750995369,8895.659017045382,9021.83461449559,8868.769868465646,8715.794529413526,8677.170714994754,8736.469893034684,8607.343865316376,8463.890369402216,8542.188530229156,8744.762390227603,8706.831479886947,8513.332428137353,8544.870739563792,8717.515613736585,8776.837143520968,8577.03489983498,8527.838710288848,8654.99778449509,8772.992643474656,8603.94640015917,8562.707431639128,8714.542831724028,8853.928310147323,8626.454606825662,8506.559849567397,8605.220449593122,8804.039216523077,8709.178413054755,8596.123289599811,8617.223336365621,8795.724367585703,8724.645820217827,8560.919292082703,8604.214621092633,8811.392940448874,8795.433794907785,8589.41776626322,8604.616952492828,8788.281236682085,8836.449245983273,8619.614973022339,8604.214621092633,8736.82752094597,8857.526941004628,8673.706194604183,8605.041635637479,8729.876128420368,8891.546296065604,8732.759503455103,8646.168845435244,8715.593363713428,8908.66773231837,8796.976065275201,8652.159112949266,8729.071465619978,8935.311011709096,8868.367537065451,8702.316427506976,8738.280384335565,8903.839755516025,8753.188997887253,8480.140087621223,8529.693905078639,8711.637104944839,8761.68266078027,8547.105914009324,8484.364567323277,8637.295202886487,8755.960614199712,8539.059286005413,8459.643537955706,8571.625777676794,8719.817843415482,8541.875605806781,8417.309333957355,8494.042872672424,8694.895648347814,8585.305045283443,8425.043037538891,8473.412212540175,8638.122217431333,8596.123289599811,8428.798130607383,8445.628994182229,8620.598449778372,8645.833569268414,8454.72615417554,8434.184901021112,8599.073719867913,8674.019119026556,8486.353872579799,8419.812729336349,8532.353762668821,8688.212476755676,8501.083672175846,8424.148967760679,8531.660858590705,8696.080290803944,8551.084524522368,8428.731075374017,8516.640486316739,8683.987997053624,8548.961108799114,8404.881764040205,8460.716421689562,8663.737316577115,8618.1844613772,8426.920584073137,8427.702895129072,8601.577115246906,8636.490540086095,8380.875990495204,8436.732999889016,8741.789608215047,8793.578600117993,8556.381887958276,8476.29558757491,8600.727748957604,8722.790625428037,8506.246925145022,8416.48231941251,8524.530652109463,8681.23873248562,8538.321678438388,8392.118917956224,8443.28206101442,8609.668446739728,8496.188640140133,8340.464036520008,8422.897270071182,8568.585940430874,8513.06420720389,8320.749797910428,8325.778940412873,8528.844538789337,8597.1291181003,8379.065499194325,8329.31051603681,8472.518142761963,8551.755076856027,8331.590393971252,8288.786803339339,8410.402644920665,8560.852236849338,8352.042240147859,8242.630451039131,8330.159882326112,8520.127358451768,8361.944062941559,8210.488642512399,8275.822791555262,8460.448200756098,8404.61354310674,8206.979418632915,8217.976476904927,8423.791339849395,8500.457823331097,8361.429972819087,8388.117955698724,8583.583960960385,8711.72651192266,8511.25371590301,8472.607549739785,8613.289429341487,8721.58363122745,8430.04982829688,8245.267956884856,8303.918934335583,8453.72032567505,8263.149352449102,8156.844455819662,8261.718840803962,8445.874863371237,8328.662315447607,8161.359508199634,8237.891881214606,8415.588249634297,8351.483446536475,8180.3808427311,8220.546927517287,8400.701987827062,8404.457080895554,8184.3147497552345,8197.457575494955,8372.047051435358,8438.588194678807,8216.501261770876,8166.1204297686145,8304.365969224687,8444.734924404016,8234.226195123934,8154.542226140765,8287.512753905386,8460.537607733919,8294.151222008613,8183.443031721477,8247.100799930191,8445.226662782034,8324.706056679017,8181.789002631785,8250.610023809675,8461.454029256587,8410.08972049829,8218.669380983041,8249.984174964926,8424.081912527314,8434.296659743388,8240.082352171225,8257.449657612999,8443.170302292145,8513.511242092996,8301.080262789757,8274.526390376854,8430.496863185987,8543.842559318848,8359.41831581811,8269.564303107774,8414.269496711433,8572.989234088569,8269.430192641043,8095.198344611925,8224.123206630136,8446.366601749254,8352.265757592411,8198.441052250988,8241.825788238739,8422.606697393263,8393.594133090273,8177.318653740723,8197.435223750499,8349.248272090945,8368.023737433403,8125.887289749061,8109.458757574411,8252.420515110554,8323.946097367538,8124.479129848377,8104.4296150719665,8221.217479850946,8354.389173315665,8156.576234886198,8079.328606048657,8192.42843299251,8357.049030905848,8208.76755818934,8087.688158474942,8171.998938560359,8382.619426562718,8284.227047470456,8071.192571066925,8136.392609643056,8348.577719757286,8339.50291150843,8132.481054363377,8132.928089252483,8332.551518982831,8411.833156565805,8180.023214819815,8179.1514967860585,8347.191911601056,8457.207197810078,8255.39329712311,8194.216572548936,8333.669106205596,8507.364512367787,8300.812041856294,8177.5645229297315,8282.64007361413,8486.264465601977,8470.886465416726,8430.85449109727,8470.618244483263,8660.76453456456,8535.348896425832,8348.220091846,8391.560124344842,8580.499420225551,8562.93094908368,8352.310461081323,8316.011228085903,8498.893201219225,8564.137943284268,8334.27260330589,8324.750760167928,8475.96031140808,8591.898809897759,8390.353130144254,8297.615742399186,8413.822461822327,8586.690853439672,8413.263668210944,8307.897544848627,8424.126616016223,8580.007681847535,8457.475418743541,8307.45050995952,8407.675732097117,8628.689781271194,8557.968861814603,8357.227844861489,8388.52028709892,8560.673422893695,8532.554928368918,8325.801292157328,8318.514623464898,8500.055491930902,8583.919237127213,8347.08015287878,8307.986951826448,8464.650328713695,8618.430330566207,8404.121804728724,8311.138547794646,8446.590119193806,8627.080455670412,8452.938014619114,8343.41446678811,8485.482154546042,8754.239529876653,8682.28926447502,8546.211844231111,8659.021098497045,8898.654150802393,8843.646507697882,8645.587700079406,8645.677107057227,8775.87601850939,8660.47396188664,8344.912033666615,8327.567079969296,8545.36247794181,8643.240766911598,8409.016836764436,8367.442592077565,8524.016561986991,8660.161037464266,8444.466703470553,8336.552481240331,8484.453974301097,8694.359206480885,8496.389805840232,8351.774019214394,8451.306337273876,8686.916075577268,8584.098051082856,8384.541676585875,8449.473494228541,8665.413697411263,8637.921051731235,8432.173244020134,8446.992450594003,8647.308784402465,8719.750788182115,8439.303450501377,8422.159662504157,8599.677216968204,8734.882919178357,8498.379111096754,8429.759255618961,8587.562571473429,8747.534006540061,8550.771600099994,8444.62316568174,8596.436214022186,8795.83612630798,8638.301031386976,8449.987584351014,8552.917367567703,8806.542611902072,8724.735227195648,8516.484024105552,8571.759888143526,8803.100443255955,8792.908047784334,8552.068001278401,8561.79101011646,8791.79046056157,8873.061403401065,8630.187348149699,8571.35755674333,8765.080125937477,8917.429616144851,8695.700311148204,8587.249647051054,8732.781855199559,8911.662866075381,8698.829555371947,8433.782569620917,8436.688296400107,8657.121200218344,8533.069018491391,8330.182234070568,8418.896307813682,8641.56438607745,8561.746306627549,8326.002457857425,8371.577664801796,8595.229219821598,8610.249592095566,8351.259929091922,8343.83914993276,8564.473219451096,8650.393325137296,8399.696159326573,8346.566062756308,8508.72796877956,8669.52641839104,8439.169340034645,8367.956682200036,8491.137145893234,8670.152267235788,8488.454936558597,8345.22495808899,8455.843741398305,8693.57689542495,8573.50332421104,8369.789525245373,8440.823369124339,8683.138630764322,8650.326269903931,8385.502801597453,8427.702895129072,8661.81506655396,8687.586627910929,8455.083782086824,8414.38125543371,8596.190344833178,8728.87029991988,8474.753317207495,8383.558199829842,8555.867797835803,8743.242471604643,8537.874643549281,8457.207197810078,8744.44946580523,8947.313898481596,8741.856663448414,8560.963995571614,8657.389421151807,8854.554158992072,8726.478663263162,8507.140994923235,8571.424611976698,8808.26369622513,8764.275463137086,8500.435471586641,8503.408253599198,8722.097721349923,8759.156913656821,8518.160404939701,8513.466538604085,8710.519517722072,8842.104237330466,8600.683045468693,8506.269276889478,8654.394287394796,8815.259792239642,8598.738443701082,8485.124526634756,8583.89688538276,8770.73511728467,8616.709246243148,8462.661023457173,8552.850312334336,8771.271559151597,8659.982223508623,8437.090627800302,8513.578297326363,8740.448503547728,8697.063767559977,8480.877695188248,8518.562736339896,8777.731213299181,8929.253688961708,8713.849927645913,8711.279477033553,8942.95530831281,9089.51569670626,8831.84478662548,8747.288137351054,8879.811630226568,8963.518913211694,8630.790845249992,8412.011970521447,8524.530652109463,8784.302626169041,8674.779078338037,8486.711500491083,8571.022280576502,8802.184021733286,8728.691485964238,8495.808660484394,8535.997097015035,8762.35321311393,8776.658329565327,8541.83090231787,8531.392637657242,8739.39797155833,8836.382190749908,8599.297237312465,8542.948489540637,8713.402892756807,8863.070173629543,8661.90447353178,8559.30996648192,8677.90832256178,8877.688214503314,8707.792604898525,8577.75015565755,8686.178468010243,8907.19251718432,8756.228835133175,8579.60535044734,8650.818008281947,8877.844676714501,8832.828263381512,8606.51685077153,8633.450702840175,8854.442400269794,8886.919484963357,8661.323328175942,8652.539092605006,8845.769923421136,8951.20310201682,8725.62929697386,8674.577912637938,8847.759228677658,9009.049416667154,8792.997454762157,8674.399098682297,8838.192682050787,9037.21261468084,8868.456944043273,8738.481550035662,8832.537690703593,9047.494417130281,8933.120540752476,8629.270926627032,8588.970731374113,8848.005097866666,8832.135359303398,8620.911374200747,8654.059011227968,8865.99825215319,8886.204229140787,8622.14072014579,8588.836620907381,8768.79051551706,8869.149848121388,8636.892871486292,8540.199224972634,8687.38546221083,8853.525978747128,8645.922976246236,8542.143826740245,8668.85586605738,8853.145999091388,8688.771270367059,8543.93196629667,8650.1921594372,8860.678536972826,8734.927622667268,8535.125378981278,8601.331246057898,8835.0857895715,8822.054722554056,8584.858010394337,8592.770527931516,8798.8759635539,8857.795161938091,8618.497385799574,8582.46637373762,8759.156913656821,8902.945685737812,8668.118258490356,8573.905655611235,8740.426151803274,8925.699761593314,8708.239639787631,8584.500382483051,8712.799395656515,8925.47624414876,8764.700146281737,8583.516905727018,8654.528397861528,8910.925258508356,8995.526611271693,8804.93328630129,8832.60474593696,9034.731571046303,9014.637352780981,8755.647689777337,8757.726402011682,8957.77451488668,9031.579975078104,8773.193809174754,8714.609886957394,8877.151772636387,9025.83557675309,8802.0275595221,8709.446633988218,8824.848690610968,9029.300097143663,8847.468655999739,8676.835438827926,8773.93141674178,8995.59366650506,8884.237275628719,8710.787738655537,8767.874093994391,8984.417794277406,8921.899965035911,8702.271724018065,8758.754582256626,8982.24967506524,8992.665587981413,8743.533044282562,8728.333858052953,8884.460793073273,8977.533456985171,8755.535931055061,8703.501069963106,8864.545388763594,8990.698634469347,8785.55432385854,8683.67507263125,8819.864251597435,9015.665533025925,8841.880719885912,8700.997674584112,8780.525181356095,8998.87937293999,8895.256685645185,8733.675924977772,8855.917615403845,9147.563177056692,9143.785732243745,8977.153477329432,9059.69846960288,9269.871922716133,9301.790213798311,9076.708147133368,9048.634356097504,9141.751723498312,9137.840168218634,8825.161615033343,8734.569994755984,8905.203211927797,9061.196036481386,8872.323795834041,8776.725384798692,8882.449136072295,9066.895731317489,8889.132307664431,8731.843081932437,8840.070228585033,9055.988080023299,8964.904721367922,8779.765222044614,8813.292838727575,9023.01925695172,8992.285608325674,8783.699129068747,8794.942056529768,9007.060111410632,9062.537141148703,8823.954620832756,8795.79142281907,8990.899800169445,9106.99476087031,8877.531752292127,8795.433794907785,8925.47624414876,9109.699321949402,8924.71628483728,8816.086806784488,8939.602546644515,9139.248328119318,9010.144652145464,8842.774789664125,8930.661848862392,9145.417409588983,9084.352443737083,8906.81253752858,8948.565596171093,9138.734237996845,9162.851770264122,8959.048564320632,8947.604471159515,9150.424200346972,9243.698029958967,9043.426399639417,9012.692751013368,9149.507778824303,9276.711556519456,9089.94037985091,9044.655745584458,9127.513662280282,9134.442703061426,8951.58308167256,8885.466621573762,8998.49939328425,9181.738994328856,9085.961769337866,8917.451967889307,8968.39159350295,9158.806104517711,9101.764452667769,8914.322723665562,8931.91354655189,9099.506926477781,9104.446662002405,8893.915580977868,8893.401490855395,9051.249510198773,9123.535051767238,8928.761950583692,8908.265400918175,9049.036687497699,9142.958717698899,8959.20502653182,8899.592924069515,9027.936640731888,9201.833212594178,9058.469123657838,8953.907663095912,9036.765579791734,9216.093625556663,9108.067644604165,8965.239997534753,9048.366135164038,9246.112018360142,9192.758404345323,9014.726759758802,9056.725687590324,9230.7787216638,9260.953576678465,9083.212504769863,9097.070586332153,9244.882672415099,9337.128321782151,9148.81487474619,9101.65269394549,9216.697122656957,9358.071906336774,9206.571782418703,9203.73311087288,9442.561500377835,9594.553362673923,9423.115482701718,9259.8359894557,9314.553059882292,9506.331027308826,9445.310764945838,9270.296605860784,9266.049774414274,9460.01821279743,9444.506102145446,9258.606643510657,9271.302434361272,9439.76753232092,9484.806297398365,9301.924324265043,9303.17602195454,9445.936613790585,9532.281402621436,9334.13318802514,9287.641559558102,9376.087412367751,9547.547644084412,9386.682139239567,9290.74845203739,9390.95132243053,9551.88388250874,9427.161148448127,9325.907746065586,9411.671389540601,9585.255036980514,9508.946181410096,9320.431568674037,9366.207941318506,9533.130768910738,9508.588553498812,9328.7017141225,9356.23906329144,9508.365036054258,9563.41738264768,9376.400336790126,9364.397450017626,9512.276591333937,9618.916764130207,9430.871538027708,9373.069926866285,9486.370919510236,9635.434703282679,9500.296056305893,9476.044413571884,9641.067342885417,9865.657671172343,9745.204120302693,9681.747517794076,9777.79296371853,9963.49125665322,9887.607084227453,9698.846602302385,9651.840883712875,9689.324759164425,9617.799176907442,9416.812290765321,9443.656735856144,9601.32594124388,9685.994349240584,9479.955968851564,9447.545939391368,9574.459144408602,9688.162468452749,9517.059864647374,9439.521663131913,9535.723571267554,9697.773718568531,9549.469894107568,9448.149436491662,9506.867469175753,9690.285884176003,9604.5669441899,9433.643154340167,9479.285416517903,9659.038145427483,9621.28604904247,9449.982279536996,9475.776192638421,9626.158729333727,9645.515340032023,9466.880198345209,9457.715983118533,9576.448449665124,9663.86612222983,9473.786887381899,9436.906509030641,9564.289100681437,9675.91371249124,9479.844210129288,9400.115537657206,9515.875222191242,9673.790296767986,9528.571013041856,9406.306970871326,9486.616788699244,9658.278186116004,9575.397917675724,9432.458511884035,9481.5876461968,9642.788427208476,9615.742816417554,9428.189328693072,9447.992974280474,9608.836127380864,9643.436627797679,9436.079494485795,9404.585886548268,9362.251682549917,9390.258418352416,9229.862300141132,9200.246238737851,9304.673588833046,9436.973564264008,9250.7835329513,9154.089886437641,9199.598038148646,9371.259435565406,9210.796262120755,9031.423512866917,9073.422440698438,9231.44927399746,9141.259985120296,8960.747296899235,8984.976587888788,9137.52724379626,9117.142452853019,8911.506403864194,8908.913601507378,9055.898673045478,9094.969522353354,8884.796069240103,8856.1411328484,8977.846381407546,9074.428269198927,8854.17417933633,8781.955693001235,8884.773717495647,9030.194166921874,8856.387002037407,8728.602078986416,8810.253001481653,8956.142837541442,8841.858368141457,8696.035587315035,8720.019009115578,8878.403470325884,8811.482347426694,8625.068798669434,8655.42246763974,8794.159745473831,8799.635922865382,8586.55674297294,8564.517922940007,8686.401985454797,8743.756561727114,8536.421780159686,8513.757111282004,8754.843026976947,8930.818311073579,8703.00933158509,8588.41193776273,8636.401133108275,8769.21519866171,8604.37108330382,8450.658136684673,8508.996189713025,8665.726621833637,8562.59567291685,8376.740917770972,8408.167470475135,8568.407126475231,8513.77946302646,8314.267792018389,8299.962675566992,8444.153779048178,8465.2985293029,8260.578901836741,8238.048343425793,8365.810914732327,8427.14410151769,8237.333087603223,8187.9580841014495,8266.97150075096,8372.203513646546,8173.630615905598,8075.104126346604,8132.70457180793,8270.570131608263,8119.5170425792985,7976.063546665138,8014.553250617177,8176.5139909403315,8090.616236998587,7927.895537363951,7949.375563785502,8066.029318097749,8045.152788776492,7840.902547943896,7844.590585779022,7998.683512053909,8074.545332735221,7953.28711906518,7950.046116119161,8107.827080229174,8241.423456838544,8078.233370570347,8003.511488856255,8076.333472291645,8204.967761631939,7965.044136648672,7716.626848772389,7669.0623365714955,7796.132003799917,7680.238208799149,7568.881817922809,7627.063408739974,7781.648073392877,7694.610380483911,7517.20458474214,7545.121913566818,7689.1342030923615,7669.621130182878,7456.676060757168,7478.916046490199,7625.8564145393875,7651.516217174079,7432.089141856331,7412.531365457937,7534.34837273936,7631.019667508563,7435.173682591162,7364.832742790311,7458.352441591316,7573.195704602684,7405.110586298774,7297.866916402211,7373.5722748723365,7534.415427972726,7423.550775474403,7278.286788259362,7321.604469013748,7490.874229773788,7418.745150416512,7238.970069762478,7273.704680646024,7442.706220472601,7437.56531924788,7234.007982493399,7244.5580058763035,7375.583931873314,7428.602269721302,7246.636718110647,7213.7349502724355,7340.648155289669,7463.962729449598,7275.559875435815,7216.975953218455,7321.895041691666,7449.679964742657,7297.866916402211,7180.699071967491,7257.834942082756,7425.89770864221,7333.696762764069,7189.818583705257,7238.970069762478,7404.752958387489,7301.8455269152555,6954.030031446223,6994.710206354882,7166.885693894112,7191.092633139209,6995.961904044379,6963.484819350818,7078.350434106641,7164.002318859377,6944.217615630343,6869.875713571992,6958.075697192633,7092.655550558037,6910.354722780553,6816.29858211262,6909.997094869268,7081.792602752758,6955.885226236013,6813.996352433724,6852.7989808081375,7033.959869618401,6974.928912511935,6801.412320305386,6845.624070837984,7012.949229830412,6994.173764487954,6810.531832043152,6832.727114287271,6987.2223719623535,7030.696514927926,6831.095436942034,6827.094474684534,6980.785069559225,7049.650794226026,6855.525893631684,6818.667867024883,6934.047571903178,7071.488448558861,6910.310019291642,6826.468625839785,6907.203126812355,7080.697367274448,6974.884209023025,6844.014745237201,6888.450013214352,7062.927730432479,6999.985218046334,6990.999816775301,7110.69340833347,7232.197491192519,7210.538650815327,7002.935648314435,7008.545936172716,7138.118998780132,7189.125679627143,6993.100880754099,6961.629624561027,7082.574913808694,7194.288932596319,7018.000724077311,6964.80357227368,7067.643948512548,7211.589182804726,7095.807146526236,6984.651921349993,7039.436047009951,7219.591107319726,7092.052053457744,6937.869720205035,6984.3389969276195,7156.425077489028,7117.689504347981,6950.94549071139,6970.816191532158,7122.4057224280505,7146.903234351067,6960.556740827173,6966.345842641097,7108.2570681878415,7193.394862818106,7015.519680442772,6988.138793485021,7137.873129591123,7325.605431271248,7229.023543479865,7216.104235184698,7349.186521671596,7597.134422914318,7497.244476943551,7332.73563775249,7427.998772621009,7595.390986846804,7419.616868450269,7135.235623745397,7088.095794689155,7270.955416078022,7279.20320978203,7120.014085771333,7151.954728597967,7319.97279166851,7354.97562348552,7170.104345095676,7174.150010842087,7305.511213005926,7390.336083213817,7215.411331106584,7182.911894668567,7291.608427954725,7422.075560340352,7265.903921831122,7200.4133105770725,7302.516079248915,7474.311587132405,7351.779324028412,7234.544424360326,7318.810500956834,7506.8780788037875,7433.51965350147,7276.118669047198,7334.300259864362,7502.318322934905,7498.406767655226,7327.080646405298,7370.4653823930485,7513.225974229094,7579.342434327893,7408.239830522518,7413.47013872506,7548.094695579374,7652.99143230813,7483.408747125715,7446.66247924119,7573.486277280603,7718.571450540001,7568.703003967167,7496.551572865435,7586.40558557577,7769.3769656869135,7659.696955644722,7540.606861186846,7625.141158716818,7825.368085547458,7781.044576292584,7626.549318617502,7670.246979027627,7842.288356100125,7860.3038621311025,7676.125487819373,7680.506429732613,7694.051586872529,7694.699787461733,7523.8430528453655,7526.324096479905,7665.173133036272,7790.029977563618,7567.943044655686,7504.553497380436,7595.435690335714,7739.0903519499725,7601.7388822721105,7492.796479796944,7563.338585297894,7728.696790778255,7625.141158716818,7490.024863484486,7552.050954347963,7725.411084343325,7681.780479166566,7528.581622669891,7579.588303516902,7733.301250136048,7768.617006375433,7589.579533288424,7605.270457896049,7767.0300325191065,7850.0891149150275,7653.885502086342,7641.659097869289,7801.027035835628,7920.4077029714235,7721.477177319191,7661.485095201147,7778.541180913589,7950.38139228599,7818.371989532947,7721.6559912748335,7812.426425507835,7986.188886903392,7909.723569121787,7781.044576292584,7853.486580072235,8027.249041467791,8000.561058588155,7840.83549271053,7875.167772193882,8039.207224751381,8123.2721356477905,8078.635701970542,8058.966166849872,8169.47319143691,8239.948241704493,8061.514265717777,8035.139207260515,8142.315821923712,8244.128017917636,8077.205190325402,8010.306419170669,8123.428597858978,8302.086091290246,8203.738415686896,8073.539504234733,8113.884402976561,8262.121172204157,8192.942523114983,8044.214015509369,8089.141021864537,8253.359288377678,8251.258224398878,8072.131344334048,8096.047710901226,8250.095933687202,8304.433024458054,8117.214812900403,8111.626876786576,8252.420515110554,8365.430935076587,8200.475060996421,8173.675319394508,8297.772204610374,8518.585088084352,8436.19655802209,8365.810914732327,8506.336332122843,8707.032645587045,8589.84244940787,8463.44333451311,8545.07190526389,8666.28541544502,8504.816413499882,8260.310680903278,8269.944282763516,8443.14795054769,8481.995282411013,8324.639001445652,8348.443609290554,8480.944750421613,8560.584015915872,8387.961493487537,8377.500877082453,8484.521029534464,8599.185478590189,8441.04688656889,8402.870107039227,8494.020520927968,8642.369048877841,8517.40044562822,8423.590174149296,8502.58123905435,8670.33108119143,8614.675237497717,8491.181849382145,8503.229439643555,8698.851907116403,8661.122162475844,8512.34895138132,8556.471294936096,8712.77704391206,8747.981041429168,8579.828867891893,8582.198152804154,8730.72549470967,8820.60185916446,8644.693630301193,8628.443912082186,8740.672020992282,8861.930234662323,8722.0083143721,8657.881159529825,8763.53785557006,8920.804729557602,8810.588277648483,8733.899442422324,8814.008094550145,8978.516933741204,8912.154604453397,8805.670893868315,8865.774734708635,9030.9317744889,9023.9803819633,8872.100278389487,8914.635648087937,9033.189300678885,9057.865626557545,8806.162632246333,8696.281456504043,8838.282089028608,8955.651099163426,8805.000341534656,8770.332785884475,8869.038089399111,8984.373090788495,8812.041141038078,8752.853721720425,8821.920612087324,8948.275023493174,8837.94681286178,8725.942221396235,8795.59025711897,8957.349831742029,8903.303313649096,8757.614643289406,8790.628169849893,8939.423732688872,8944.184654257853,8803.368664189418,8834.884623871401,8953.505331695716,8996.420681049905,8839.690248929292,8848.027449611121,8983.099041354542,9062.26892021524,8894.76494726717,8892.507421077184,8990.408061791428,9154.71573528239,9003.014445664221,8908.153642195897,8998.141765372964,9165.355165643115,9065.822847583633,8948.118561281986,9029.255393654752,9209.097529542152,9159.990746973843,9000.01931190721,9036.720876302825,9192.557238645226,9229.571727463213,9061.79953358168,9082.161972780463,9243.452160769959,9359.681231937557,9310.596801113701,9283.059451944764,9386.52567702838,9487.175582310627,9307.445205145503,9257.578463265714,9359.413011004091,9487.957893366563,9329.528728667347,9237.707762444945,9338.111798538184,9506.398082542191,9426.401189136648,9267.323823848226,9314.217783715461,9468.15424777916,9430.402151394148,9267.54734129278,9293.721234049945,9451.077515015306,9474.613901926745,9289.966140981453,9295.55407709528,9438.739352075978,9531.432036332135,9347.253662020405,9307.13228072313,9445.958965535041,9559.684641323644,9374.43338327806,9326.310077465783,9479.6877479181,9737.179844043238,9643.771903964509,9556.354231399802,9658.948738449662,9875.42538349931,9815.410949636811,9669.72227927712,9731.63661141832,9860.941453092271,9739.21385278867,9471.484657703002,9433.509043873435,9608.925534358685,9657.652337271255,9484.359262509259,9486.572085210335,9615.80987165092,9715.565707154956,9541.423266103659,9499.6925592056,9613.552345460934,9772.205027604703,9605.170441290193,9524.88297520673,9609.819604136897,9777.949425929717,9670.146962421772,9553.001469731507,9625.28701129997,9796.568429060988,9741.359620256379,9583.712766613098,9628.326848545892,9802.245772152635,9802.312827386002,9625.465825255613,9660.558064050445,9815.27683917008,9854.638261155875,9676.874837502819,9678.081831703405,9820.864775283906,9930.991820215204,9759.710402454186,9713.889326320807,9827.525595131588,9984.390137718932,9843.507092417132,9735.369352742357,9836.063961513515,10017.426016023877,9916.574945041531,9810.582972834465,9858.929796091294,10044.18105413688,10007.859469397006,9852.894825088362,9895.832526187007,10071.4278306279,10076.769897552716,9901.778090212118,9923.124006166936,10068.253882915245,10144.182758829924,9912.126947894925,9735.369352742357,9857.879264101895,10009.446443253331,9860.315604247524,9776.541266029033,9869.613929940931,10019.92941140287,9873.301967776057,9766.773553702064,9821.445920639744,9983.83134410755,9887.830601672007,9735.615221931366,9773.032042149549,9946.168654700357,9910.897601949884,9744.6006232024,9775.423678806268,9943.3970383879,10000.639855937941,9805.307961143013,9786.800716734018,9928.667238791853,10023.617449237998,9857.387525723878,9831.28068820008,9944.313459910567,10071.114906205525,9922.587564300009,9853.028935555094,9938.97139298575,10100.820374586627,9969.414468933877,9870.887979374884,9960.049088007103,10120.199337029379,10060.810752011628,9921.738198010707,9972.946044557815,10147.937851898414,10133.29745928019,9964.608843875987,9978.355166716,10128.536537711208,10183.208904648889,10014.587344478054,10103.27906647671,10363.47572368094,10417.321076073775,10225.565460391696,10181.06313718118,10278.047356372757,10383.05585182379,10213.026131752269,10145.43445651942,10222.145643490034,10369.063659794767,10264.368088766108,10175.050517922702,10240.87640534358,10386.475668725452,10339.000563502379,10206.16414620449,10258.623690441096,10406.927514902058,10394.924628129558,10213.026131752269,10243.044524555746,10348.164778729055,10400.691378199028,10230.572251149684,10214.50134688632,10346.086066494712,10436.118893160688,10270.581873724685,10232.69566687294,10342.286269937309,10492.1770682546,10362.67106088055,10263.630481199085,10342.442732148496,10503.59880967126,10429.033390168357,10390.051947838301,10529.817405917336,10719.673123320714,10718.421425631217,10614.977552292055,10671.30394831943,10803.13453711683,10826.447406583717,10635.541157190939,10544.435446791107,10568.70944126957,10587.082575211833,10411.017884137378,10412.090767871234,10522.88836513619,10653.131980077265,10510.997237085967,10446.35599212122,10525.123539581722,10679.194114112153,10562.406249333173,10461.73399230647,10543.854301435269,10694.169782897208,10609.85900281179,10496.558010167839,10564.216740634054,10732.36891417133,10690.21352412862,10537.37229554323,10576.845476251303,10740.79552183098,10776.088926325909,10610.686017356637,10614.038779024933,10748.46217017915,10852.084857473954,10662.519712748493,10627.24865999802,10752.59724290338,10889.971064325699,10735.475806650617,10676.958939666622,10759.213359262152,10926.11383510993,10815.830327967446,10737.532167140505,10817.037322168031,10962.144847171885,10909.73000642419,10783.487353740617,10835.09753168792,10997.41589992236,11007.876516327444,10851.57076735148,10882.192657255251,11045.360391778993,11105.307770408126,10930.49477702317,10936.954431170754,11068.785019968154,11166.864474638043,10995.694815599301,10968.358632130461,11086.91228472141,11103.76550004071,10862.67958434577,10815.070368655965,10897.235381273673,11048.154359835908,10943.592899273981,10831.789473508534,10884.58429391197,11045.047467356619,10973.276015910627,10799.55825800398,10846.608680082403,10998.175859233841,10991.716205086257,10824.480453071648,10842.361848635896,10985.033033494119,11040.286545787638,10863.10426749042,10857.695145332234,10992.431460908827,11076.675185760878,10921.509375752137,10885.210142756718,10987.044690495097,11110.113395466018,10980.98736774771,10897.63771267387,10987.290559684106,11146.144407527972,11048.735505191744,10933.087579379986,10997.639417366912,11159.019012334229,11135.214404489328,10982.104954970475,11003.339112203015,11160.427172234915,11153.431076220402,10990.531562630125,11008.480013427738,11148.893672095975,11225.314286388671,11064.024098399175,11041.47118824377,11160.11424781254,11254.192740224928,11099.853944761033,11064.627595499469,11328.445235305457,11503.571153112789,11337.944726698963,11220.262792141772,11268.94489156543,11397.467422183445,11305.758214683321,11165.344556015081,11218.072321185151,11375.607416106155,11334.659020264033,11176.051041609173,11215.948905461897,11329.361656828125,11347.555976814745,11193.843030195598,11201.844954710597,11311.368502541603,11370.511218370346,11173.771163674732,11138.611869646535,11230.008152724286,11335.888366209074,11181.147239344984,11118.718817081311,11181.951902145374,11323.371389314103,11195.944094174398,11088.05222368863,11157.342631500082,11328.95932542793,11240.535824362734,11110.113395466018,11142.098741781563,11298.5162494798,11332.602659774144,11256.338507692637,11319.504537523335,11473.061021931295,11560.970432874017,11415.572335192244,11403.122413530638,11523.37479870019,11642.82252106935,11400.037872795805,11229.851690513098,11234.500853359801,11331.328610340192,11204.996550678796,11144.713895882833,11229.538766090724,11378.557846374255,11257.433743170946,11141.986983059285,11197.50871628627,11353.054505950751,11293.755327910822,11152.671116908923,11174.151143330473,11325.785377715276,11329.875746950596,11160.471875723824,11175.40284101997,11310.653246719034,11367.314918913236,11197.084033141618,11181.482515511814,11286.356900496114,11389.621959879632,11212.104405415585,11169.524332228224,11251.778751823755,11375.160381217049,11228.152957934495,11153.721648898321,11232.377437636547,11367.001994490862,11240.17819645145,11136.421398689914,11186.154030102973,11308.19455482895,11269.771906110276,11131.504014909748,11167.02093684923,11317.381121800081,11342.035095934283,11159.801323390166,11180.476687011325,11299.5667814692,11373.282834682803,11211.567963548656,11186.824582436631,11303.813612915708,11408.39742522209,11244.693248831421,11186.377547547525,11275.672766646478,11407.458651954968,11275.292786990738,11174.888750897499,11110.538078610669,11173.033556107708,11121.803357816143,11017.599525165502,11075.7140607493,11187.696300470388,11146.122055783517,10984.31777767155,10992.923199286843,11125.804320073643,11130.855814320543,10949.73962899919,10913.216878559218,11043.639307455935,11096.031796459174,10910.53466922458,10876.381203696872,10973.432478121815,11090.71208127881,10926.270297321118,10860.645575600336,10936.68621023729,11079.960892195808,10945.49279755268,10846.563976593492,10911.719311680712,11066.035755400153,10986.530600372625,10842.965345736187,10898.509430707625,11045.650964456912,11026.584926436535,10833.62231655387,10852.822465040977,10995.046615010097,11041.918223132876,10859.57269186648,10840.104322445908,10957.674498280823,11055.955118650809,10859.170360466285,10827.52029031757,10926.11383510993,11067.578025767569,10892.899142849345,10814.891554700322,10907.941866867766,11059.151418107918,10974.572417089035,11020.393493222415,11087.42637484388,11204.773033234243,11113.980247256786,10956.154579657863,10991.000949263687,11125.53609914018,11097.395252870949,10934.339277069483,10950.387829588393,11097.439956359858,11151.486474452791,10953.673536023323,10917.664875705825,10987.178800961829,11070.215531613296,10904.700863921746,10856.711668576201,10944.710486496746,11076.7645927387,10925.599744987458,10826.357999605894,10891.692148648757,11044.622784211968,10955.461675579749,10797.591304491914,10853.9624040082,11024.729731646745,10967.196341418785,10828.906098473799,10915.228535560196,11133.985058544285,11174.039384608197,11013.665618141367,11068.38268856796,11221.536841575724,11266.910882819997,11097.28349414867,11066.594549011535,11103.564334340614,11075.937578193854,10849.067371972487,10762.432010463717,10853.202444696719,11007.094205271507,10877.834067086467,10791.176353833242,10852.19661619623,10995.828926066033,10899.515259208114,10768.802257633479,10816.702046001203,10959.306175626061,10922.939887397277,10754.675955137725,10789.209400321175,10919.92240189581,10955.819303491033,10774.881932125323,10764.466019209149,10883.600817155937,10979.914484013854,10811.650551754303,10748.596280645881,10854.521197619582,10970.996137976186,10829.531947318548,10754.385382459806,10841.691296302235,11003.98731279222,10876.33650020796,10761.672051152236,10833.734075276147,10994.398414420893,10925.622096731913,10781.56510371746,10817.752577990601,10976.919350256843,10975.60059733398,10817.797281479512,10846.787494038046,10983.289597426605,11030.116502060475,10859.125656977374,10843.926470747767,10959.395582603882,11063.062973387596,10897.838878373967,10873.855456573423,10978.640434579902,11108.235848931772,10940.26248935014,10874.950692051732,10953.897053467877,11103.720796551801,10949.918442954831,10668.621738984793,10717.840280275379,10900.29757026405,10858.700973832723,10684.558532781426,10699.467146333116,10843.23356666965,10822.960534448688,10636.032895568955,10641.285555515953,10760.42035346274,10810.309447086984,10628.0086193095,10601.365339918773,10723.204698944654,10809.102452886398,10642.9619363501,10577.493676840506,10678.724727478591,10811.829365709946,10669.851084929835,10595.017444493467,10679.73055597908,10825.530985061048,10719.31549540943,10595.375072404751,10654.987174867056,10815.115072144876,10785.946045630699,10622.890069829235,10658.943433635644,10809.728301731146,10819.674828013758,10653.981346366567,10670.543989007949,10794.149135845797,10862.411363412306,10684.647939759248,10667.794724439946,10791.064595110965,10903.806794143533,10721.9306495107,10654.786009166957,10757.201702261174,10896.117794050908,10779.441687994205,10665.671308716692,10866.948767536733,11082.91132246391,10977.41108863486,10833.085874686942,10872.693165861747,10991.492687641703,10937.423817804316,10774.881932125323,10795.534944002027,10927.723160710711,10983.379004404427,10809.460080797682,10777.742955415602,10884.383128211872,10940.709524239246,10753.84894059288,10723.785844300492,10808.923638930755,10928.661933977835,10762.387306974806,10694.058024174932,10779.687557183213,10930.762997956634,10804.743862717613,10695.823811986902,10757.805199361468,10913.194526814763,10828.548470562515,10683.150372880742,10736.638097362293,10932.551137513059,10997.639417366912,10871.307357705517,10909.573544213003,11100.457441861325,11183.047137623686,11003.495574414203,10990.375100418938,11126.474872407303,11187.78570744821,10877.275273475085,10741.17550148672,10804.050958639498,10947.392695831382,10806.733167974135,10743.544786398983,10829.621354296369,10974.237140922207,10871.10619200542,10752.396077203284,10819.09368265792,10986.08356548352,10895.53664869507,10734.291164194485,10780.93925487271,10932.707599724246,10932.707599724246,10776.625368192837,10784.828458407934,10924.01277113113,10977.478143868226,10803.112185372376,10795.244371324108,10919.967105384721,11011.765719862668,10826.268592628074,10780.782792661525,10881.924436321788,11012.659789640878,10875.53183740757,10796.026682380043,10879.91277932081,11031.099978816508,10935.8815474369,10828.794339751523,10869.943901293744,11024.081531057542,10991.64914985289,10853.33655516345,10876.53766590806,11035.480920729748,11055.686897717345,10887.333558479973,10908.053625590042,11044.734542934244,11118.897631036954,10956.042820935587,10950.03020167711,11063.040621643142,11171.580692718113,11017.577173421047,10968.269225152639,11055.530435506158,11201.040291910207,11085.504124820725,10986.731766072722,10878.01288104211,11001.595676135503,10961.65310879387,10829.599002551915,10888.205276513729,11035.905603874398,10996.968865033254,10818.266668113074,10839.567880578981,10968.515094341648,10972.560760088058,10797.010159136076,10796.585475991425,10914.379169270895,10975.801763034078,10792.606865478381,10759.123952284332,10871.150895494331,10995.292484199106,10834.62814505436,10776.111278070364,10856.063467986998,10996.097146999497,10878.72813686468,10775.127801314331,10838.159720678297,11010.066987284063,10920.25767806264,10796.8984004138,10862.970157023688,10980.02624273613,10955.662841279845,10808.163679619274,10824.547508305015,10983.356652659972,11022.159281034385,10852.9118720188,10842.786531780546,10952.60065228947,11044.533377234147,10873.028442028575,10856.443447642738,10950.097256910474,11079.33504335106,10918.78246292859,10849.045020228032,11075.937578193854,11281.953606838419,11135.884956822987,11009.776414606145,11058.100886118518,11192.88190518402,11114.092005979062,10964.558835573058,10997.237085966717,11141.003506303252,11132.599250388057,10962.50247508317,10983.289597426605,11112.236811189272,11118.741168825767,10944.397562074371,10911.696959936256,11032.351676506005,11143.931584826898,10968.805667019567,10922.604611230447,11017.487766443226,11155.487436710291,11010.55872566208,10938.228480604706,11040.934746376843,11200.07916689863,11078.396270083937,10957.160408158352,10997.170030733352,11124.10558749504,11072.450706058826,10931.321791568016,10963.776524517123,11091.941427223854,11095.025967958685,10926.627925232402,10937.580280015503,11065.745182722234,11134.38738994448,10958.032126192109,10937.73674222669,11056.7597814512,11161.433000735404,11018.203022265796,10979.758021802667,11123.770311328211,11344.717305268921,11243.12862671955,11207.745815246799,11328.28877309427,11487.924931994074,11393.689977370499,11276.969167824886,11263.736935107343,11270.308347977203,11113.935543767875,10937.177948615306,10993.571399876048,11176.609835220557,11173.704108441367,10990.486859141214,11010.245801239706,11132.375732943503,11194.625341251534,11022.405150223392,11008.100033771996,11109.509898365724,11222.45326309839,11061.565406509091,11004.590809892514,11085.86175273201,11236.087827216128,11089.52743882268,11004.948437803798,11080.117354406995,11213.289047871715,11145.965593572331,11016.772510620656,11064.739354221745,11209.332789103126,11190.244399338293,11043.169920822373,11063.957043165808,11186.176381847428,11218.02761769624,11045.874481901465,11045.762723179188,11173.25707355226,11261.010022283795,11098.646950560445,11071.556636280613,11174.553474730668,11295.968150611896,11149.765390129733,11092.366110368504,11172.407707262959,11324.53368002578,11227.84003351212,11127.34659044106,11173.413535763448,11342.258613378837,11287.608598185612,11155.956823343853,11205.845916968097,11366.845532279674,11371.315881170736,11190.982006905318,11222.78853926522,11357.72602054191,11361.34700314367,11039.99597310972,11028.775397393156,11171.156009573462,11268.989595054341,11114.270819934705,11062.325365820572,11146.032648805696,11267.044993286729,11105.888915763964,11028.864804370976,11090.734433023266,11193.731271473322,11093.304883635627,10969.02918446412,11023.835661868532,11154.548663443169,11112.527383867191,10968.358632130461,10996.722995844246,11140.891747580976,11148.089009295585,10968.425687363826,10985.234199194218,11118.383540914481,11172.340652029592,10999.65107436789,10984.965978260754,11097.57406682659,11207.745815246799,11051.440066270838,11002.355635446982,11088.566313811101,11233.383266137036,11108.213497187317,11004.568458148058,11085.928807965376,11238.7029813174,11141.361134214538,11022.427501967848,11076.786944483156,11249.722391333866,11211.590315293111,11040.107731831997,11074.171790381884,11216.88767872902,11234.187928937428,11087.381671354971,11099.608075572023,11248.89537678902,11463.963861937984,11288.212095285904,11242.234556941337,11322.85729919163,11428.804567909787,11258.260757715792,11192.926608672931,11266.910882819997,11392.840611081197,11254.41625766948,11156.962651844342,11223.146167176506,11370.511218370346,11281.238351015849,11149.251300007261,11199.7438907318,11372.6346340936,11345.946651213962,11164.316375770137,11172.519465985235,11294.627045944579,11307.680464706476,11135.39321844497,11135.303811467149,11251.331716934648,11322.365560813614,11134.499148666759,11098.266970904706,11197.553419775179,11326.120653882106,11157.186169288894,11090.71208127881,11176.11809684254,11328.489938794368,11187.137506859006,11089.616845800501,11183.874152168532,11408.598590922189,11383.25171270987,11289.955531353418,11372.500523626868,11568.771191688918,11597.403776336167,11413.180698535527,11432.35849527818,11537.791673873864,11486.561475582299,11164.271672281227,11067.600377512024,11179.694375955389,11298.985636113362,11158.907253611953,11122.786834572176,11214.853669983588,11333.76495048582,11195.854687196575,11126.877203807499,11196.346425574593,11337.162415643028,11234.634963826533,11128.44182591937,11181.102535856073,11327.215889360416,11276.186856768949,11136.041419034174,11160.851855379566,11300.103223336127,11297.33160702367,11145.876186594509,11161.54475945768,11295.901095378531,11350.618165805123,11163.422305991926,11163.377602503015,11291.22958078737,11380.703613841964,11201.107347143574,11168.92083512793,11255.064458258685,11394.606398893166,11260.89826356152,11175.760468931256,11256.047935014718,11412.554849690778,11307.613409473111,11199.587428520612,11262.887568818041,11418.992152093906,11377.976701018419,11238.144187706017,11276.186856768949,11423.328390518236,11433.11845458966,11283.09354580564,11292.525981965779,11440.069847115261,11538.484577951978,11380.167171975037,11363.224549677916,11488.550780838821,11598.72252925903,11438.59463198121,11394.293474470793,11388.236151723404,11380.480096397412,11268.989595054341,11185.774050447233,11253.812760569188,11408.710349644465,11320.912697424019,11182.734213201311,11208.08109141363,11363.336308400192,11319.169261356505,11144.468026693825,11141.964631314831,11278.690252147944,11321.471491035401,11155.263919265739,11144.87035809402,11243.665068586477,11323.371389314103,11141.763465614733,11126.944259040863,11221.827414253643,11333.76495048582,11179.649672466478,11123.032703761186,11205.734158245821,11353.903872240053,11234.299687659704,11127.704218352344,11199.766242476255,11357.681317052999,11271.962377066897,11144.400971460458,11179.806134677665,11329.272249850304,11314.14011885406,11146.926718583909,11170.373698517526,11322.611430002622,11351.646346050065,11168.674965938922,11168.92083512793,11289.217923786393,11377.462610895946,11205.063605912163,11176.073393353628,11283.674691161477,11394.472288426434,11281.730089393866,11374.735698072398,11452.877396688153,11557.28239503889,11408.151556033083,11301.466679747902,11349.947613471462,11493.915199508096,11421.87552712864,11257.769019337777,11288.547371452734,11435.197166824004,11422.07669282874,11259.735972849843,11269.950720065919,11402.697730385988,11440.874509915651,11257.366687937581,11232.93623124793,11342.48213082339,11434.437207512523,11270.442458443935,11219.41342585247,11300.66201694751,11433.006695867383,11300.796127414242,11229.806987024187,11309.982694385373,11428.089312087217,11313.983656642873,11196.54759127469,11227.370646878559,11380.211875463949,11352.965098972929,11169.747849672778,11175.78282067571,11343.353848857147,11354.77559027381,11194.111251129061,11198.40278606448,11318.878688678586,11376.747355073376,11206.337655346115,11179.381451533014,11290.7154906649,11401.870715841142,11296.973979112385,11334.077874908195,11462.868626459674,11641.548471635399,11583.858619196251,11540.004496574938,11579.790601705385,11711.017693402493,11612.15592767667,11409.470308955946,11316.643514233056,11369.907721270052,11312.396682786546,11166.082163582107,11195.720576729844,11342.459779078936,11367.449029379968,11199.855649454075,11197.21814360835,11323.81842420321,11395.567523904745,11239.105312717595,11216.284181628727,11267.044993286729,11370.645328837078,11230.36578063557,11175.82752416462,11251.756400079299,11400.194335006992,11267.156752009005,11164.584596703602,11234.36674289307,11384.793983077287,11306.585229228167,11177.056870109662,11226.744798033811,11376.277968439814,11336.067180164717,11180.074355611128,11201.554382032678,11333.34026734117,11366.331442157203,11189.484440026814,11197.911047686464,11318.006970644828,11405.156422276072,11240.111141218084,11205.175364634439,11304.148889082539,11430.5480039773,11283.294711505738,11226.029542211241,11312.463738019913,11458.241815357425,11347.734790770388,11250.124722734061,11314.028360131784,11472.971614953472,11408.39742522209,11276.745650380331,11326.724150982398,11475.005623698906,11452.609175754687,11179.82848642212,11099.742186038755,11262.932272306953,11328.378180072092,11173.927625885919,11174.039384608197,11279.60667367061,11358.217758919925,11186.444602780892,11136.622564390012,11208.796347236199,11313.536621753767,11155.286271010193,11069.14264787944,11131.39225618747,11268.721374120876,11154.660422165445,11039.28071728715,11085.258255631716,11239.641754584522,11169.792553161687,11012.570382663058,11051.954156393309,11206.471765812847,11208.997512936296,11038.364295764482,11052.04356337113,11183.7400417018,11247.509568632791,11065.812237955599,11041.381781265949,11160.963614101842,11270.978900310864,11112.974418756297,11074.328252593072,11135.147349255962,11277.863237603098,11145.093875538574,11067.734487978756,11137.136654512484,11275.225731757371,11175.268730553238,11058.927900663364,11103.407872129426,11272.364708467092,11226.78950152272,11063.845284443532,11093.99778771374,11243.620365097568,11257.590205382134,11090.265046389706,11163.422305991926,11439.913384904074,11482.001719713417,11289.217923786393,11247.509568632791,11322.05263639124,11426.479986486434,11236.400751638503,11153.676945409412,11256.696135603921,11395.768689604842,11250.705868089899,11152.738172142288,11217.714693273867,11360.92231999902,11263.714583362887,11136.756674856744,11180.320224800138,11323.840775947665,11279.718432392889,11134.163872499928,11160.069544323629,11288.681481919466,11306.965208883907,11128.7771020862,11122.116282238518,11256.249100714815,11347.824197748208,11166.6856606824,11109.688712321367,11222.45326309839,11352.965098972929,11208.483422813824,11146.680849394901,11217.848803740599,11342.057447678739,11203.275466355737,11109.979284999286,11154.056925065152,11295.588170956156,11216.239478139816,11085.370014353994,11127.167776485418,11251.734048334843,11234.120873704062,11087.314616121605,11106.850040775544,11247.196644210417,11283.384118483558,11112.460328633826,11107.05120647564,11235.394923138014,11350.953441971951,11248.761266322288,11275.203380012916,11412.085463057216,11595.705043757564,11496.37389139818,11425.384751008123,11481.286463890847,11606.500936329478,11438.304059303291,11205.801213479188,11162.818808891632,11282.17712428297,11202.493155299802,11078.396270083937,11132.643953876968,11298.404490757524,11275.829228857665,11105.15130819694,11137.516634168225,11266.37444095307,11302.204287314928,11148.334878484593,11102.849078518044,11211.813832737666,11313.178993842483,11148.87132035152,11112.19210770036,11193.284236584215,11325.114825381617,11190.266751082749,11114.717854823812,11188.07628012613,11334.703723752944,11234.299687659704,11120.037570004175,11168.607910705556,11319.392778801059,11271.224769499871,11131.369904443014,11165.389259503992,11295.834040145164,11303.14306058205,11146.993773817274,11152.469951208825,11272.588225911644,11338.771741243809,11173.100611341073,11168.093820583084,11282.355938238614,11394.315826215246,11217.826451996143,11163.534064714202,11261.971147295375,11406.296361243292,11274.309310234703,11203.07430065564,11274.577531168168,11428.893974887607,11350.685221038488,11239.597051095612,11295.252894789326,11425.965896363961,11395.478116926923,11163.981099603308,11082.419584085892,11247.12958897705,11266.732068864354,11128.732398597289,11144.937413327387,11262.015850784284,11321.00210440184,11139.885919080487,11107.610000087023,11184.83527718011,11288.033281330263,11123.703256094845,11044.578080723059,11113.801433301143,11239.641754584522,11090.53326732317,11003.741443603212,11058.212644840794,11201.777899477232,11114.941372268364,10999.807536579077,11046.18740632384,11203.230762866828,11165.948053115375,11000.209867979273,11029.513004960181,11162.885864124997,11198.916876186953,11037.291412030627,11038.163130064384,11152.849930864564,11227.862385256576,11063.398249554426,11034.18451955134,11129.894689308965,11250.817626812175,11101.217401172806,11039.638345198435,11122.317447938616,11256.584376881645,11150.30183199666,11054.815179683588,11112.080348978085,11255.80206582571,11193.999492406785,11062.794752454132,11087.784002755167,11233.89735625951,11225.917783488963,11145.652669149957,11292.90596162152,11401.378977463124,11422.479024228935,11234.299687659704,11208.796347236199,11309.736825196365,11371.852323037663,11200.436794809913,11162.103553069062,11247.308402932693,11373.998090505373,11249.431818655947,11134.700314366855,11202.448451810891,11324.936011425974,11211.053873426185,11114.896668779455,11181.34840504508,11311.167336841505,11257.925481548964,11123.81501481712,11141.741113870277,11268.18493225395,11259.288937960737,11105.419529130404,11121.646895604956,11249.364763422582,11294.068252333194,11128.128901496995,11110.96276175532,11210.539783303713,11295.968150611896,11138.38835220198,11096.545886581647,11181.482515511814,11307.434595517469,11170.664271195445,11096.411776114915,11172.698279940878,11319.929220667986,11214.898373472497,11111.745072811256,11186.869285925542,11334.301392352747,11282.17712428297,11114.516689123713,11130.744055598267,11267.492028175835,11255.399734425513,11093.48369759127,11096.367072626004,11213.713731016367,11274.599882912622,11108.973456498798,11094.511877836214,11190.6914342274,11300.349092525137,11142.478721437303,11094.19895341384,11192.099594128083,11323.81842420321,11214.339579861115,11202.269637855248,11349.29941288226,11526.436987690568,11488.975463983472,11419.886221872119,11457.280690345848,11592.084061155803,11567.608900977242,11387.409137178558,11294.068252333194,11298.158621568517,11254.952699536409,11097.998749971242,11119.29996243715,11237.853615028098,11313.737787453865,11149.340706985082,11131.079331765097,11219.88281248603,11320.24214509036,11159.734268156799,11132.241622476771,11206.73998674631,11327.61822076061,11203.342521589104,11115.38840715747,11169.92666362842,11309.669769962999,11244.313269175682,11119.925811281897,11165.992756604286,11312.28492406427,11279.249045759327,11124.262049706227,11159.510750712247,11294.649397689032,11318.945743911952,11153.006393075751,11158.951957100864,11259.490103660835,11345.164340158028,11209.243382125305,11176.811000920654,11254.997403025318,11367.896064269074,11236.065475471672,11175.715765442344,11254.192740224928,11394.293474470793,11295.47641223388,11201.93436168842,11274.75634512381,11414.119471802649,11350.908738483042,11227.12477768955,11277.259740502805,11426.748207419898,11417.74045440441,11272.968205567386,11301.444328003447,11429.475120243445,11461.661632259087,11300.214982058404,11304.171240826994,11314.207174087427,11224.397864866003,11123.546793883657,11148.223119762317,11245.69907733191,11356.407267619046,11222.922649731952,11143.261032493238,11215.859498484077,11329.518119039312,11208.572829791645,11082.777211997178,11108.72758730979,11233.450321370403,11169.6360909505,11031.837586383532,11021.533432189635,11109.308732665628,11126.050189262653,11014.783205364134,11031.748179405711,11150.368887230026,11199.587428520612,11032.32932476155,11002.065062769063,11107.967627998309,11201.755547732777,11050.724810448268,10999.98635053472,11079.804429984622,11198.603951764579,11095.629465058979,11013.46445244127,11054.345793050026,11169.97136711733,11080.7655549962,11009.530545417136,11061.051316386618,11162.26001528025,11119.411721159426,10988.02816725113,11010.201097750796,11115.790738557665,11139.43888419138,11016.437234453826,11013.285638485628,11076.250502616227,11103.810203529622,11021.13110078944,11013.732673374734,11086.129973665473,11176.743945687289,11132.956878299341,11207.634056524523,11237.518338861268,11316.487052021868,11185.237608580304,11108.325255909593,11155.152160543461,11216.351236862092,11165.366907759537,11053.51877850518,11052.624708726968,11170.284291539705,11144.333916227093,11041.560595221592,11083.760688753211,11142.545776670668,11115.746035068756,10974.058326966564,10974.952396744777,11063.577063510069,11103.430223873882,10972.538408343604,10978.260454924162,11037.581984708546,11098.781061027177,10974.058326966564,10992.498516142192,11072.540113036646,11160.5836344461,11032.262269528184,10930.852404934456,10962.234254149706,11048.646098213923,11022.405150223392,10929.220727589218,10963.150675672374,11065.208740855305,11042.454664999803,10913.485099492682,10933.445207291272,11022.427501967848,11038.923089375865,10986.955283517276,10970.97378623173,11061.967737909286,11092.299055135138,10922.40344553035,10978.483972368715,11158.63903267849,11293.531810466267,11229.18113817944,11235.797254538209,11293.844734888642,11391.857134325164,11314.497746765346,11225.850728255598,11184.276483568727,11130.140558497973,10960.759039015657,10897.570657440503,10970.124419942429,11102.200877928839,11091.114412679008,10980.65209158088,10988.609312606968,11059.66550823039,11097.037624959663,10931.433550290294,10965.609367562458,11082.598398041535,11130.855814320543,11012.056292540587,10993.7949173206,11053.786999438644,11134.052113777652,10999.852240067989,10963.8882832394,11011.117519273463,11123.591497372568,11060.537226264147,10962.658937294358,11011.117519273463,11135.773198100711,11112.639142589467,11003.8979058144,10981.814382292556,11096.210610414817,11128.173604985906,10982.551989859581,10999.807536579077,11110.359264655026,11178.889713154998,11071.891912447443,11005.50723141518,11081.458459074314,11180.856666667065,11050.881272659455,11009.575248906047,11072.80833397011,11183.807096935165,11124.753788084245,11047.416752268882,11096.38942437046,11233.98676323733,11142.478721437303,11039.705400431802,11109.554601854636,11245.252042442804,11209.131623403027,11091.159116167917,11120.953991526841,11214.853669983588,11204.638922767512,10925.957372898743,10895.96133183972,11031.122330560962,11098.110508693519,10932.953468913254,10933.288745080084,11028.84245262652,11107.073558220096,10923.16340484183,10819.116034402376,10918.737759439678,11028.37306599296,10907.405425000838,10814.511575044582,10847.838026027444,10988.050518995586,10930.271259578618,10807.738996474623,10854.945880764233,10977.522847357137,10953.986460445698,10817.104377401398,10845.088761459441,10939.748399227668,10963.97769021722,10812.745787232612,10819.630124524847,10932.908765424343,11004.456699425782,10851.906043518311,10831.297735130518,10916.793157672068,11020.41584496687,10883.578465411481,10831.901232230812,10910.646427946858,11047.774380180166,10953.964108701242,10884.33842472296,10901.258695275628,11005.7978040931,10940.865986450433,10831.588307808437,10890.10517479243,11004.054368025585,10979.467449124748,10821.820595481468,10847.636860327348,10981.322643914538,11025.959077591788,10997.304141200084,11053.630537227456,11130.25231722025,11208.88575421402,11035.257403285195,10980.182704947318,11042.454664999803,11148.625451162512,11000.36633019046,10929.176024100307,10999.785184834622,11135.39321844497,10998.309969700573,10845.468741115183,10924.437454275781,11073.702403748322,11005.50723141518,10867.708726848214,10932.64054449088,11086.174677154384,11078.351566595027,10898.35296849644,10910.53466922458,11000.768661590655,11039.101903331508,10875.263616474107,10859.505636633116,10963.351841372472,11046.410923768393,10892.943846338254,10841.735999791146,10916.346122782961,11035.749141663211,10883.399651455838,10811.04705465401,10892.29564574905,11034.743313162722,10933.936945669288,10832.750598520113,10897.816526629511,11135.482625422792,11166.551550215669,11023.075702557053,11105.978322741787,11324.220755603405,11345.991354702874,11163.131733314007,11166.886826382497,11248.6048041111,11188.925646415431,10909.484137235182,10827.47558682866,10938.474349793714,11081.413755585403,10899.671721419301,10847.212177182697,10941.916518439832,11088.789831255655,10942.520015540125,10864.62418611338,10913.64156170387,11053.027040127165,10958.412105847849,10833.443502598227,10868.803962326523,11015.409054208882,10967.039879207598,10793.165659089764,10801.9498946607,10957.249815136172,10978.260454924162,10760.152132529276,10765.114219798354,10879.577503153982,10964.044745450587,10774.32313851394,10748.931556812711,10856.711668576201,10948.420876076327,10765.360088987361,10706.083262691887,10796.630179480337,10942.49766379567,10800.608789993381,10714.755739540547,10771.640929179302,10929.824224689512,10833.689371787235,10707.022035959011,10775.619539692349,10939.301364338562,10894.53082019458,10725.216355945631,10774.054917580475,10922.805776930545,10942.587070773492,10762.811990119457,10769.361051244861,10898.084747562974,10973.723050799734,10755.950004571678,10596.269142182964,10473.870989545703,10280.863676174125,9906.807232714562,9909.824718216028,10043.823426225594,10195.234143165844,10147.088485609112,10146.820264675649,10243.044524555746,10377.557322687784,10298.789775227282,10263.339908521166,10333.971420999935,10451.54159683485,10420.427968553064,10337.212423945955,10377.1996947765,10516.406359244153,10477.201399469543,10343.739133326904,10385.425136736052,10497.139155523677,10563.054449922378,10433.526090803873,10432.87789021467,10528.073969849822,10611.445976668118,10485.046861773357,10445.663088043106,10517.859222633746,10629.953221077112,10541.663830478648,10485.292730962365,10531.493786751484,10643.364267750296,10579.125354185744,10497.005045056945,10536.925260654123,10647.96872710809,10618.598534893816,10497.161507268132,10526.442292504584,10627.583936164849,10650.62858469827,10540.412132789152,10550.716286983048,10634.088293801344,10684.089146147866,10578.879484996734,10556.460685308062,10615.268124969974,10705.055082446943,10614.619924380771,10561.959214444067,10632.009581567,10847.279232416062,10813.773967477557,10743.611841632348,10755.45826619366,10829.330781618452,10767.50585645507,10674.232026843076,10684.044442658955,10765.60595817637,10737.018077018032,10641.687886916148,10654.763657422502,10718.801405286957,10718.510832609038,10615.67045637017,10613.189412735632,10687.106631649332,10732.480672893606,10631.942526333634,10626.265183241985,10702.9763702126,10783.219132807151,10688.69360550566,10653.757828922013,10672.868570431301,10743.12010325433,10706.463242347627,10664.464314516106,10706.820870258913,10806.017912151565,10772.333833257419,10699.869477733313,10717.862632019835,10811.002351165098,10768.332870999917,10717.907335508746,10767.50585645507,10841.356020135407,10863.014860512598,10779.32992927193,10847.592156838436,11006.736577360223,11092.343758624049,11028.32836250405,11081.279645118671,11181.817791678643,11235.819606282665,11162.63999493599,11141.115265025528,11110.180450699383,11062.504179776213,10881.58916015496,10801.346397560406,10838.8079212675,10934.8310154475,10932.774654957611,10866.300566947528,10869.608625126913,10952.421838333827,10964.64824255088,10881.164477010308,10898.755299896635,10967.531617585615,10972.963091488255,10872.290834461552,10874.414250184805,10955.55108255757,11038.163130064384,10973.387774632905,10979.914484013854,11055.150455850418,11112.572087356102,11042.18644406634,11015.945496075808,11045.829778412555,11129.96174454233,11085.951159709832,11046.589737724034,11081.05612767412,11229.963449235374,11186.176381847428,11037.47022598627,11045.47215050127,11164.763410659243,11200.7944227212,11109.91222976592,11111.588610600069,11196.681701741421,11218.139376418518,11140.712933625333,11139.237718491284,11208.908105958475,11275.404545713014,11186.131678358517,11105.061901219118,11268.430801442957,11393.578218648223,11298.985636113362,11182.220123078838,11231.975106236352,11227.303591645194,11084.38653759796,11009.977580306242,10952.421838333827,10962.16719891634,10899.202334785741,10718.242611675574,10667.325337806386,10739.543824141481,10661.469180759095,10470.473524388495,10523.22364130302,10653.579014966372,10740.415542175238,10665.87247441679,10684.983215926077,10830.470720585672,10978.79689679109,10860.019726755587,10815.0033134226,10911.987532614176,11021.108749044985,10907.316018023017,10820.926525703255,10896.49777370665,10981.054422981075,10927.11966361042,10853.9624040082,10912.658084947836,11001.640379624412,10984.518943371648,10895.96133183972,10850.564938850992,10874.615415884902,10728.211489702642,10509.432614974095,10480.665919860116,10698.30485562144,10832.549432820015,10733.55355662746,10665.425439527684,10712.229992417097,10829.263726385085,10717.795576786468,10646.15823580721,10669.515808763004,10696.82964048739,10557.108885897265,10441.818587996791,10423.266640098887,10594.19042994862,10524.140062825689,10457.956547493524,10506.728053895004,10677.16010536672,10715.269829663019,10700.294160877964,10826.872089728367,10992.409109164371,11032.195214294818,11016.973676320753,11057.13976110694,11118.852927548043,11186.556361503168,11098.378729626982,11116.662456591423,11214.02665543874,11294.135307566561,11171.200713062372,11115.76838681321,11180.45433526687,11322.611430002622,11269.593092154633,11127.905384052443,11112.527383867191,11221.782710764732,11242.011039496785,11169.323166528126,11208.014036180262,11304.797089671743,11303.254819304326,11227.460053856381,11213.534917060724,11248.805969811197,11269.771906110276,11155.06275356564,11148.737209884788,11236.847786527609,11297.599827957134,11178.509733499257,11126.899555551954,11156.91794835543,11180.700204455878,11075.088211904551,11065.85694144451,11107.788814042666,11228.242364912316,11257.366687937581,11230.164614935473,11285.574589440179,11456.297213589814,11506.454528147522,11470.311757363292,11516.244592218947,11607.39500610769,11587.05491865336,11447.758847207886,11286.7145284074,11207.902277457986,11214.74191126131,11134.700314366855,11158.080239067107,11243.799179053209,11280.880723104563,11140.243546991773,11101.664436061912,11152.045268064174,11240.64758308501,11152.514654697736,11132.621602132513,11186.131678358517,11278.667900403489,11207.41053907997,11112.974418756297,11144.7809511162,11230.768112035765,11227.08007420064,11197.955751175376,11178.39797477698,11220.754530519787,11202.64961751099,11080.206761384818,11074.976453182275,11105.061901219118,11118.048264747653,11016.996028065209,10932.30526832405,10913.64156170387,10965.944643729288,10864.95946228021,10870.547398394037,10976.941702001299,11111.05216873314,11033.245746284218,10942.274146351117,10982.8425625375,11056.960947151298,10879.264578731607,10618.419720938173,10552.347964328286,10621.079578528355,10556.572444030338,10438.219957139489,10522.262516291443,10615.134014503243,10720.813062287934,10680.266997846007,10745.534091655505,10920.63765771838,10989.70454808528,10838.562052078492,10855.214101697697,10978.12634445743,11084.43124108687,10988.251684695684,10977.969882246243,11044.399266767416,11138.857738835542,11068.874426945977,11003.27205696965,11044.578080723059,11132.085160265584,11032.552842206102,10909.10415757944,10913.060416348031,11026.584926436535,11000.880420312933,10866.591139625447,10857.583386609958,11007.831812838533,11060.827798942066,10909.685302935279,10882.77380261109,10987.55878061757,11066.48279028926,10942.385905073394,10913.708616937234,10996.834754566522,11078.440973572848,10965.005870462164,10928.214899088729,10998.041748767107,11138.120131268517,11063.28649083215,11012.168051262863,11089.661549289413,11224.21905091036,11128.419474174914,10992.543219631103,11027.009609581186,11197.776937219733,11194.513582529258,11050.590699981536,11033.111635817486,11140.623526647512,11182.421288778936,11064.895816432932,11042.298202788616,11169.703146183867,11210.606838537078,11089.10275567803,11067.823894956577,11127.614811374524,11232.623306825555,11144.15510227145,11077.278682861172,11092.343758624049,11164.294024025683,11060.961909408798,10985.70358582778,11068.04741240113,11186.288140569704,11128.799453830654,11019.477071699748,11021.399321722904,11142.00933480374,11158.97430884532,11033.8045398956,11007.228315738239,11068.71796473479,11126.005485773741,11025.176766535851,11035.749141663211,11107.207668686828,11142.121093526017,10974.17008568884,10928.997210144666,11021.399321722904,11144.87035809402,11018.024208310153,10924.705675209247,10942.587070773492,11032.284621272638,10961.049611693576,10897.570657440503,10940.754227728155,11063.554711765613,10985.837696294511,10833.018819453577,10848.106246960908,10976.159390945362,11050.434237770349,10957.540387814091,10982.12730671493,11066.14751412243,11149.675983151912,11049.450761014314,10973.03014672162,11020.70641764479,11094.176601669384,10861.472590145182,10706.843222003368,10698.997759699556,10811.941124432222,10753.156036514763,10686.369024082307,10735.945193284178,10866.233511714163,10853.71653481919,10764.443667464695,10805.32500807345,10991.962074275265,11144.266860993726,11054.010516883198,11020.684065900334,11106.648875075445,11141.405837703447,11043.795769667122,11049.316650547582,11110.96276175532,11126.29605845166,10968.984480975208,10978.215751435251,11066.706307733812,11133.381561443992,10997.237085966717,10960.781390760112,11036.822025397067,11159.86837862353,11062.392421053937,10973.141905443896,11014.626743152947,11123.211517716827,11036.151473063406,10934.227518347207,10967.419858863337,11102.513802351214,11100.010406972218,10959.17206515933,10941.938870184287,11056.558615751102,11088.543962066648,10967.241044907696,10976.137039200907,11059.37493555247,11145.652669149957,11047.148531335419,11034.09511257352,11103.832555274077,11173.480590996813,11068.360336823504,11047.28264180215,11102.24558141775,11228.108254445584,11149.810093618644,11081.86079047451,11121.803357816143,11230.030504468741,11153.6322419205,10994.309007443073,10875.44243042975,10983.960149760265,10998.332321445027,10877.275273475085,10903.695035421257,10993.70551034278,10978.729841557722,10808.253086597097,10720.343675654374,10777.318272270952,10852.28602317405,10756.50879818306,10730.379608914805,10817.260839612585,10982.350824159483,10970.88437925391,10967.375155374428,10980.674443325335,11047.774380180166,10943.995230674176,10827.497938573115,10868.222816970685,11012.995065807709,10969.923254242332,10883.466706689205,10894.06143356102,11013.777376863645,11019.432368210837,10888.406442213827,10863.841875057446,10931.098274123464,10972.091373454497,10879.353985709427,10908.075977334498,10993.88432429842,11094.020139458196,10967.241044907696,10925.309172309539,10976.785239790112,11067.600377512024,10985.681234083324,10898.978817341187,10928.080788621997,11034.072760829064,10958.188588403296,10835.678677043757,10848.374467894373,10954.612309290447,10910.199393057752,10739.789693330491,10730.916050781734,10795.80316493549,10771.260949523563,10643.543081705939,10630.959049577601,10696.650826531748,10711.537088338982,10590.90472351369,10593.363415403774,10660.508055747516,10727.585640857893,10609.121395244765,10533.863071663747,10584.132144943733,10652.930814377167,10511.779548141903,10393.807040906793,10420.696189486527,10491.193591498566,10389.739023415927,10297.336911837687,10294.60999901414,10411.129642859656,10392.980026361945,10289.93848442298,10352.746886342393,10485.583303640284,10509.700835907559,10391.48245948344,10392.19771530601,10483.236370472476,10533.79601643038,10427.02173316738,10259.048373585747,10366.269691737854,10539.160435099655,10442.802064752826,10476.352033180241,10583.171019932153,10639.67622991517,10476.843771558259,10422.01494240939,10451.653355557128,10502.704739893048,10378.160819788078,10274.60518772664,10344.834368805215,10496.669768890115,10505.722225394515,10422.551384276318,10465.891416775157,10553.554958528872,10554.04669690689,10432.564965792295,10386.878000125647,10454.559082336316,10498.167335768621,10361.464066679962,10331.84800527668,10368.124886527645,10445.886605487658,10345.817845561249,10312.580801556207,10373.57871217474,10442.73500951946,10362.514598669362,10309.004522443358,10351.517540397352,10533.75131294147,10644.191282295142,10509.857298118746,10491.081832776288,10583.57335133235,10538.0875513658,10426.48529130045,10410.637904481639,10506.146908539165,10576.890179740212,10456.727201548481,10418.34925631872,10508.180917284599,10577.76189777397,10428.273430856876,10386.498020469908,10430.10627390221,10535.114769353244,10431.290916358343,10401.451337510507,10462.628062084683,10553.174978873132,10447.49593108844,10370.315357484265,10434.01782918189,10571.9951477045,10572.553941315884,10440.1645589071,10449.284070644864,10557.868845208746,10435.470692571485,10220.625724867074,10196.374082133065,10329.322258153232,10409.877945170158,10291.391347812576,10246.911376346514,10288.88795243358,10319.308676637254,10213.584925363652,10154.688078723917,10178.425631335454,10248.78892288076,10103.077900776614,10049.545472806152,10081.933150521892,10175.788125489727,10117.941810839393,10010.362864776,10026.724341717285,10144.38392453002,10105.04485428868,9992.772041889673,10031.597022008542,10113.516165437242,10079.273292931712,9935.149244683891,9958.529169384143,10051.55712980713,10118.612363173052,9997.108280314003,9989.3075214991,10052.60766179653,10107.324732223122,9997.756480903206,9942.793541287607,9992.123841300468,10098.42873792991,10011.748672932228,9948.068552979059,9957.791561817117,10077.418098141921,10042.728190747284,9947.420352389856,9973.527189913653,10071.785458539183,10061.928339234393,9922.140529410903,9906.918991436838,10096.148859995468,10122.72508415283,9972.610768390987,9935.43981736181,10027.685466728863,10100.865078075538,9963.871236308962,9924.018075945149,10003.210306550302,10065.817542769617,10013.425053766377,10002.897382127927,10047.98085069428,10129.318848767143,10016.241373567746,9950.147265213403,9989.709852899296,10095.970046039825,10051.110094918025,9962.798352575106,9986.491201697732,10093.019615771726,10094.964217539336,9978.355166716,9991.520344200177,10069.796153282661,10076.412269641432,9966.151114243403,9972.923692813361,10089.018653514226,10143.646316962995,9985.284207497145,9888.992892383683,9941.363029642467,10065.3258043916,9973.102506769003,9925.113311423458,9999.254047781713,10077.842781286572,10010.519326987187,9927.996686458193,9956.785733316628,10055.848664742549,10006.183088562857,9890.110479606448,9908.930648437816,10030.524138274686,10088.057528502648,10076.56873185262,10249.168902536501,10356.323165455242,10382.80998263478,10304.735339252395,10310.099757921667,10399.39497702062,10433.883718715158,10191.479050097352,10045.768027993206,10020.21998408079,10050.640708284463,9975.672957381363,9966.39698343241,10028.534833018164,10130.972877856837,10052.920586218905,9966.933425299338,9997.868239625483,10118.366493984044,10094.070147761126,9989.106355799004,9969.25800672269,10062.665946801419,10065.974004980804,9972.16373350188,9975.82941959255,10070.153781193947,10119.595839929085,9988.59226567653,9977.818724849072,10070.489057360775,10146.52969199773,10042.907004702927,9990.02277732167,10062.285967145679,10208.779300305761,10108.218802001335,10003.255010039213,10045.343344848556,10151.49177926681,10111.504508436265,10046.304469860133,10120.713427151852,10256.79084739576,10185.555837816697,10098.674607118917,10137.790159915705,10247.850149613638,10270.93950163597,10173.262378366278,10185.265265138778,10293.51476353583,10342.196862959488,10225.78897783625,10190.607332063597,10251.672297915495,10269.263120801821,10154.419857790454,10095.47830766181,10129.117683067047,10255.248577028344,10197.692835055928,10155.112761868568,10187.34397737312,10308.311618365244,10259.60716719713,10179.945549958415,10199.34686414562,10307.305789864755,10284.574065753706,10163.91934918396,10165.819247462661,10235.601393652129,10238.261251242311,10148.474293765343,10120.467557962842,10178.291520868723,10213.428463152464,10074.333557407088,10061.816580512117,10145.836787919616,10226.16895749199,10133.38686625801,10103.323769965622,10172.860046966081,10269.374879524097,10145.747380941795,10049.433714083876,10101.960313553847,10230.371085449588,10175.363442345077,10057.346231621055,10081.173191210413,10200.3079891572,10195.077680954657,10121.562793441153,10144.518034996752,10239.289431487256,10247.559576935719,10114.924325337926,10099.456918174854,10190.473221596863,10251.426428726487,10134.660915691962,10098.607551885552,10166.1992271184,10289.200876855955,10217.384721921055,10188.618026807073,10231.01928603879,10311.038531188791,10226.236012725356,10162.444134049909,10251.2699665153,10387.749718159404,10410.660256226094,10441.192739152044,10409.453262025507,10493.384062455185,10479.146001237155,10366.537912671318,10370.494171439906,10446.065419443301,10451.206320668021,10301.092004906179,10287.256275088344,10409.453262025507,10487.527905407895,10369.980081317435,10367.72255512745,10429.055741912813,10497.69794913506,10423.49015754344,10391.080128083246,10438.73404726196,10558.382935331218,10504.626989916205,10448.881739244669,10501.162469525632,10610.171927234165,10592.357586903285,10491.081832776288,10494.166373511121,10593.631636337237,10566.429563335128,10507.51036495094,10506.906867850646,10584.422717621652,10640.458540971105,10533.214871074542,10523.51421398094,10609.948409789611,10682.971558925099,10563.255615622475,10511.645437675172,10553.733772484515,10654.428381255673,10563.18856038911,10477.916655292112,10535.092417608788,10692.426346829694,10721.751835555058,10678.68002398968,10739.141492741286,10877.945825808743,10844.306450403506,10724.501100123061,10729.351428669863,10803.536868517027,10736.347524684374,10404.558229989796,10247.224300768888,10334.306697166765,10340.587537358706,10172.703584754896,10096.595894884575,10136.471406992843,10201.850259524615,10089.62215061452,10023.282173071168,10059.268481644212,10165.573378273652,10123.90972660896,10038.548414534142,10037.229661611278,10144.272165807744,10101.625037387019,9994.269608768178,10010.631085709463,10118.992342828793,10106.408310700454,10017.090739857047,10027.4172457954,10131.777540657227,10197.782242033749,10119.797005629183,10131.397561001488,10223.21852722389,10269.263120801821,10134.01271510276,10095.433604172898,10157.258529336277,10219.016399266291,10099.032235030203,10079.765031309727,10136.113779081557,10176.302215612199,10038.906042445427,9918.698360764785,9923.593392800498,10052.831179241084,9992.704986656307,9884.14256383688,9854.459447200234,9962.820704319562,9942.30180290959,9818.540193860556,9820.104815972427,9886.422441771323,9888.121174349926,9773.568484016478,9760.02332687656,9783.783231232552,9870.128020063403,9765.007765890094,9691.626988843322,9712.54822165349,9769.813390947986,9609.32786575888,9494.998692869985,9507.31450406486,9539.165739913671,9394.706415499022,9309.501565635392,9299.800908541789,9397.656845767122,9312.340237181215,9174.295863425239,9192.221962478396,9293.274199160838,9329.484025178435,9279.080841431718,9344.035010818841,9444.01436376743,9494.708120192066,9415.024151208896,9459.772343608422,9578.393051432735,9663.799066996464,9556.465990122078,9509.683788977121,9568.066545494383,9633.043066625962,9507.560373253868,9444.573157378813,9478.994843839984,9538.919870724663,9431.542090361369,9286.322806635239,9277.158591408563,9420.723846044999,9408.38568310567,9325.840690832221,9344.437342219037,9499.714910950055,9606.4668424686,9456.486637173492,9440.661602099133,9533.063713677373,9573.341557185837,9471.998747825473,9437.331192175292,9502.374768540236,9550.408667374692,9420.097997200251,9388.872610196187,9444.975488779008,9534.31541136687,9430.692724072067,9330.534557167835,9366.476162251969,9488.337873022303,9411.112595929217,9335.340182225727,9351.724010911466,9473.317500748337,9455.704326117555,9332.590917657724,9311.915554036565,9414.845337253253,9446.33894519078,9324.36547569817,9309.859193546676,9394.52760154338,9435.6771630856,9313.949562781998,9288.960312480964,9375.260397822905,9496.764480681954,9372.801705932821,9299.130356208128,9382.055328137318,9474.502143204469,9350.785237644344,9239.227681067907,9272.867056473144,9380.244836836438,9352.908653367598,9247.341364305183,9244.033306125797,9318.7998913288,9296.828126529232,9216.652419168046,9217.032398823787,9299.197411441495,9302.930152765532,9184.309444941216,9212.562049932725,9357.37900225866,9467.036660556396,9385.743365972445,9427.921107759608,9549.000507474007,9628.036275867973,9488.248466044482,9442.673259100111,9468.087192545796,9451.971584793519,9269.335480849204,9122.126891866552,9165.869255765589,9284.422908356537,9194.568895646202,9091.057967073675,9106.570077725659,9219.044055824765,9200.62621839359,9080.70910939087,9075.121173277043,9166.316290654695,9200.290942226762,9079.45741170137,9067.678042373425,9190.880857811077,9306.439376645014,9194.568895646202,9131.402865815506,9143.741028754834,9261.959405178954,9216.473605212404,9167.09860171063,9184.734128085867,9321.70561810799,9273.135277406607,9231.270460041816,9368.37606053067,9721.377160713335,9849.4750081867,9666.995366453573,9498.35145453828,9474.6362536712,9382.658825237611,9225.481358227893,9212.293828999262,9291.061376459764,9307.8475365457,9168.8643895226,9110.392226027516,9177.358052415617,9201.63204689408,9110.436929516427,9085.13475479302,9187.617503120602,9288.26740840285,9184.82353506369,9125.300839579206,9182.901285040532,9313.502527892892,9223.514404715825,9143.405752588005,9180.934331528466,9258.383126066105,9223.603811693647,9160.348374885127,9186.231694964374,9295.799946284289,9298.146879452095,9079.189190767907,8992.285608325674,9096.8470688876,9168.193837188941,9038.576071092615,8990.16219260242,9064.928777805422,9123.557403511692,9017.051341182154,8988.955198401833,9047.472065385828,9123.020961644765,9006.948352688356,8952.67831715087,8987.189410589865,9072.03663254221,9006.054282910143,8918.211927200786,8920.33534292404,9041.079466471609,9021.07465518411,8974.717137183803,9008.44591956686,9143.00342118781,9115.600182485603,8998.342931073063,9026.9308122314,9125.077322134654,9171.390136646049,9058.200902724375,9011.821032979613,9088.733385650325,9176.218113448396,9097.025882843243,9063.967652793843,9087.861667616568,9199.285113726273,9151.38532535855,9087.839315872112,9146.602052045113,9288.334463636216,9219.625201180603,9122.32805756665,9156.973261472376,9303.60070509919,9279.483172831915,9161.890645252544,9188.53392464327,9301.36553065366,9331.741551368423,9222.039189581776,9232.96919262042,9316.27414420535,9391.28659859736,9303.533649865825,9257.489056287892,9341.933946840041,9417.751064032444,9414.308895386326,9409.279752883882,9461.96281456504,9567.217179205081,9464.935596577598,9388.626741007178,9415.113558186718,9539.970402714063,9523.161890883672,9414.554764575334,9446.271889957416,9615.049912339438,9643.928366175696,9509.504975021478,9464.7344308775,9543.189053915627,9580.27059796698,9476.558503694356,9450.228148726004,9514.064730890363,9575.330862442359,9408.38568310567,9360.217673804484,9454.407924939147,9554.99077498803,9475.530323449413,9403.580058047779,9456.866616829231,9616.927458873684,9565.630205348756,9480.090079318295,9540.640955047722,9695.180916211715,9705.708587850164,9649.67276450071,9687.737785308098,9832.219461467203,9866.037650828082,9759.419829776267,9744.801788902496,9816.37207464839,9801.999902963627,9541.13269342574,9395.868706210698,9452.083343515795,9527.520481052457,9450.563424892835,9426.91527925912,9510.242582588504,9635.010020138028,9533.868376477763,9463.30391923236,9518.780948970432,9608.076168069383,9554.99077498803,9496.45155625958,9526.335838596326,9615.832223395375,9606.37743549078,9553.157931942695,9579.309472955403,9641.067342885417,9595.84976385233,9493.769346924943,9549.849873763309,9668.96231996564,9752.490788995123,9634.585336993377,9632.95365964814,9746.992259859117,9846.14459826286,9801.888144241351,9764.180751345248,9828.106740487427,9968.63215787794,9916.038503174605,9842.322449961,9868.116363062425,9947.107427967481,9920.4417968323,9917.893697964395,9979.293939983123,10080.502638876753,10131.375209257032,10137.633697704518,10263.60812945463,10458.470637615996,10590.569447346861,10640.704410160115,10805.593229006914,10956.64631803588,11010.491670428715,10929.421893289316,10969.006832719664,11121.088101993573,11193.395995306491,11074.015328170697,11042.991106866732,11172.45241075187,11327.90879343853,11299.23150530237,11275.002214312819,11339.799921488753,11459.113533391183,11333.34026734117,11181.88484691201,11164.696355425878,11197.754585475277,11037.537281219636,10908.880640134888,10961.496646582682,11079.044470673141,11155.01805007673,11075.80346772712,11087.784002755167,11183.315358557149,11259.400696683013,11164.49518972578,11116.282476935683,11176.811000920654,11230.119911446562,11093.014310957707,10983.826039293534,11040.37595276546,11060.917205919886,10914.982666371186,10780.17929556123,10663.659651715714,10587.104926956288,10491.439460687574,10575.750240772992,10808.18603136373,11076.272854360683,11136.399046945458,11030.652943927402,11084.990034698252,11186.846934181087,11247.263699443782,11205.510640801269,11207.544649546702,11292.503630221323,11374.601587605666,11272.342356722636,11258.283109460248,11362.598700833167,11468.165989895582,11307.076967606185,11303.120708837594,11404.217649008948,11533.008400560428,11455.537254278333,11453.235024599437,11508.980275270973,11617.877974257228,11599.571895548332,11514.679970107076,11507.32624618128,11605.830383995817,11582.785735462396,11498.832583288264,11542.150264042648,11666.78359112544,11708.670760234685,11650.600928139798,11624.382331893723,11753.508359612031,11840.478997287632,11713.789309714952,11675.187847040635,11729.65904827822,11856.818122484461,11795.216714765635,11740.767865272506,11758.783371303483,11886.031852487547,11831.895927416794,11771.456810409643,11838.132064119824,11937.105588567923,11899.666416605285,11797.496592700076,11812.963999863148,11894.279646191555,11895.620750858874,11768.349917930356,11795.686101399197,11921.437015704754,11946.806245661528,11832.119444861346,11844.703476989685,11938.245527535144,11986.70410951425,11863.434238843232,11865.49059933312,11919.872393592883,12005.18900217879,11983.843086223971,12005.70309230126,12104.721320238272,12236.551909035672,12235.859004957558,12211.048568612166,12268.649014073493,12372.629329279582,12358.525378528284,12270.079525718633,12197.481059727796,12234.160272378955,12215.027179125213,12109.884573207448,12159.97483253179,12241.066961415645,12310.29031399373,12204.186583064387,12196.69874867186,12259.909481991468,12339.258174807808,12229.108778132055,12175.308129228131,12215.317751803132,12284.71991833686,12186.46164971133,12126.022532704179,12169.40726869193,12280.271921190253,12223.386731551496,12156.622070863496,12193.569504448118,12274.996909498801,12235.479025301818,12162.411172677419,12211.89793490147,12295.180534741943,12341.627459720072,12276.42742114394,12237.602441025072,12307.786918614736,12371.0200036788,12295.448755675407,12337.917070140491,12431.436768941496,12493.865191205168,12384.252236396342,12329.065779336188,12363.129837886077,12510.673703035558,12465.031440857822,12374.663338025015,12447.440617971495,12573.39269797715,12524.598839831215,12420.998504280866,12460.404629755572,12593.15164007564,12596.280884299385,12499.274313363352,12489.618359758659,12558.72995361447,12587.273131283895,12487.986682413422,12471.446391516494,12550.124531999176,12635.59760279627,12533.852462035711,12508.706749523491,12611.949457162555,12685.620806887247,12559.847540837234,12506.0021884444,12568.29650024134,12670.399268913183,12576.946625345545,12393.952893489944,12355.999631404833,12492.65819700458,12476.699051463493,12390.421317866007,12395.852791768646,12490.624188259148,12486.667929490559,12371.958776945923,12407.006312251844,12487.13731612412,12521.089615951732,12404.055881983744,12391.985939977878,12491.585313270727,12566.083677540264,12502.202391886996,12524.420025875572,12519.346179884218,12605.378044292695,12488.411365558073,12399.205553436943,12452.737981407403,12565.457828695517,12485.125659123143,12380.966529961412,12370.572968789695,12464.025612357333,12459.667022188547,12415.298809444763,12468.495961248394,12574.510285199916,12550.571566888282,12445.473664459429,12431.8838038306,12515.47932809345,12560.495741426437,12456.98481285391,12395.338701646175,12484.253941089386,12545.542424385838,12469.65825196007,12431.839100341691,12478.688356720015,12601.645302968658,12568.788238619356,12535.618249847681,12581.215808536508,12663.917263021143,12585.77556440539,12517.759206027891,12555.86893032419,12680.949292296087,12651.780265781912,12520.977857229454,12519.234421161942,12636.31285861884,12638.59273655328,12537.294630681828,12553.812569834301,12654.17190243863,12720.89185963772,12530.745569556424,12421.154966492053,12470.8428944162,12533.316020168784,12381.592378806161,12209.439243011386,12191.826068380604,12276.71799382186,12152.464646394808,12039.253060728677,12077.452192002796,12187.60158867855,12112.812651731092,11996.784746263595,12014.822604039027,12101.927352181357,12047.657316643872,11929.774216386584,11950.829559663482,12035.833243827015,12016.297819173076,11876.711175049684,11879.348680895411,11973.963615174725,11964.46412378122,11856.01345968407,11821.591773222897,11857.332212606932,11915.513803424097,11822.06115985646,11796.602522921863,11817.411997009754,11915.804376102016,11907.042492275536,11916.005541802115,12009.726406303216,12198.039853339178,12247.481912074318,12189.0768038126,12251.95226096538,12363.174541374987,12420.998504280866,12364.0686111532,12351.931613913968,12351.842206936146,12303.316569723675,12110.488070307742,12009.391130136388,12038.314287461555,12000.316321887532,11826.889136658805,11792.087470541892,11861.802561497994,11926.868489607394,11804.939723603693,11768.238159208078,11796.222543266123,11849.844378214406,11750.289708410468,11634.485320387521,11686.117850079281,11798.390662478289,11738.80091176044,11651.316183962368,11613.474680599533,11646.801131582395,11653.64076538572,11562.75857243044,11574.113258613737,11710.280085835468,11721.701827252129,11598.364901347746,11605.562163062354,11707.866097434295,11801.743424146583,11675.053736573904,11633.390084909212,11731.290725623456,11840.858976943371,11728.65321977773,11650.444465928611,11705.519164266487,11848.927956691738,11794.367348476333,11710.056568390915,11778.162333746235,11895.151364225312,11843.921165933749,11738.46563559361,11708.849574190328,11716.918553938694,11678.853533131307,11625.991657494505,11714.057530648415,11866.2505586446,11938.178472301779,11866.496427833608,11876.10767794939,11966.632242993384,12076.759287924682,11997.18707766379,12026.71373208925,12111.091567408033,12168.915530313914,12064.48818021872,12030.558232135563,12112.164451141889,12205.751205176259,12135.410265375409,12072.870084389458,12106.040073161135,12206.019426109724,12164.534588400673,12060.978956339235,12083.934197894836,12178.280911240687,12162.277062210687,12039.230708984222,12045.489197431709,12142.138140456456,12150.251823693732,12061.314232506065,12086.102317107001,12201.057338840645,12258.277804646232,12105.905962694404,12052.932328335326,12204.521859231218,12297.460412676384,12216.457690770352,12165.562768645617,12195.983492849291,12257.786066268214,12200.789117907181,12131.386951373453,12153.716344084305,12223.096158873577,12183.891199098969,12114.377273842963,12162.321765699598,12262.85991225957,12275.399240898996,12173.899969327447,12184.517047943718,12266.704412305882,12270.683022818926,12177.36448971802,12146.183806202866,12241.022257926734,12320.527412954261,12157.873768552992,12098.596942257518,12184.002957821245,12310.022093060266,12217.932905904401,12108.834041218048,12151.21294870531,12263.351650637585,12184.852324110547,12111.136270896945,12148.64249809295,12228.684094987404,12204.678321442405,12112.790299986638,12139.344172399542,12228.281763587209,12222.22444083982,12112.007988930702,12140.998201489236,12219.855155927558,12260.423572113941,12169.094344269555,12170.658966381427,12204.298341786665,12237.490682302796,12139.366524143998,12074.76998266816,12104.520154538173,12154.83393130707,12031.698171102784,11947.633260206374,11950.002545118636,12023.562136121052,11953.757638187128,11867.457552845188,11887.484715877143,11960.08318186798,11926.957896585214,11829.14666284879,11893.810259557995,11976.735231487184,11964.285309825578,11870.743259280118,11882.857904774894,11948.974364873691,12008.452356869264,11937.97730660168,11940.279536280577,12049.221938755743,12184.673510154906,12170.323690214598,12184.94173108837,12268.447848373396,12346.902471411524,12277.76852581126,12259.216577913354,12288.0503282607,12274.683985076426,12065.71752616376,11916.854908091416,11949.644917207352,12067.885645375925,12076.803991413593,11949.55551022953,11908.428300431766,11957.065696366513,11945.643954949852,11797.496592700076,11799.66471191224,11881.606207085397,11960.865492923915,11962.497170269153,11972.287234340578,12043.991630553202,12152.732867328272,12081.520209493663,12047.009116054669,12077.116915835968,12157.225567963787,12115.003122687713,12070.098468077002,12127.698913538326,12213.686074457893,12178.191504262866,12112.566782542084,12173.564693160617,12264.603348327084,12263.865740760059,12181.656024653439,12230.494586288285,12305.037654046733,12310.938514582935,12181.991300820267,12168.870826825003,12254.589766811105,12326.696494423926,12284.250531703297,12262.725801792838,12298.801517343703,12335.257212550308,12269.207807684876,12280.115458979066,12326.204756045909,12412.616600110126,12341.15807308651,12347.573023745183,12440.668039401537,12532.19843294602,12504.549325054804,12455.196673297487,12505.309284366285,12614.788128708378,12582.668671926103,12511.634828047137,12547.352915686717,12635.128216162708,12642.101960432765,12532.265488179386,12529.113892211188,12574.219712521997,12622.45477705655,12514.249982148407,12469.94882463799,12502.023577931355,12539.57450861627,12451.598042440182,12417.913963546034,12433.56018466475,12478.107211364177,12359.35239307313,12319.29806700922,12389.750765532348,12479.202446842486,12419.389178680085,12305.730558124847,12328.886965380547,12429.872146829623,12398.69146331447,12300.0532150332,12329.177538058466,12405.911076773535,12514.920534482068,12437.315277733242,12429.872146829623,12513.8029472593,12581.77460214789,12524.040046219832,12554.326659956772,12637.408094097149,12750.61967976328,12690.873466834244,12615.861012442234,12648.516911091438,12708.844269376312,12600.304198301339,12462.393935012095,12480.990586398912,12547.799950575823,12506.918609967068,12418.65157111306,12437.359981222151,12506.136298911131,12503.096461665209,12423.546603148772,12440.489225445894,12477.146086352597,12506.672740778058,12425.245335727375,12424.463024671439,12463.310356534763,12503.923476210055,12385.235713152375,12352.535111014262,12396.478640613395,12471.13346709412,12378.463134582416,12262.412877370463,12281.903598535491,12375.333890358674,12313.956000084401,12241.022257926734,12260.132999436022,12336.508910239805,12295.67227311996,12191.691957913872,12170.502504170241,12246.498435318284,12287.133906738032,12220.436301283396,12229.04172289869,12324.01428508929,12356.670183738494,12228.438225798396,12223.967876907334,12343.370895787584,12453.27442327433,12369.455381566928,12380.966529961412,12485.371528312151,12603.567552991815,12599.499535500949,12589.620064451703,12628.802672481856,12710.163022299173,12659.178693196618,12611.658884484636,12654.954213494566,12729.407874275194,12724.825766661856,12638.860957486744,12642.616050555236,12697.355472726284,12691.968702312553,12604.305160558839,12604.528678003393,12660.631556586213,12739.734380213546,12624.891117202178,12591.452907497038,12692.907475579677,12814.366854949816,12794.160877962218,12796.686625085667,12881.01975691554,13020.092310916461,12968.146856802328,12885.512457551058,12938.821368076966,13000.75805196262,12847.40273325476,12646.460550601549,12603.366387291717,12688.392423199704,12683.832667330822,12571.53750318736,12539.395694660629,12587.519000472905,12650.193291925585,12557.47825592497,12573.549160188337,12688.884161577722,12777.687642298657,12678.98233878402,12675.763687582457,12748.071580895376,12894.743728011099,12837.947945350164,12823.7769393655,12873.263701589549,12977.467534240192,12950.958365316197,12908.847678762399,12950.220757749172,13040.186529181783,13005.116642131406,12924.091568480919,13011.755110234632,13141.663449008876,13179.549655860623,13162.137646929938,13169.916054000385,13234.780816409686,13261.871130689518,13176.599225592521,