0.0,16431.884936318987,16227.858212930943,16105.974150416156,15917.727758613559,15798.347091477764,15913.570334144872,15999.98217820909,15968.73443946057,16031.31932393543,16143.726246801169,16211.54143947857,16120.748653501112,16088.808010674478,16105.571819015959,16154.678601584268,16131.879822239856,16145.983772991154,16196.901046860345,16227.031198386097,16152.845758538933,16106.33177832744,16189.837895612467,16245.7843119841,16215.095366846965,16178.103229773431,16165.787418578557,16233.110872877942,16235.614268256935,16198.532724205581,16227.634695486391,16232.373265310916,16241.492777048681,16183.19942750924,16115.853621465401,16152.733999816657,16247.795968985078,16257.83190224551,16282.307062424072,16315.722920384756,16315.477051195749,16321.668484409867,16322.517850699169,16355.196101092828,16405.57693309509,16370.283528600161,16380.654738027424,16421.06669200262,16512.351216358093,16511.859477980077,16564.386077450046,16708.21955301995,16859.317345537824,17039.293591891957,17265.448542290753,17538.720970001337,17439.792149042147,17154.58388979243,16839.312534250323,16612.19645883995,16448.760503382742,16326.80938563459,16030.827585557412,16134.740845530136,16279.691908322802,16318.8521646085,16233.177928111307,16176.136276261364,16200.432622484283,16249.472349819227,16148.755389303613,16127.878859982357,16143.972115990176,16165.608604622914,16139.613525821393,16097.659301478781,16108.18697311723,16107.158792872286,16074.346432011895,16031.989876269088,16063.505835951071,16070.524283710038,16089.523266497048,16079.979071614633,16093.010138632077,16114.110185397887,16045.736199109102,16002.396166610262,15970.746096461547,15969.15912260522,15988.113401903322,15960.48664575656,15946.136825816255,15960.06196261191,15988.046346669955,15927.048436051422,15922.24281099353,15982.704279745136,15996.942340963167,15969.53910226096,15926.020255806478,15920.029988292456,15945.041590337943,16009.347559135862,15956.217462565597,15972.310718573419,16004.430175355696,15964.867587669802,15914.218534734075,15936.212651278098,15927.160194773698,15930.937639586646,15941.331200758363,15943.63343043726,15955.211634065108,15971.72957321758,15941.0629798249,15919.67236038117,16074.681708178725,16330.542126958624,16171.129485503376,16050.720638122635,15999.758660764535,15971.103724372831,15975.909349430724,15950.517767729494,16007.090032945876,16018.221201684619,15942.091160069844,15849.0408479024,15921.728720871059,15924.545040672427,15884.557769841884,15860.753161996981,15902.707386339593,15926.91432558469,15920.231153992554,15858.607394529272,15879.305109894885,15903.28853169543,15857.378048584229,15798.50355368895,15867.793961500403,15875.52766508194,15868.017478944956,15878.18752267212,15888.402269888196,15953.669363697692,15940.884165869256,15894.213723446575,15851.879519448225,15832.142929094189,15827.069083102833,15914.307941711897,15871.146723168698,15849.71140023606,15837.932030908112,15858.272118362442,15822.866955145235,15859.143836396199,15851.47718804803,15855.254632860975,15859.210891629566,15828.141966836689,15880.75797328448,15902.752089828504,15843.430560044118,15825.616219713238,15866.89989172219,15958.787913177957,15951.657706696715,15867.883368478224,15909.0552817649,15928.501299441017,15930.781177375458,15956.150407332232,15985.185323379676,15982.25724485603,15935.184471033153,15919.448842936617,15936.77144488948,15956.508035243516,15969.293233071952,15935.765616388991,15971.751924962036,16064.221091773641,16055.548614924983,15927.428415707162,15921.684017382147,15912.922133555669,15930.088273297344,15899.935770027134,15897.052394992399,15955.524558487483,15967.661555726714,15894.794868802413,15871.504351079984,15910.48579341004,15872.107848180278,15823.246934800976,15801.74455663497,15823.649266201171,15888.089345465822,15837.864975674747,15832.522908749928,15848.951440924578,15865.491731821507,15901.47804039455,15839.250783830976,15747.228651908477,15781.471524414006,15827.672580203127,15875.61707205976,15962.833578924368,16205.595875453459,16424.195936226362,16513.49115532531,16471.849855405075,16262.145788925385,16028.54770762297,15806.661940415139,15546.711152399917,15521.11840499859,15601.495278059874,15692.91391288208,15720.853593451215,15717.67964573856,15750.983744976968,15764.30538467233,15706.749642699915,15718.260791094399,15723.379340574664,15675.859531862681,15636.85573778817,15629.367903395643,15629.18908944,15621.321275391732,15577.109524859134,15495.63741631954,15424.044778829191,15403.503525674765,15341.209213877824,15265.369744940966,15279.250178247712,15296.55042845612,15319.528021756176,15338.169376631902,15357.280118141189,15424.692979418396,15498.654901821006,15440.450959259388,15478.784201000239,15529.567364402696,15608.737243263395,15583.32330981771,15621.85771725866,15628.540888850795,15634.62056334264,15625.523403349329,15675.300738251299,15694.456183249496,15708.11309911169,15672.842046361215,15681.000433087402,15699.284160051842,15700.982892630445,15734.354047102219,15786.83594308328,15832.008818627457,15793.250893741953,15798.0788705443,15789.69696637356,15803.443289213574,15833.327571550319,15822.263458044943,15780.912730802624,15796.067213543323,15840.815405942847,15826.130309835711,15606.792641495782,15384.325728932112,15552.36614374711,15688.24239829092,15673.445543461508,15662.940223567513,15733.929363957568,15701.29581705282,15656.413514186564,15694.679700694049,15723.20052661902,15706.302607810809,15655.184168241522,15665.845950346704,15718.0596253943,15763.254852682932,15773.871931299202,15790.479277429497,15856.975717184034,15975.328204074885,16063.483484206616,16248.734742252202,16526.74573978731,16462.484474478304,16216.771747681112,15917.213668491087,15701.988721130934,15533.031884793269,15450.10691286408,15519.106747997612,15530.640248136551,15506.433308891454,15467.273052605755,15465.820189216161,15459.740514724317,15505.293369924233,15515.59752411813,15447.87173841855,15402.09536577408,15415.059377558158,15429.163328309456,15441.792063926705,15449.950450652892,15462.78035197024,15470.044668918214,15446.351819795587,15410.05258680017,15414.969970580338,15401.938903562894,15372.94869100436,15290.358995242,15306.049919849625,15311.146117585437,15279.004309058704,15206.361139578956,15234.993724226204,15230.836299757517,15212.396110581889,15257.680744848341,15571.543940489762,15467.250700861301,15301.579570958564,15220.263924630157,15162.28349951309,15175.605139208454,15128.577068874487,15103.923094740285,15069.143780367825,15038.007800341584,15029.156509537283,15057.096190106415,14984.229503182114,14963.844712238875,14962.369497104824,14957.34035460238,14933.826319435397,14885.904179323219,14842.74296078002,14819.586553524323,14772.402020979169,14746.58575613329,14751.503139913457,14772.156151790161,14672.221502330483,14645.555871195302,14658.385772512649,14607.848478299198,14478.565988369703,14410.66138871448,14353.619736864537,14309.251524120751,14306.323445597107,14290.856038434034,14337.258259923252,14364.549739903181,14373.870417341044,14389.404879737483,14414.148260849508,14439.629249528558,14455.409581114005,14445.61951704258,14515.692235909968,14546.537643258293,14542.7825501898,14536.59111697568,14528.276268038306,14595.532667104324,14563.346155088682,14553.444332294981,14605.479193386936,14653.311926521294,14641.130225793151,14644.304173505805,14664.890130149142,14681.318662323793,14729.889003025175,14787.712965931054,14821.575858780845,14799.671149214644,14852.957707996096,14865.139408724239,14869.453295404113,14912.5698104584,14885.591254900844,14913.32976976988,14889.99454855854,14915.833165148875,14889.23458924706,14897.415327717701,14868.447466903624,14857.897443520718,14878.170475741683,14887.558208412911,14848.12973119375,14862.591309856334,14931.367627545313,14913.396825003247,14869.90033029322,14878.684565864154,14941.090636383373,14934.09454036886,14976.428744367213,15047.507291735088,15177.437982253789,15338.124673142991,15539.335076729665,15750.760227532415,15788.668786128615,15702.43575602004,15584.262083084832,15518.346788686133,15534.529451671775,15480.661747534485,15358.062429197125,15103.878391251374,14876.047060018429,14702.619874789701,14521.727206912901,14476.017889501798,14666.052420860819,14817.373730823247,14946.723275986109,14985.436497382701,14983.514247359544,15030.698779904698,15058.347887795913,15089.975606200172,15117.401196646833,15151.197034263258,15137.4730631677,15124.240830450159,15179.404935765855,15172.207674051248,15194.224142339724,15211.367930336944,15174.644014196876,15192.77127895013,15254.305631435589,15212.82079372654,15179.784915421596,15189.440869026288,15175.649842697365,15218.63224728492,15256.49610239221,15264.654489118397,15263.983936784738,15236.088959704515,15233.652619558887,15240.291087662112,15301.758384914207,15269.415410687378,15291.141306297935,15279.227826503256,15315.325893798577,15295.611655188997,15321.249106079234,15301.154887813913,15308.665073950897,15327.775815460183,15381.218836452823,15338.191728376358,15331.93323992887,15380.347118419066,15411.48309844531,15383.118734731524,15365.639670567474,15432.829014400128,15438.215784813856,15419.61913342704,15471.564587541174,15489.602445316606,15465.06022990468,15490.004776716803,15498.990177987836,15490.45181160591,15507.908524025504,15494.095145952124,15415.796985125184,15073.837646703441,14853.31533590738,15022.272172245048,15078.352699083413,15095.049452191526,15065.232225088148,14953.518206300523,14826.40383558319,14778.995785593484,14674.546083753836,14661.783237669855,14643.007772327397,14585.40732686607,14610.485984144925,14643.208938027496,14692.718051996,14764.511855186447,14919.588258217367,14950.500720799057,14930.741778700565,14928.707769955132,14957.362706346836,14937.067322381417,15038.4995387196,15040.846471887407,15063.242919831626,15126.654818851332,15082.286606107547,15052.69289644872,15152.873415097407,15222.364988608955,15207.29991284608,15218.654599029374,15220.912125219362,15267.940195553327,15310.98965537425,15272.522303166665,15268.54369265362,15312.397815274933,15312.59898097503,15355.223757651302,15317.628123477474,15361.526949587698,15330.525080028186,15339.644591765953,15305.535829727154,15364.276214155701,15404.799926853173,15414.545287435687,15416.735758392306,15428.828052142628,15410.76784262274,15393.28877845869,15423.173060795434,15465.44020956042,15888.37991814374,15984.917102446212,15751.855463010725,15732.20827963451,15754.872948512191,15791.239236740976,15836.143891351689,15969.047363882944,16147.280174169562,16368.048354154631,16655.491787849878,16724.6480851946,16482.824561932634,16151.214081193697,15794.591998409272,15516.692759596439,15429.878584132026,15467.809494472684,15513.049425250225,15458.555872268185,15396.865057571538,15402.005958796259,15366.913720001427,15350.149911659946,15413.695921146384,15465.01552641577,15439.445130758899,15308.061576850603,15311.526097241176,15375.317975916621,15394.33931044809,15395.434545926399,15430.929116121426,15470.782276485239,15468.949433439904,15409.918476333438,15427.129319564025,15498.319625654178,15520.291390453744,15508.444965892431,15459.449942046398,15483.2545498913,15508.892000781538,15500.800669288716,15455.20311059989,15433.656028944974,15446.86590991806,15427.084616075113,15414.3888252245,15452.520901265252,15445.480101761832,15458.980555412836,15397.535609905197,15389.690147601385,15422.882488117515,15452.67736347644,15443.110816849568,15451.045686131203,15486.450849348408,15485.132096425546,15440.2944970482,15388.594912123075,15414.433528713409,15450.196319841902,15407.57154316563,15359.80586526464,15377.016708495226,15373.775705549206,15373.75335380475,15322.79137644665,15342.41620807841,15354.508501828732,15296.393966244934,15247.15307320989,15300.998425602726,15308.910943139905,15318.969228144793,15304.351187271022,15280.4571724483,15281.015966059682,15230.38926486841,15220.979180452727,15241.721599307251,15258.150131481903,15189.306758559556,15178.063831098538,15087.405155587812,15071.401306557813,15084.924111953273,15036.107902062882,14885.099516522827,14836.5515275659,14787.310634530859,14726.871517523708,14666.879435405664,14730.045465236362,14816.211440111572,14828.571954795356,14855.930490008652,15047.663753946275,15281.530056182153,15533.635381893562,15722.082939396256,15848.079722890821,15767.993422507458,15548.745161145349,15367.13723744598,15199.230933097713,15054.257518560591,15048.379009768845,15074.88817869284,15123.525574627589,15282.31236723809,15372.501656115253,15333.050827151637,15282.044146304626,15340.98569643327,15339.979867932781,15334.481338796777,15347.981792447781,15368.679507813396,15354.553205317641,15333.564917274109,15269.214244987279,15337.409417320421,15379.877731785506,15379.453048640855,15298.115050567993,15285.106335295002,15323.03724563566,15280.524227681664,15248.896509277405,15233.652619558887,15246.370762153956,15221.96265720876,15160.025973323105,15174.174627563314,15226.768282266652,15225.740102021708,15223.192003153803,15248.87415753295,15329.742768972252,15348.719400014807,15368.388935135477,15433.00782835577,15578.160056848534,15685.940168612024,15810.238219527988,15938.090197812344,16237.40240781336,16450.503939450256,16295.852219563989,15935.832671622358,15563.966699119414,15366.109057201036,15185.261092813147,15144.782083604585,15214.877154216429,15284.301672494612,15265.101524007503,15182.824752667519,15135.99784803365,15144.938545815772,15130.566374131009,15151.3758482189,15121.178641459781,15127.101853740438,14829.398969340202,14599.287760172816,14793.524419489435,14944.376342818303,14985.369442149335,14975.579378077911,14963.732953516597,14933.781615946487,14941.805892205943,14958.323831358413,14970.125552430816,14970.684346042199,14947.81851146442,14902.310359753414,14854.99171674153,14865.385277913247,14921.264639051515,14908.457089478623,14847.168606182171,14809.684730730622,14876.002356529518,14868.447466903624,14825.26389661597,14792.004500866475,14852.220100429071,14873.476609406069,14842.474739846557,14824.213364626572,14829.287210617926,14902.779746386976,14942.76701721752,14862.747772067522,14867.75456282551,14898.354100984825,14883.289025221948,14804.744995206,14811.629332498233,14837.17737641065,14803.493297516501,14749.11150325674,14769.675108155621,14828.817823984364,14819.31833259086,14769.7868668779,14771.329137245315,14809.21534409706,14843.592327069322,14773.676070413123,14745.646982866167,14784.382556007215,14763.997765063974,14741.087226997284,14694.059156663317,14890.75450787002,15398.452031427865,15166.127999559403,14940.330677071892,14864.22298720157,14864.200635457115,14845.335763136836,14707.514906825412,14736.929802528597,14787.26593104195,14765.137704031195,14661.582071969757,14638.55977518079,14715.047444706852,14733.778206560399,14641.33139149325,14597.343158405205,14645.734685150945,14638.448016458515,14630.84842334371,14553.600794506168,14596.158515949073,14616.878583059142,14574.991413949898,14526.82340464871,14596.60555083818,14626.735702363934,14575.93018721702,14570.386954592104,14638.336257736239,14683.62089200269,14600.338292162216,14532.21017506244,14563.524969044325,14583.954463476475,14543.006067634353,14474.676784834479,14512.741805641868,14637.41983621357,14612.519992890358,14492.28995946526,14476.844904046644,14513.412357975527,14529.63972445008,14553.377277061616,14480.085906992665,14514.887573109578,14530.086759339185,14468.440648131449,14430.308572090695,14475.839075546155,14499.017834546308,14511.624218419101,14454.113179935597,14510.998369574354,14563.189692877495,14511.11012829663,14434.153072137007,14451.43097060096,14501.945913069954,14497.676729878991,14446.737104265345,14437.863461716588,14472.396906900038,14460.461075360905,14369.154199260975,14336.543004100682,14419.624438241059,14350.915175785445,14213.206078196297,14197.0010634662,14246.733694879258,14124.22378351972,14037.789587711048,13878.086373577878,13869.16802754021,13895.297216808465,13819.994189738536,13765.835912923327,13860.160274524722,13973.058935768478,14063.717611279204,14081.621358587905,14136.450187736773,14227.511194647694,14237.0106860412,14223.420825412373,14271.499427735738,14286.318634309608,14247.538357679648,14209.808613039091,14226.572421380572,14336.990038989788,14360.638184623504,14327.714065040836,14347.338896672594,14450.536900822748,14445.820682742678,14402.212429310373,14372.708126629368,14455.230767158362,14523.314180769228,14587.55309433378,14621.997132539409,14687.62185426019,14736.303953683848,14618.84553657121,14589.721213545945,14535.250012308361,14674.277862820372,14824.414530326669,14999.562799878455,15162.216444279724,15241.654544073886,15047.619050457366,14678.85997043371,14357.441885166394,14187.792144750614,14030.659381229805,13973.48361891313,13944.605165076873,14087.477515635195,14187.635682539427,14205.740595548225,14171.587130020516,14227.086511503043,14264.503331721227,14326.440015606882,14420.250287085806,14679.083487878263,15097.999882459628,15173.86170314094,14772.089096556796,14407.42038576846,14100.732100097192,13720.350112956778,13470.345851224167,13426.379969880578,13551.549738830297,13557.2494336664,13434.404246140033,13286.994491457282,13384.626911238065,13384.962187404893,13325.707712853875,13330.222765233848,13501.280665550312,13584.339747946233,13590.039442782336,13590.397070693622,13681.815705515828,13734.543470685896,13735.169319530645,13692.455135876553,13738.790302132405,13860.406143713732,13852.985364554568,13787.092421900323,13834.254602701021,13947.846168022892,13920.353522342864,13852.158350009722,13804.415023853187,13882.288501535477,13893.352615040854,13803.2080296526,13747.663944681162,13817.580201337363,13807.857192499303,13734.096435796791,13695.830249289305,13805.979645965059,13779.470477041064,13746.1440260582,13694.04210973288,13752.424866250143,13771.334442059333,13706.559086627853,13058.067924746028,12833.455244714647,13178.007385493207,13287.15095366847,13271.370622083025,13321.393826174,13383.531675759754,13349.98170733234,13277.696165763875,13229.371694251502,13304.96529399935,13349.489968954322,13293.275331649225,13216.18416502287,13304.115927710049,13276.399764585467,13166.607995821,13123.4467772778,13271.996470927772,13309.078014979126,13339.11875952706,13240.033476356683,13283.14999141097,13326.959410543372,13257.467837031823,13208.226943996782,13306.686378322409,13352.574509689155,13279.618415787032,13239.117054834016,13250.807017184141,13356.374306246556,13394.260513098301,13350.093466054615,13299.578523585622,13392.561780519698,13429.218641426402,13320.566811629154,13263.502808034757,13384.381042049055,13421.50728958932,13347.053628808693,13253.310412563136,13366.566701718177,13358.83299813664,13288.82733450262,13209.322179475092,13307.625151589531,13377.362594290089,13354.78733239023,13247.767179938219,13277.360889597046,13356.664878924475,13347.59007067562,13261.267633589225,13303.44537537639,13999.568104692473,14018.67884620176,13582.328090945255,13387.711451972897,13377.250835567813,13269.850703460063,13038.934831492286,12827.86730860082,12813.115157260318,12772.211464907106,12660.810370541856,12620.666637500124,12801.872229799299,12903.12563218184,12939.290754710526,12937.480263409647,13082.118401779939,13200.090909015049,13235.38431350998,13175.928673258863,13294.884657250006,13457.38183944009,13437.712304319419,13401.346016090634,13440.752141565341,13522.62658150513,13547.973459717448,13492.876409635117,13489.680110178007,13646.142321365158,13652.84784470175,13618.381454751667,13602.668178399585,13734.565822430352,13813.668646057684,13759.130389586735,13714.896287309683,13837.182681224667,13904.640245990784,13839.440207414653,13822.966971751091,13954.484636126119,14018.745901435126,13992.169677277767,13981.753764361592,14057.88380597637,14125.095501553476,14145.837920408001,14052.83231172947,14140.361743016452,14306.54696304166,14333.41375987694,14295.125221624998,14328.116396441032,14491.999386787342,14543.520157756826,14529.438558749982,14577.763030262357,14719.696607553555,14808.321274318849,14885.345385711837,14934.295706068959,15147.687810383775,15358.956498975338,15516.089262496145,15678.944072597513,16123.229697135652,16732.091216098215,16980.642614441233,16565.794237350732,16140.060560710499,15736.499814569928,15271.963509555282,14994.243084698091,15043.3498672664,15142.591612647966,15120.955124015229,14980.385003135802,14903.204429531626,14929.19950833315,14985.660014827254,14965.34227911738,14938.028447392995,15066.998012900116,14998.86989580034,14943.191700362171,14906.4677842221,15016.192497753203,15124.799624061541,15118.585839102965,15114.584876845465,15302.093661081037,15549.236899523366,15739.964334960501,15823.559859223351,15867.883368478224,15794.547294920361,15528.74034985785,15256.20552971429,15166.843255381973,15162.48466521319,15150.325316229502,15161.635298923888,15201.667273243342,15353.70383902834,15440.786235426216,15384.191618465378,15375.630900338996,15484.01450920278,15504.3098931682,15436.070017346146,15417.741586892795,15540.296201741243,15539.223318007389,15508.042634492236,15418.300380504177,15494.184552929944,15552.433198980476,15482.382831857543,15402.43064194091,15435.91355513496,15502.074718722668,15444.787197683716,15310.922600140882,15289.017890574682,15430.169156809945,15463.29444209271,15362.577481577096,15349.926394215394,15453.303212321189,15466.557796783185,15438.416950513954,15391.254769713256,15546.688800655462,15558.758742661328,15470.82697997415,15448.005848885281,15564.74901017535,15650.535005394819,15587.03369939729,15512.334169427655,15611.486507831396,15685.180209300544,15638.509766877864,15545.861786110616,15637.638048844106,15734.01877093539,15753.576547333783,15663.05198228979,15756.1693496906,15914.978494045556,15906.797755574913,15871.437295846617,15926.646104651227,16094.865333421867,16118.692293011225,16039.477710661617,15991.26499787152,16081.476638493139,16078.392097758306,15962.34184054635,15822.50932723395,15622.170641681034,14614.866926058165,14367.008431793265,14511.780680630289,14705.190325402062,14871.308490193904,14936.24030783657,14917.643656449754,15085.549960798022,15289.286111508145,15339.286963854667,15361.817522265617,15509.719015326384,15625.054016715769,15673.57965392824,15670.405706215586,15727.380302832164,15881.942615740612,15941.130035058266,15977.608082009327,15996.428250840694,16136.23841240864,16195.91757010431,16178.572616406993,16188.049756056042,16372.362240834504,16461.59040470009,16491.832314948122,16443.083160291095,16566.80006585122,16663.069029220227,16637.85626147464,16597.310197032715,16724.78219566133,16816.178478739082,16788.32820514777,16710.387672232115,16757.46044605499,16857.216281559024,16869.062706120338,16729.78898641932,16742.21655633647,16900.466907080045,16936.900250542196,16810.501135647435,16777.867588742683,16919.890573011708,16940.476529655043,16918.05772996637,16883.948967927572,16929.859451038774,16915.308465398368,16885.15596212816,17302.306568897555,18417.70332070629,18564.040191655182,18834.898630964595,19215.817059971938,19122.207954193113,18547.4775490138,17850.460749919504,17109.232200292612,16675.273081692827,16594.38211850907,16560.206301236904,16411.5224971202,16224.326637307006,16205.037081842076,16136.976019975666,15972.422477295695,15857.80273172888,16011.515678348027,15981.206712866631,15823.51515573444,15678.854665619692,15771.904977787135,15784.89134131567,15752.50366359993,15670.539816682318,15733.147052901633,15776.509437144929,15718.506660283407,15581.378708050099,15616.1356706781,15679.927549353546,15637.347476166187,15527.466300423897,15573.935577146482,15624.495223104386,15585.200856351956,15487.076698193157,15462.95916592588,15543.157225031522,15523.755910844317,15421.586086939107,15397.937941305394,15569.442876510964,15597.918998947025,15526.549878901229,15428.984514353815,15567.40886776553,15634.553508109273,15590.207647109944,15504.600465846119,15663.946052068002,15728.944924944035,15705.654407221606,15591.012309910335,15652.166682740055,15742.624192550684,15759.343297403253,15647.85279606018,15678.38527898613,15757.890434013658,15708.448375278518,15609.85483048616,15624.182298682012,15765.557082361829,15778.78931507937,15760.192663692555,15758.136303202666,15881.406173873685,15917.86186908029,15876.287624393419,15796.156620521144,15925.014427305989,16008.677006802203,15977.339861075863,15925.506165684006,16111.495031296616,16240.866928203934,16243.705599749757,16173.565825649004,16283.491704880204,16486.669061978944,16675.340136926192,16792.999719738928,17019.467594560097,17176.1533231918,17064.528711381998,16829.835394601276,16668.522854867322,16650.77556976981,16539.307420171193,16456.225986030815,16442.077331790606,16639.554994053244,16749.27970758435,16708.82305012024,16653.52483433781,16753.88416694214,16831.176499268593,16796.441888385045,16704.598570418188,16765.84235022573,16837.5243946939,16765.5070740589,16581.61927242509,16521.94011472942,16454.191977285383,16254.45678883276,15981.0726023999,15678.38527898613,15441.345029037599,15156.38263897689,14914.335598270369,14882.32790021037,15065.299280321513,15158.640165166875,15219.705131018774,15364.097400200058,15616.001560211369,15755.342335145753,15803.689158402582,15865.178807399132,16070.814856387957,16191.603683424437,16212.122584834407,16228.506413520148,16405.040491228163,16588.28009227277,16716.57910544623,16640.15849115354,16738.12618710115,16914.079119453327,16989.672719201175,16965.10815204479,17080.75607785655,17262.676925978296,17337.2423454812,17282.23470237669,17333.19667973479,17513.619960978027,17506.109774841043,17463.999088287244,17440.59681184254,17677.838227491167,17982.492504417005,18171.297689830983,18274.205121303217,18508.719624128298,18685.14194311404,18258.111865295396,17328.368702932443,17899.54518074336,18403.778183910632,18646.562832184176,18746.43042641049,18949.563080020318,19199.924969664215,19330.235639838655,19360.566957064504,19534.99997079372,19843.632858232602,19967.6626882151,20026.783052299386,20259.308249867947,20708.757127375262,21240.750997156025,21987.701593363476,23022.27443722182,23460.92742215722,22842.499356567783,21896.6182347081,20952.972287293946,20420.486679135167,20126.762405247977,20073.16292204415,20035.38847391468,20027.29714242186,19941.824071624767,19754.672915300478,19570.24867179974,19686.76831564526,19837.17320408502,19810.954607838943,19644.36705641354,19637.102739465565,19787.664090116512,19826.332608024193,19747.14037741904,19778.701040589935,19934.068016298774,19951.70354267401,19900.94273101601,19884.402440119084,20024.793747042866,20078.72850641352,20048.643058376678,19951.345914762725,20018.401148128647,20108.612788750266,20057.851977092265,19928.569487162767,20001.212656642518,20082.125971570727,20026.96186625503,19872.399553346582,19857.423884561525,20382.823989727975,21452.801996803522,21008.24815133192,20677.3305746711,20619.283094320668,20450.683885894287,20258.168310900728,20233.022598388507,20387.383745596857,20365.479036030654,20267.131360427305,20214.04596734595,20347.485881744135,20345.92125963226,20253.988534687585,20130.69631227211,20200.076127061384,20226.29472330746,20132.864431484275,20015.137793438174,20115.430070809136,20189.727269378578,20101.460230524568,19949.37896125066,20033.130947724694,20142.743902533522,20139.525251331957,20045.223241475018,20072.268852265937,20241.91859268172,20292.54529387299,20171.957632536607,20112.50199228549,20229.267505320015,20213.174249312193,20123.14142264622,20043.01041877394,20145.202594423605,20117.687596999123,19956.03978109834,19783.10433424763,19873.628899291623,19857.915622939545,19647.764521570745,19298.540866201027,19173.594614695863,19006.3365109368,18792.363261266146,18583.59796805358,18613.102270734584,18731.678275069986,18731.588868092163,18718.89307724155,18865.654631335095,19117.759957046506,19263.493330895108,19280.257139236586,19373.106285703932,19620.40598635745,19795.66601463151,19852.238279847894,19914.28672245583,20157.764274807487,20318.808593607973,20338.902811873297,20347.59764046641,20497.24256959469,20650.642591791464,20710.366452976043,20719.485964713807,20922.260990412356,21071.45888465153,21130.176917335622,21101.209056521544,21237.01825583199,21395.112144364375,21441.737883298145,21386.685536704725,21453.450197392725,21625.67038842087,21659.041542892643,21590.46639090376,21618.160202283885,21784.412477542457,21794.761335225267,21757.702142918366,21788.480495033324,22092.911254514605,22340.07684470139,22468.912299741783,22526.78096613657,22685.43364828034,22645.62519140544,22505.524457159576,22349.933964006184,22503.021061780582,22777.388724969474,23082.467685039963,23491.817532994453,24266.126664415202,25041.642790036534,25044.570868560182,24511.392356323286,23848.01493263423,23304.912245859177,22743.59288735305,22309.410251308713,22156.4796157455,22213.387157128713,22114.167763491605,21836.626152590055,21650.436121277347,21674.106618655518,21680.074534425086,21593.215655471762,21482.663927395814,21631.928876868355,21643.596487474024,21591.18164672633,21480.67462213929,21620.574190685056,21745.92277359042,21732.91405831743,21627.57028669957,21749.677866658913,21903.793144678253,21843.912821282487,21737.898497330963,21782.154951352473,21935.01853168232,21978.559729881257,21892.594920706146,21869.79614136173,21993.289529477304,22014.97072159895,21936.180822393995,21864.387019203547,22001.000881314383,21997.648119646088,21929.25178161285,21844.98570501634,21958.756084293855,22017.16119255557,21966.02040124183,21872.70186814092,21969.619032099134,22073.778161260863,22012.534381453323,21902.04970861074,21962.35471515116,22100.64495809614,22085.959861989006,21934.727959004398,21319.74206206108,20283.82811353542,20654.978830215794,20875.43408577849,21029.616419031194,21320.45731788365,21404.209304357686,21324.257114441054,21301.637149052283,21486.419020464306,21541.136090890897,21447.14700545633,21330.157974977254,21473.38795344686,21534.02823615411,21455.037171249052,21325.777033064012,21394.66510947527,21475.176093003287,21409.260798604584,21255.346686285342,21271.618756248805,21354.476672944627,21272.624584749294,21014.30547407931,20899.126934901113,20861.933632127482,20680.683336339396,20352.49267250212,20087.31157628436,19864.97877418742,19489.17889466034,19090.177904388656,18796.565389223742,18823.968627925948,18843.504052579887,18823.63335175912,18823.119261636646,19076.11865712627,19262.509854139073,19337.67877074227,19371.988698481167,19601.719927992814,19791.39683144055,19829.461852247936,19814.553238696248,19971.842464428242,20173.209330226106,20259.57647080141,20227.166441341215,20303.743517845098,20519.14727916089,20639.46671956381,20632.783547971674,20911.353339118166,22523.048224812537,22601.078164706014,22100.4661441405,21857.614440633588,21912.264455826815,21898.071098097695,21764.40766625496,21630.297199523116,21699.073517212095,21735.953895563354,21699.81112477912,21576.49655061919,21676.63236577897,21759.713799919344,21711.881066784987,21619.94834184031,21722.05111051215,21872.27718499627,21895.411240507514,21767.40280001197,21798.06939340465,21969.06023848775,22031.756881684887,21948.407226611045,21947.691970788477,22155.33967677828,22267.16545428818,22255.922526827162,22255.58725066033,22555.234736828177,22778.260443003233,22962.908203948522,23190.62777645919,23870.970174189828,24863.611145450013,26069.174834391455,26438.9397429156,25890.539692704642,25098.997366308853,24081.05422032526,23105.489981828927,22701.951587432814,22710.02056718118,22724.169221421387,22529.731396404673,22358.829958299397,22296.17801859117,22145.23668828448,22013.003768086885,21997.581064412723,22140.118138804217,22090.273748668882,21911.884476171075,21775.002393126775,21954.35279063616,22057.483739552947,22000.620901658644,21909.582246492177,22024.58197171473,22105.60704536522,22067.027934435362,21990.227340486927,22152.72452267701,22251.56393665838,22160.927612892105,21951.715284790433,21993.803619599774,22117.833449582275,22042.7539399569,21854.7087138544,21833.720425810865,21942.260496885836,21884.19066479095,21722.319331445615,21664.316554584093,21823.349216383605,21857.94971680042,21755.802244639664,21644.33409504105,21780.50092226278,21800.12575389454,21663.84716795053,21507.317901530016,21634.61108620299,21690.982185719276,21639.03673160514,21587.27009144665,21794.64957650299,22056.120283141172,22074.26989963888,21923.932066432484,21864.47642618137,21818.990626214818,21617.512001694682,21273.11632312731,21174.165150423665,21322.334864417895,21356.17540552323,21275.284442339474,21298.060869939432,21519.521954002616,21586.51013213517,21585.83957980151,21573.434361628817,21751.287192259693,21804.03730917422,21752.67300041592,21702.470982369305,21859.693152867934,21895.85827539662,21879.183874032962,21778.73513445081,21911.973883148898,22023.5984949587,21972.614165856143,21843.197565459915,21911.035109881774,22038.395349788112,22001.380860970123,21857.56973714468,21845.075111994163,21917.96415066292,21853.32290569817,21675.090095411553,21561.7891027676,21684.746049016245,21623.14464129742,21368.8935481183,21135.988370894,21094.615291907226,20794.699584805916,20317.422785451745,19861.64836426358,19681.35919348707,19571.16509332241,19376.481399116685,19217.448737317176,19433.008960844156,19651.944297783888,19720.362987561584,19686.36598424506,19882.748411029388,20159.66417308619,20250.747531741566,20204.27825501898,20320.619084908856,20571.897396075416,20653.883594737483,20620.110108865512,20671.161493201434,20930.0393974828,21082.254777223443,21076.286861453875,21056.617326333206,21285.298023855452,21187.28562441893,19692.825638392645,19583.950291150846,20264.806779003953,20621.898248421938,20740.988342879813,20755.986363409327,20944.500976145384,21106.729937402004,21064.26162293692,20948.591345380708,21022.441509061042,21178.076705703344,21163.123388662745,21027.69416900804,21098.728012887004,21304.11819268682,21330.850879055368,21225.73062488206,21213.459517176096,21450.164490957795,21528.283837829094,21485.793171619556,21482.95450007373,21757.54568070718,21909.626949981088,21959.314877905235,22010.63448317462,22363.94850777966,22758.277983460186,23114.073051699765,23530.016664268576,24626.459136779205,25869.774922105662,25918.769945951695,24953.84513781609,24094.711136187452,23352.074426659874,22666.568775960062,22290.03128886596,22311.019576909493,22473.606166077396,22382.14282776628,22101.494324385443,21898.18285681997,22019.30696002328,22068.391390847137,22012.780250642332,21922.926237931995,22031.64512296261,22013.87548612064,21949.927145234007,21891.164409061006,22107.395184921646,22266.673715910165,23336.025874140963,23925.55313414969,23522.59588510941,23317.988016365533,23084.389935063118,22786.530588451697,22727.1643551784,22804.121411338023,22694.419049551376,22467.884119496837,22413.837601403906,22529.776099893585,22480.334041158443,22374.029144529002,22235.53773588392,22344.726007548095,22348.905783761238,22294.83691392385,22145.303743517845,22280.97883236156,22354.13609196378,22251.29571572491,22137.368874236214,22318.440356068655,22414.91048513776,22313.79119322195,22110.23385646747,22230.463889892566,22348.36934189431,22274.31801251388,22089.08910621275,22130.41748171061,22288.69018419864,22260.5046344405,22066.26797512388,22032.427434018548,22199.618482544243,22180.61949975723,22014.59074194321,21905.469525512402,22087.055097467317,22152.411598254635,22056.969649430474,21968.657907087556,22171.075304874816,22238.21994521856,22167.81195018434,22062.04349542183,22209.788526271408,22297.966158147592,22274.474474725066,22159.698266947064,22266.383143232244,22384.66857488973,22350.895089017762,22208.313311137357,22272.373410746266,22435.205869103178,22455.97063970216,22376.845464330374,22507.938445560747,22815.006710887756,22925.401976752517,22786.105905307046,22624.882772550915,22624.748662084185,22493.2086459647,22179.367802067736,21989.78030559782,22182.809970713854,22269.17711128916,22200.11022092226,22107.126963988183,22293.786381934453,22402.728784409617,22356.058341986936,22213.364805384255,22297.60853023631,22372.151597994758,22346.581202337886,22220.182087443125,22287.974928376072,22424.097052108893,22374.632641629298,22207.687462292608,22192.890607463196,22358.494682132565,22355.18662395318,22236.54356438441,22201.96541571205,22339.965085979115,22341.105024946337,22245.104282510794,22151.338714520778,22322.03898692596,22413.27880779252,22330.64440854125,22228.228715447036,22360.439283900178,22439.229183105133,22367.90476654825,22254.670829137664,22377.180740497202,22453.646058278806,22380.913481821237,22184.598110270275,22162.067551859327,22208.11214543726,22061.529405299356,21831.7534722988,21667.37874357447,21672.586700032556,21335.567097135438,20780.707392776894,20311.097241770894,20166.012068511496,20003.738403765965,19823.002198100352,19738.691418014936,19971.261319072404,20154.679734072655,20236.934153668186,20306.24691322409,20583.87793110346,20783.12138117807,20834.530393425273,20772.750171750806,20928.85475502667,21123.94078063259,21070.564814873316,19654.22417571833,19353.21323313871,20117.5981900213,20463.33497325599,20582.06743980258,20776.371154352564,21094.525884929408,21279.93360518618,21333.80130932347,21353.9402310777,21616.729690638746,21746.749788135265,21738.367883964525,21684.790752505156,21854.21697547638,21964.72400006342,21907.52588600229,21778.39985828398,21934.660903771033,22017.272951277846,21979.051468259273,21819.79528901521,21883.251891523825,22022.36914901366,21994.83179984472,21849.791330074233,21902.742612688853,22093.5147516149,22123.46608918501,22051.13584412764,22082.696507298533,22280.285928283447,22387.686060391195,22363.546176379466,22460.508043826587,22656.53284269963,22814.93965565439,22916.997720837324,23070.62126047865,23517.410280395783,23922.937980048417,24442.727797356583,25235.007731319398,26742.811708785503,27373.354419869713,26567.484625278074,25442.946009987118,24475.853082639347,23688.289366756602,23169.170101782096,23374.42617111518,24941.395216154484,24739.17898406732,24081.05422032526,23468.191739105194,23117.49286860143,23146.48308115996,23080.366621061163,22870.371981903554,22721.77758476467,22778.3274982366,22738.49668961724,22619.987740515204,22549.89266990336,22730.181840679867,22798.533475224194,22730.807689524616,22593.478571591208,22706.243122368232,22811.27396956372,22761.74250385076,22612.343443911486,22717.150773662423,22854.077560195634,22811.318673052632,22663.23836603622,22617.19377245829,22698.77763972016,22638.316170968556,22486.905454028303,22453.1990233897,22562.14142586487,22512.632311896363,22384.37800221181,22351.967972751616,22544.617658211908,22533.866469128905,22415.513982238055,22301.788306449453,22439.38564531632,22461.290354882523,22315.84755371184,22196.846866231786,22319.960274691617,22397.967862840636,22333.639542298264,22158.714790191032,22187.369726582736,22279.07893408286,22231.78264281543,22069.777199003365,22075.834521750752,22172.170540353127,22131.445661955557,22002.520799937345,21968.210872198448,22110.591484378754,22102.455449397024,22002.923131337542,21995.770573111844,22170.7847321969,22277.424904993168,22302.212989594103,22385.42853420121,22698.39766006442,22790.665661175928,22649.11206354047,22404.405165243767,22363.94850777966,22304.38110880627,22158.535976235387,22017.675282678043,22125.14247001916,22291.64061446674,22292.489980756043,22197.20449414307,22270.115884556282,22443.05133140699,22463.570232816965,22336.79113826646,22308.158553619214,22445.174747130248,22425.080528864924,22307.6668152412,22213.364805384255,22317.233361868068,22219.39977638719,21994.675337633533,21700.593435835057,21672.251423865728,21540.13026239041,21116.56470496234,20584.79435262613,20337.69581767271,20168.202539468115,19926.490774928425,19710.550571745705,19826.01968360182,20025.553706354345,20138.36296062028,20148.734170047544,20301.597750377387,20587.856541616507,20716.513182701252,20728.314903773655,20791.615044071084,21014.618398501683,21114.687158428093,21096.828114608303,21147.074836143835,21385.120914592855,21538.096253644973,21528.01561689563,21536.039893155088,21791.7438497238,21960.96890699493,21996.4411254455,21947.468453343925,22163.788636182384,22346.223574426604,22373.269185217523,22307.84562919684,22402.795839642986,22564.42130379931,22555.92764090629,22437.262229593067,22461.4021136048,21480.629918650382,20656.811673261127,21081.40541093414,21386.685536704725,21744.291096245182,21910.364557548113,21867.225690749372,21871.94190882944,22072.571167060276,22155.920822134118,22138.061778314328,22082.048306709326,22265.26555600948,22390.077697047913,22390.547083681475,22333.19250740916,22526.646855669842,22730.24889591323,22796.722983923315,22777.74635288076,23000.570893355714,23325.542905991424,23536.43161492725,23769.761475296196,24367.044790630913,25412.055899149884,26868.003829479676,27611.691070996654,26871.669515570346,25922.860315187016,24779.836807231524,23655.521709385124,22995.966433997924,23051.108187569167,23139.95637177901,22992.434858373985,22666.367610259964,22550.540870492565,22443.699531996197,22356.19245245367,22234.82248006135,22340.99326622406,22394.4362872167,22276.88846312624,22100.868475540698,22168.191929840083,22335.98647546607,22376.510188163542,22295.93214940216,22295.596873235332,22471.393343376323,22526.80331788103,22446.91818319776,22419.894924151293,22759.350867194044,24209.397936987632,24229.08982385276,23606.929016939284,23461.910898913255,23288.95310031809,23062.775798174836,22767.911585320424,22798.622882202017,22807.965911384334,22693.457924539798,22514.062823541502,22567.505844534142,22630.2918947091,22572.62439401441,22434.021226647048,22484.625576093862,22597.591292570985,22547.769254180104,22382.27693823301,22444.05715990748,22624.636903361905,22618.71369108125,22518.332006732468,22477.227148679158,22631.722406354238,22623.675778350327,22470.186349175736,22339.585106323375,22474.522587600066,22527.585628936962,22445.621782019352,22334.265391143013,22460.57509905995,22544.818823912006,22504.02689028107,22392.08935404889,22473.181482932745,22571.909138191837,22581.095705162967,22490.459381396697,22584.224949386713,22740.709512318317,22744.88928853146,22645.33461872752,22768.716248120814,22892.343746703118,22796.164190311934,22678.68342145484,22570.858606202437,22737.22264018329,22752.868861302002,22627.319112696543,22528.323236503988,22684.91955815787,22754.634649113974,22640.685455880815,22498.148381489325,22632.772938343638,22654.096502554003,22270.2052915341,21341.758530349558,20240.331618825392,19178.355536264844,18230.88744054883,17394.082831631047,16901.897418725184,16525.628152564546,16024.45733838765,15516.201021218423,15232.043293958104,15215.771223994641,15116.238905935159,14952.825302222409,14790.685747943611,14746.6304596222,14467.971261497887,14040.695314490238,13637.55925149432,13544.553642815787,13408.677388271975,13219.447519713345,13038.174872180805,13148.03369617864,13189.742051332243,13069.221445229226,12873.800143456478,12917.006065488586,12989.67158671279,12935.26744070857,12781.219217922595,12831.86827085832,12979.345080774438,12942.688219867734,12779.565188832903,12768.411668349705,12976.774630162077,13036.610250068934,12939.558975643991,12850.956660623153,13012.649180012844,13054.893977033375,12943.470530923669,12838.171462794717,13022.416892339814,13090.634416417412,12994.074880370485,12880.729184237622,13013.655008513333,13072.39539294188,12980.037984852552,12782.314453400906,12864.837093929898,12946.599775147411,12863.11600960684,12661.41386764215,12675.204893971073,12790.29402617145,12729.8549091643,12550.951546544022,12499.09549940771,12631.97662019451,12595.20800056553,12453.564995952249,12385.839210252669,12564.608462406215,12590.022395851898,12513.646485048115,12433.627239898115,12631.887213216689,12710.744167655012,12607.993198393966,12521.246078162918,11745.260565908024,10318.638124303596,10698.528373065994,10962.770696016634,11326.254764348838,11633.121863975748,11722.12651039678,11658.200521254603,11750.647336321752,11941.575937458985,11938.31258276851,11804.604447436865,11767.008813263037,11907.288361464545,11876.577064582953,11746.579318830887,11694.4103472722,11833.326439061933,11863.34483186541,11767.701717341151,11634.150044220693,11756.503493369042,11799.105918300858,11724.629905775775,11591.480564055511,11717.007960916515,11769.109877241835,11704.26746657699,11565.329023042801,11659.07223928836,11828.297296559489,11778.56466514643,11583.411584307145,11618.503823101977,11767.880531296794,11748.456865365133,11600.398910093178,11545.704191411041,11711.107100380314,11776.731822101096,11636.809901810873,11557.036525849882,11714.236344604058,11737.973897215594,11621.25308766998,11495.502173364423,11665.21896901357,11751.89903401125,11690.945826881627,11599.840116481795,11760.459752137633,11874.341890137423,11833.326439061933,11685.3578907678,11775.815400578429,11894.458460147198,11848.167997380257,11741.840749006362,13016.203107381238,14239.938764564844,13673.143228667168,13154.202777648305,12840.741913407079,12817.138471262273,12672.120353236241,12399.160849948032,12173.251768738242,12241.290478860197,12196.452879482851,12024.299743688076,11826.375046536334,11909.814108587994,11910.752881855116,11742.332487384378,11532.159034271126,11626.483395872521,11658.312279976879,11549.727505412997,11357.72602054191,11288.927351108474,11357.211930419438,11300.840830903153,11167.40091650497,11124.999657273253,11269.481333432357,11246.883719788042,11094.333063880571,11078.664491017402,11274.242255001338,11318.275191578292,11212.50673681578,11143.104570282052,11341.72217151191,11426.59174520871,11374.020442249828,11281.931255093963,11439.086370359228,11529.007438302928,11483.499286591923,11299.5667814692,11437.678210458544,11528.225127246991,11453.771466466364,11259.780676338754,11311.234392074872,11444.853120428697,11382.603512120666,11101.127994194985,11068.472095545781,11161.25418677976,11099.00457847173,10891.893314348856,10784.068499096455,10891.848610859945,10799.826478937446,10588.66954906816,10426.172366878078,10554.963118429556,10591.105889213788,10449.619346811694,10313.1842986565,10517.300429022363,10564.909644712168,10527.917507638635,10364.258034736877,10521.077873835311,10667.995890140044,10644.548910206428,10521.636667446694,10642.179625294164,10871.061488516509,10904.477346477193,10801.502859771594,10879.242226987151,11127.614811374524,11180.096707355584,11163.958747858853,11233.450321370403,11614.815785266852,11856.907529462282,11934.490434466654,11996.762394519139,12188.920341601413,12231.053379899668,11980.08799315548,11758.04576373646,11864.797695255005,11984.826562980004,11960.194940590256,11851.766628237561,12061.090715061513,12248.957127208369,12221.710350717349,12079.307386792587,12189.769707890715,12376.853808981636,12369.477733311383,12165.786286090171,12165.898044812448,12312.77135762827,12250.722915020337,12098.418128301875,12039.029543284125,12218.04466462668,12194.620036437516,12033.2404414702,11896.738338081639,12048.171406766345,12066.43278198633,11930.087140808957,11784.778450105006,11926.399102973832,11960.485513268175,11889.78694555604,11733.637658791264,11839.093189131403,11974.298891341556,11949.868434651904,11805.342055003888,11917.368998213888,12116.903020966414,12166.926225057392,12083.867142661471,12150.363582416008,12401.485431371384,12460.784609411314,12379.580721805183,12386.107431186132,12641.185538910097,12694.695615136101,12611.54712576236,12525.828185776256,12730.61486847578,12773.507866085514,12700.37295822775,12550.280994210363,12639.710323776046,12710.967685099566,12607.188535593574,12290.978406784345,10734.40292291676,10226.59364063664,10688.179515383186,10822.222926881663,10996.253609210684,11287.608598185612,11335.016648175317,11214.138414161018,11233.003286481297,11454.084390888738,11482.672272047075,11348.04771519276,11287.273322018782,11505.202830458025,11551.247424035959,11469.395335840623,11387.118564500639,11583.635101751697,11694.566809483387,11683.078012833359,11500.218391444492,11688.710652436097,11845.463436301165,11707.866097434295,11549.056953079338,11697.807812429406,11859.410924841277,11804.537392203498,11615.955724234072,11664.235492257536,11818.216659810145,11783.973787304616,11640.475587901545,11625.119939460748,11803.978598592115,11819.870688899839,11705.563867755398,11608.177317163625,11808.136023060802,11861.802561497994,11663.319070734868,11558.95877587304,11755.430609635188,11818.06019759896,11702.568733998387,11529.65563889213,11660.92743407815,11736.141054170259,11665.554245180398,11528.314534224814,11677.758297652996,11823.469319757143,11788.131211773303,11620.716645803053,11683.815620400384,11886.791811799028,11897.92298053777,11817.389645265299,12311.854936105603,14233.322648206075,14124.26848700863,13611.83239362626,13226.220098283304,13274.879845962507,13181.13662971695,12957.887406097343,12698.763632626968,12787.790630792455,12727.195051574117,12507.678569278547,12199.783289406692,12198.643350439472,12161.628861621484,11987.620531036919,11727.043894176948,11772.373231932312,11929.081312308468,11947.856777650926,11864.39536385481,12036.682610116317,12333.759645671804,12455.241376786396,12474.709746206969,12677.41771667215,13085.985253570707,13237.552432722145,13235.451368743345,13294.236456660803,13557.96468948897,13549.471026595955,13365.024431350761,13131.739274470721,13198.258065969714,13137.103693139994,12928.316048182971,12656.652946073169,12710.163022299173,12696.03671980342,12518.250944405907,12238.876490459024,12239.27882185922,12253.762752266259,12054.273433002643,11768.171103974713,11674.338480751334,11775.748345345062,11624.248221426991,11347.175997159005,11266.530903164257,11405.379939720624,11353.233319906392,11225.761321277776,11192.50192552828,11429.855099899185,11518.859746320219,11478.514847578388,11422.948410862495,11602.745843260986,11657.373506709757,11623.756483048974,11478.98423421195,11569.084116111293,11654.892463075217,11617.72151204604,11486.360309882202,11580.684671483597,11713.096405636836,11697.07020486238,11566.536017243388,11615.48633760051,11720.830109218372,11666.560073680886,11560.81397066283,11548.05112457885,11721.165385385202,11723.445263319643,11651.807922340384,11579.567084260832,11746.4228566197,11776.41889767872,11695.997321128527,11613.854660255272,11852.839511971417,12030.535880391108,12116.657151777406,12116.2101168883,12373.21047463542,12438.07523704472,12252.645165043494,11963.391240047365,11864.350660365899,11870.58679706893,11827.179709336724,11736.543385570454,11818.686046443707,12007.871211513426,11975.595292519964,11864.976509210648,11840.836625198917,11988.46989732622,11974.634167508384,11803.688025914196,11709.765995712996,11902.102756750914,11913.792719101039,11864.06008768798,11765.734763829085,11936.949126356736,11976.377603575898,11878.476962861654,11723.266449364,11838.065008886459,11853.934747449726,11761.04089749347,11619.710817302564,11700.154745597214,11754.290670667968,11625.388160394212,11477.397260355623,11508.265019448403,11649.036306027927,11592.642854767188,11477.263149888891,11452.564472265778,11654.624242141754,11671.768030138974,11573.196837091069,11560.90337764065,11768.215807463625,11792.847429853373,11759.766848059518,11685.715518679086,11897.252428204112,11967.28044358259,11951.343649785955,11875.146552937813,12041.845863085493,12182.706556642837,12155.92916678538,12075.440535001819,12207.047606354667,12373.1210676576,12343.326192298675,12223.207917595855,12259.060115702167,11249.521225633767,9986.267684253178,10385.29102626932,10800.944066160211,11086.57700855458,11099.295151149649,11106.090081464063,11069.656738001911,11251.175254723461,11310.675598463487,11214.965428705864,11049.696630203323,11161.231835035305,11133.448616677359,11009.351731461493,10845.37933413736,10937.35676257095,10968.760963530656,10901.593971442458,10751.993745803089,10788.494144498605,10900.9234191088,10860.399706411328,10745.690553866692,10736.615745617837,10890.842782359456,10968.045707708086,10797.792470192013,10735.229937461609,10946.722143497724,10984.228370693729,10904.723215666201,10859.639747099847,11055.083400617052,11101.284456406172,11049.18254008085,10944.531672541103,11145.20563426085,11228.778806779243,11165.389259503992,11046.925013890865,11134.812073089131,11219.547536319202,11200.392091321004,11133.985058544285,11155.040401821185,11274.46577244589,11269.347222965625,11149.653631407456,11184.142373101995,11364.409192134046,11394.025253537327,11283.629987672566,11294.850563389131,11516.4681096635,11525.989952801461,12361.83343670767,13731.749502628983,13435.924164762995,13051.764732809632,12744.204729104607,12455.911929120057,12451.46393197345,12401.798355793759,12263.23989191531,12069.092639576513,12133.935050241358,12208.120490088522,12115.450157576819,11944.235795049168,11991.599141549963,12095.132421866945,12032.592240880997,11893.49733513562,11879.035756473037,12006.530106846109,11959.055001623035,11821.703531945173,11765.913577784728,11905.947256797226,11891.888009534838,11790.925179830216,11699.305379307913,11867.59166331192,11893.385576413344,11774.116667999824,11626.72926506153,11784.42082219372,11849.889081703315,11778.743479102073,11636.049942499392,11771.054479009448,11891.977416512658,11853.3983055828,11716.806795216418,11765.243025451067,11940.883033380871,11901.275742206066,11750.043839221458,11757.106990469336,11904.047358518525,11901.83453581745,11798.569476433931,11769.959243531137,11905.142593996834,11882.544980352519,11780.911598314238,11678.920588364672,11826.509157003065,11821.927049389727,11726.909783710216,11645.929413548638,11774.250778466556,11819.043674354993,11757.934005014182,11620.806052780874,11709.497774779533,11827.984372137114,11786.81245885044,11666.470666703066,11710.928286424672,11789.449964696165,11750.043839221458,11586.3843663197,11619.621410324742,11784.62198789382,11752.56958634491,11618.05678821287,11549.258118779437,11688.97887336956,11683.569751211377,11587.569008775832,11509.963752027006,11673.26559701748,11695.639693217241,11597.381424591711,11470.959957952495,11584.43976455209,11641.324954190846,11593.58162803431,11547.268813522913,11691.594027470832,11855.544073050509,11945.688658438761,11922.375788971876,11940.994792103147,11944.235795049168,11752.547234600454,11465.617891027678,11365.258558423347,11475.899693477118,11485.198019170526,11413.672436913543,11397.959160561462,11600.845944982284,11622.705951059575,11562.400944519157,11511.46131890551,11686.162553568192,11725.41221683171,11650.31035546188,11562.356241030246,11700.042986874938,11771.412106920732,11732.162443657213,11649.93037580614,11749.105065954336,11859.25446263009,11805.319703259434,11631.154910463682,11714.236344604058,11863.724811521151,11840.590756009908,11762.359650416332,11779.99517679157,11909.277666721067,11889.362262411389,11798.502421200565,11755.385906146277,11926.913193096303,11892.78207931305,11788.622950151319,11703.239286332046,11848.413866569266,11873.246654659111,11823.312857545956,11707.284952078457,11839.942555420705,11944.392257260353,11902.706253851207,11772.976729032604,11869.648023801807,11979.216275121722,11921.638181404851,11783.817325093429,11818.015494110048,11944.74988517164,11888.624654844363,11766.807647562939,11726.350990098834,11885.942445509727,11874.855980259894,11784.130249515802,11728.027370932981,11836.67920073023,10498.770832868915,9417.14756693215,9818.160214204814,10323.644915061584,10599.823069551358,10698.081338176888,10704.272771391008,10908.411253501326,11047.863787157989,11066.393383311437,10987.357614917471,11081.614921285502,11200.056815154174,11172.810038663154,11064.33702282155,11103.407872129426,11218.631114796533,11173.949977630375,11042.834644655544,11053.228205827261,11221.693303786911,11261.300594961715,11206.047082668196,11141.539948170179,11297.71158667941,11302.651322204032,11236.311344660682,11172.608872963057,11366.823180535219,11432.6490679561,11399.032044295316,11308.373368784592,11478.000757455917,11616.559221334366,11614.279343399923,11529.65563889213,11638.530986133932,11789.181743762701,11785.985444305594,11645.482378659533,11662.670870145665,11786.924217572716,11750.669688066208,11619.353189391279,11574.359127802745,11746.46756010861,11715.666856249198,11597.716700758541,11503.414690901602,11671.812733627885,11673.26559701748,11548.207586790037,11412.35368399068,11556.611842705232,11664.123733535258,12966.895159112832,13691.762231798439,13255.545587008666,12979.009804607607,12675.674280604635,12363.666279753004,12323.276677522264,12374.775096747291,12216.480042514808,12028.591278623495,12002.70795854425,12101.033282403147,12045.958584065269,11915.759672613105,11873.224302914656,12020.567002364041,11989.27456012661,11891.999768257114,11809.47712772812,11952.55064398654,11959.65849872333,11891.552733368007,11782.632682637297,11935.988001345158,11980.557379789041,11908.338893453943,11769.601615619853,11869.424506357254,11983.597217034963,11938.2678792796,11790.947531574671,11813.43338649671,11899.331140438455,11857.511026562575,11708.111966623303,11691.057585603903,11830.733636705118,11786.276016983511,11679.658195931697,11622.884765015217,11778.274092468511,11751.519054355509,11668.057640559393,11581.377575561712,11757.978708503093,11770.89801679826,11687.660120446697,11557.371802016713,11648.07518101635,11655.942995064617,11608.602000308276,11508.265019448403,11602.187049649603,11614.212288166558,11535.154168028137,11385.799811577775,11454.285556588837,11594.788622234897,11552.700287425552,11443.154387850092,11427.664628942566,11570.224055078514,11535.958830828527,11423.753073662887,11386.068032511239,11592.307578600357,11644.722419348052,11617.162718434658,11631.601945352788,11968.867417438916,12164.780457589683,12190.440260224374,12042.136435763412,12080.983767626736,11996.918856730326,11778.698775613162,11510.924877038584,11538.484577951978,11637.458102400078,11631.244317441502,11509.159089226616,11562.95973813054,11729.435530833665,11687.324844279867,11537.94813608505,11535.690609895064,11721.992399930048,11693.158649582703,11576.81781969283,11511.796595072341,11660.033364299938,11672.282120261445,11571.520456256922,11481.264112146391,11651.226776984548,11674.182018540147,11590.765308232942,11488.662539561099,11635.938183777116,11719.377245828779,11682.4074604997,11544.296031510357,11657.619375898765,11786.879514083805,11749.038010720971,11627.377465650734,11676.238379030036,11809.790052150494,11768.014641763526,11665.554245180398,11653.864282830273,11798.033034567003,11783.90673207125,11660.413343955677,11592.732261745008,11777.268263968022,11760.459752137633,11648.298698460902,11582.852790695762,11770.875665053805,11840.121369376348,11816.38381676481,11729.636696533764,11900.582838127952,11968.50978952763,11903.153288740312,11778.005871535048,11886.948274010216,11984.088955412979,11893.519686880076,11742.89128099576,11764.147789972758,10790.036414866021,9458.073611029818,9817.623772337887,10176.168105145467,10561.243958621497,10721.751835555058,10696.15908815373,10675.953111166134,10881.432697943772,10906.801927900546,10814.533926789038,10678.724727478591,10824.838080982934,10887.601779413437,10838.562052078492,10724.992838501077,10860.846741300433,10914.625038459902,10848.933261505756,10715.806271529946,10801.882839427333,10927.566698499526,10906.936038367277,10766.052993065476,10783.08502234042,10916.21201231623,10873.430773428772,10796.719586458157,10785.856638652878,10932.193509601773,10967.755135030167,10887.95940732472,10780.380461261328,10927.276125821607,10949.292594110084,10842.406552124805,10714.88985000728,10833.085874686942,10832.102397930908,10727.339771668885,10593.408118892685,10747.74691435658,10829.040208940532,10752.59724290338,10592.402290392196,10689.364157839318,10823.295810615518,10796.540772502514,10694.817983486413,10744.349449199373,10915.764977427123,10899.671721419301,10808.878935441844,10973.45482986627,12799.190020464663,13358.251852780802,12734.99581038902,12347.483616767362,12310.20090701591,12171.59773964855,11979.059812910535,11781.828019836907,11791.260455997046,11763.90192078375,11630.014971496461,11423.417797496057,11491.545914595832,11521.89958356614,11393.019425036839,11153.475779709313,11142.903404581954,11213.73608276082,11120.641067104467,10933.601669502457,10945.671611508324,11112.035645489173,11070.103772891018,10937.02148640412,10914.133300081885,11096.836459259566,11099.898648249942,10976.248797923185,10879.465744431704,11035.167996307373,11066.639252500445,10986.284731183618,10876.291796719051,11016.191365264818,11086.934636465865,11006.580115149036,10869.787439082556,11006.066025026563,11107.431186131382,11070.796676969132,10880.62803514338,10888.741718380657,11015.721978631256,10968.604501319469,10818.110205901887,10816.836156467934,10976.7405363012,10961.943681471788,10849.760276050602,10818.847813468912,11007.317722716061,11062.414772798393,10982.104954970475,10956.445152335782,11203.722501244843,11271.247121244327,11243.016867997274,11195.273541840737,11423.663666685065,11550.599223446754,11532.13668252667,11434.839538912718,11582.562218017843,11735.403446603234,11717.812623716907,11621.29779115889,11705.899143922228,11821.748235434085,11786.09720302787,11659.139294521725,11654.4007246972,11803.86683986984,11755.542368357465,11608.289075885901,11556.81300840533,11713.364626570301,11680.55226570991,11592.821668722829,11467.093106161727,11606.813860751852,11637.726323333542,11561.685688696587,11458.532388035344,11609.853697997773,11768.081696996893,11862.4507620872,11910.93169581076,12123.675599536373,12210.154498833956,12066.67865117534,11739.22559490509,11642.420189669156,11688.26361754699,11575.364956303234,11482.292292391336,11508.220315959492,11699.350082796822,11691.169344326181,11589.737127987997,11543.513720454423,11692.64455946023,11666.984756825537,11556.365973516224,11482.22523715797,11594.609808279254,11582.986901162494,11505.493403135944,11361.10113395466,11457.548911279311,11509.94140028255,11428.178719065038,11256.405562926002,11337.989430187874,11432.02321911135,11368.141933458082,11232.623306825555,11305.467642005402,11442.5508907498,11401.78130886332,11263.379307196059,11270.353051466114,11462.108667148193,11442.372076794158,11340.33636335568,11268.587263654144,11453.905576933095,11473.351594609214,11405.379939720624,11330.725113239898,11505.493403135944,11578.628310993709,11508.354426426224,11380.01070976385,11469.283577118347,11576.61665399273,11550.465112980022,11424.960067863472,11549.28047052389,11694.03036761646,11701.093518864336,11590.586494277299,11686.386071012745,11873.313709892478,11879.192218684224,11788.935874573694,11763.320775427912,10692.49340206306,9604.365778489802,10042.482321558276,10363.38631670312,10819.786586736034,11030.742350905222,11058.480865774258,11069.612034513002,11344.113808168628,11462.354536337201,11449.301117575302,11352.518064083823,11549.347525757257,11662.469704445566,11635.379390165734,11511.170746227592,11596.77792749142,11756.302327668946,11802.056348568958,11693.873905405273,11687.4589547466,11853.286546860523,11862.271948131556,11710.324789324379,11668.661137659687,11813.858069641361,11767.657013852242,11673.399707484212,11559.249348550959,11715.733911482563,11721.679475507675,11635.02176225445,11562.557406730344,11717.70086499463,11773.803743577451,11729.770807000496,11631.289020930413,11816.897906887283,11947.074466594991,11893.87731479136,11712.26939109199,11706.12266136678,11814.550973719475,11804.358578247855,11702.054643875916,11739.51616758301,11910.529364410564,11902.460384662198,11816.540278975997,11824.586906979908,11984.290121113077,11959.099705111947,11842.53535777752,11775.10014475586,11922.465195949699,12399.250256925852,14092.752527326647,13814.786233280449,13436.70647581893,13137.21545186227,12856.857521159354,12558.282918725363,12582.221637036997,12600.706529701536,12476.676699719037,12247.370153352042,12268.38079314003,12325.713017667893,12246.498435318284,12086.661110718383,12090.796183442615,12247.32544986313,12212.635542468493,12065.471656974752,11972.287234340578,12109.772814485172,12094.417166044375,11998.081147442002,11877.202913427702,12038.895432817393,12053.267604502154,11907.154250997812,11787.170086761724,11944.615774704907,11995.153068918356,11920.967629071192,11790.008758307547,11892.715024079684,11972.555455274041,11891.463326390187,11741.79604551745,11814.550973719475,11975.438830308776,11955.255205065634,11841.328363576933,11854.87352071685,12033.463958914752,12025.417330910843,11908.45065217622,11863.210721398678,12012.47567087122,11990.392147349376,11849.196177625201,11746.400504875244,11938.469044979698,11933.663419921806,11831.515947761054,11708.201373601125,11845.508139790076,11863.836570243428,11782.342109959378,11648.410457183178,11751.519054355509,11824.586906979908,11785.739575116584,11650.131541506236,11728.720275011096,11832.566479750452,11809.454775983666,11663.810809112885,11666.336556236334,11836.120407118846,11827.38087503682,11692.018710615483,11636.564032621865,11774.85427556685,11760.079772481891,11653.104323518792,11554.153150815147,11663.408477712688,11694.32094029438,11636.116997732759,11479.677138290064,11558.891720639673,11616.134538189715,11578.248331337969,11397.959160561462,11494.071661719283,11588.686595998597,11490.584789584254,11351.020497205318,11382.558808631757,11543.133740798681,11476.726708021964,11336.067180164717,11355.222625162914,11594.498049556978,11678.182980797646,11734.017638447003,11876.73352679414,12096.62998874545,12052.038258557113,11864.104791176891,11589.379500076711,11547.894662367662,11443.243794827915,11337.832967976687,11232.377437636547,11375.92034052853,11434.280745301336,11339.44229357747,11168.943186872386,11250.03531575624,11372.656985838055,11358.351869386659,11205.018902423251,11250.549405878712,11424.35657076318,11411.861945612663,11300.594961714145,11261.390001939537,11430.145672577104,11440.650992471099,11349.679392537999,11299.320912280193,11480.347690623725,11477.866646989185,11363.49277061138,11271.045955544228,11452.095085632216,11520.066740520804,11436.962954635974,11298.024511101785,11451.826864698753,11521.072569021293,11436.582974980232,11288.256798774815,11387.140916245095,11516.378702685679,11466.735478250443,11334.882537708585,11323.371389314103,11445.233100084437,11413.873602613641,11246.190815709928,11236.020771982763,11415.25941076987,11424.445977741001,11309.982694385373,11221.045103197706,11405.625808909632,11443.26614657237,11384.570465632733,11271.291824733236,11444.78606519533,11467.584844539744,11354.82029376272,11248.694211088921,11417.36047474867,11492.283522162857,10241.07757104368,8847.781580422114,9399.109709156717,9904.19207861329,10096.394729184476,10103.167307754435,10254.130989805579,10486.007986784934,10510.147870796665,10435.291878615843,10413.67774172756,10592.75991830348,10590.792964791413,10491.372405454207,10395.572828718761,10556.125409141232,10561.623938277238,10477.290806447365,10398.76912817587,10580.198237919598,10658.406991768717,10619.269087227474,10468.528922620884,10585.09326995531,10680.06583214591,10633.261279256498,10493.607579899739,10561.713345255059,10706.329131880895,10665.984233139066,10558.315880097853,10594.391595648718,10731.184271715198,10692.538105551972,10598.213743950575,10613.52468890246,10778.435859493717,10810.734130231634,10779.531094972026,10668.509980262515,10838.182072422753,10865.808828569512,10787.8459439094,10674.880227432279,10866.47938090317,10958.702678525768,10901.750433653646,10777.675900182236,10927.969029899721,11046.455627257303,10988.430498651327,10862.34430817894,10938.943736427276,11079.111525906506,11131.056980020641,12454.771990152836,13362.83396039414,12943.984621046142,12538.322810926773,12142.272250923188,11937.97730660168,11966.74400171566,11876.577064582953,11704.826260188373,11537.23288026248,11630.439654641112,11609.96545672005,11492.439984374045,11379.474267896923,11490.093051206239,11508.689702593054,11420.40031199459,11256.450266414913,11347.846549492664,11429.206899309982,11370.44416313698,11223.12381543205,11254.550368136212,11326.433578304479,11276.097449791128,11136.86843357902,11125.849023562554,11280.277226004271,11260.808856583699,11114.203764701339,11061.85597918701,11194.73709997381,11171.111306084551,11082.844267230543,10982.104954970475,11134.92383181141,11143.663363893435,11080.027947429175,10976.896998512388,11092.455517346325,11158.884901867497,11105.44188087486,10974.728879300223,11084.163020153406,11178.956768388363,11116.930677524886,10979.914484013854,11009.955228561786,11150.63710816349,11093.170773168895,10967.6880797968,10955.081695924007,11092.366110368504,11069.880255446466,10963.59771056148,10954.54525405708,11170.708974684356,11132.241622476771,11059.7102117193,10977.925178757332,11142.143445270473,11202.493155299802,11191.585504005612,11098.62459881599,11208.93045770293,11215.79244325071,11162.394125746981,11038.61016495349,11162.863512380543,11303.254819304326,11249.208301211394,11092.410813857416,11141.070561536619,11277.237388758349,11217.200603151394,11086.979339954774,11078.172752639384,11245.587318609634,11243.46390288638,11136.711971367833,11038.431350997847,11203.767204733755,11238.41240863948,11138.947145813365,11035.167996307373,11215.300704872692,11238.054780728196,11139.952974313854,11024.66267641338,11160.091896068085,11276.633891658055,11152.648765164467,10978.461620624259,11116.371883913504,11317.492880522357,11392.103003514172,11423.194280051504,11566.24544456547,11724.205222631124,11617.386235879212,11338.950555199452,11136.555509156646,11116.953029269342,11012.346865218506,10850.00614523961,10780.55927521697,10944.732838241202,10992.610274864468,10933.556966013548,10827.877918228856,11040.979449865754,11018.247725754705,10932.595841001968,10792.785679434024,10928.103140366453,10991.64914985289,10928.237250833185,10784.783754919024,10857.784552310057,10985.569475361048,10941.134207383897,10806.75551971859,10848.933261505756,10993.638455109412,10968.179818174818,10846.988659738143,10841.71364804669,11019.633533910936,11033.670429428868,10934.719256725224,10849.514406861594,11011.721016373756,11014.090301286018,10906.600762200447,10796.09373761341,10955.506379068658,11005.686045370823,10942.989402173687,10852.53189236306,10976.762888045656,11055.32926980606,10995.672463854846,10872.179075739274,10992.543219631103,11119.478776392792,11048.444932513827,10929.69011422278,10931.321791568016,11087.158153910417,11050.680106959357,10964.178855917318,10909.573544213003,11073.23301711476,11096.031796459174,11011.341036718017,10936.373285814916,11090.354453367527,11102.916133751409,11016.03490305363,10609.881354556246,8970.53736097066,8841.545443719084,9257.891387688087,9432.234994439483,9773.41202180529,10016.88957415695,10069.99731898276,9917.737235753208,10020.085873614058,10195.502364099308,10201.202058935412,10063.85058925755,10091.544400637675,10256.857902629126,10221.631553367562,10018.007161379715,9984.926579585861,10178.403279590999,10103.90491532146,9993.64375992343,9916.396131085889,10084.704766834351,10130.682305178918,10087.297569191167,9982.467887695777,10160.164256115468,10262.423486998498,10202.699625813917,10097.37820594051,10221.363332434099,10341.23573794791,10330.842176776192,10219.418730666486,10302.142536895579,10468.037184242867,10418.215145851987,10291.525458279308,10317.408778358553,10488.913713564125,10475.323852935297,10358.357174200675,10343.694429837995,10513.701798165059,10511.980713842,10442.913823475103,10328.495243608386,10511.846603375268,10554.359621329264,10480.59886462675,10363.587482403218,10528.409246016652,10603.689921342126,10901.30339876454,12610.49659377296,12782.605026078823,12385.25806489683,11982.569036790019,11642.01785826896,11560.031659606893,11562.691517197076,11430.07861734374,11199.11804188705,11136.935488812387,11248.493045388825,11205.555344290178,11074.037679915153,10996.566533633058,11074.261197359705,11047.886138902442,10950.656050521857,10849.559110350503,11007.071853527052,11028.149548548407,10938.340239326983,10827.14031066183,11007.921219816353,11130.811110831632,11020.840528111521,10864.177151224274,10953.673536023323,11061.788923953643,11018.672408899356,10885.366604967905,10935.702733481257,11031.792882894622,10978.014585735153,10836.460988099694,10816.165604134274,10931.455902034748,10891.692148648757,10764.287205253508,10690.168820639708,10831.677714786258,10833.130578175853,10743.678896865715,10628.276840242963,10789.99171137711,10839.813749767989,10744.215338732642,10621.973648306566,10755.79354236049,10835.075179943464,10774.904283869779,10650.069791086888,10757.514626683549,10841.892462002334,10782.146249073297,10641.866700871791,10716.74504479707,10862.523122134582,10792.003368378088,10681.630454257782,10671.750983208536,10835.969249721677,10849.00031673912,10743.321268954429,10698.21544864362,10897.168326040308,10925.398579287361,10849.402648139316,10755.860597593857,10919.520070495615,10952.131265655908,10872.313186206005,10738.023905518521,10869.608625126913,10951.617175533436,10890.060471303519,10735.8334345619,10827.252069384107,10926.225593832207,10875.733003107669,10720.544841354471,10752.84311209239,10893.033253316076,10858.835084299455,10669.53816050746,10608.584953377838,10743.723600354624,10731.74306532658,10613.52468890246,10575.52672332844,10761.85086510788,10771.819743134945,10692.247532874053,10575.146743672698,10696.270846876008,10743.45537942116,10725.506928623548,10540.859167678258,10676.333090821874,10776.401850748283,10715.001608729555,10579.594740819304,10647.409933496707,10737.308649695951,10710.061873204932,10632.166043778187,10738.470940407627,11023.969772335264,11180.029652122219,11126.944259040863,11044.689839445335,11091.449688845836,10935.188643358784,10660.977442381078,10464.796181296848,10555.633670763216,10588.781307790436,10530.264440806443,10441.751532763426,10612.362398190786,10677.093050133355,10648.147541063732,10490.478335675996,10610.9542382901,10689.140640394764,10630.601421666315,10481.828210571792,10560.595758032294,10690.839372973369,10654.696602189137,10533.572498985828,10556.818313219346,10724.992838501077,10716.163899441231,10599.331331173342,10572.106906426778,10727.339771668885,10716.700341308158,10622.57714540686,10550.313955582853,10726.915088524234,10798.75359520359,10726.780978057503,10575.52672332844,10726.088073979387,10762.253196508074,10705.21154465813,10605.790985320924,10702.037596945476,10791.556333488981,10755.100638282376,10627.874508842768,10712.252344161552,10829.889575229834,10787.46596425366,10631.54019493344,10631.473139700072,10790.595208477404,10779.709908927669,10665.693660461147,10617.257430226497,10749.490350424094,10757.358164472362,10635.988192080045,10562.003917932978,10759.570987173438,10750.406771946762,10434.688381515549,8575.783202145481,8316.190042041546,8920.827081302057,9192.400776434039,9280.6901670325,9560.109324468294,9789.929960957761,9828.866699798906,9758.034021620038,9848.223310497202,9968.520399155665,9979.964492316782,9859.980328080694,9856.225235012202,9996.236562280246,9969.146248000414,9832.264164956114,9751.306146538991,9877.347633522468,9868.4292874848,9774.149629372314,9673.522075834522,9838.187377236769,9859.533293191587,9756.491751252623,9650.276261601002,9820.216574694703,9907.522488537132,9856.80638036804,9742.633669690333,9883.740232436685,10019.08004511357,10012.776853177173,9821.758845062119,9888.679967961309,10035.374466821488,10057.726211276795,9946.056895978081,9954.036468748625,10121.00399982977,10119.707598651363,10049.567824550608,10037.073199400093,10211.819137551682,10238.015382053301,10148.20607283188,10015.168489833892,10185.332320372143,10266.357394022632,10219.418730666486,10112.733854381306,10281.08719361868,10311.820842244726,10260.03185034178,10121.227517274323,10258.020193340803,10421.746721475927,11624.047055726893,12691.029929045431,12220.056321627657,11996.069490441025,11765.868874295817,11464.74617299392,11311.837889175164,11379.027233007817,11305.869973405597,11124.932602039886,11018.001856565697,11165.21044554835,11152.961689586842,11053.921109905375,10911.965180869722,11011.162222762374,11015.409054208882,10919.318904795517,10778.547618215993,10898.330616751984,10924.616268231424,10849.402648139316,10751.189083002697,10829.219022896174,10933.445207291272,10865.160627980307,10715.515698852027,10759.749801129079,10884.941921823254,10858.499808132627,10745.757609100057,10705.993855714067,10846.362810893395,10811.292923843017,10693.83450673038,10586.166153689164,10743.477731165616,10766.567083187949,10647.275823029975,10509.700835907559,10640.39148573774,10670.320471563396,10580.689976297615,10430.39684658013,10553.84553120679,10623.29240122943,10567.52479881344,10430.01686692439,10495.239257244975,10595.57623810485,10553.018516661945,10425.211241866498,10480.442402415563,10643.319564261385,10599.510145128983,10465.26556793041,10470.361765666219,10658.094067346343,10605.746281832015,10494.099318277755,10413.34246556073,10556.818313219346,10526.397589015674,10411.330808559753,10280.260179073832,10438.35406760622,10467.076059231289,10384.687529169027,10256.299109017744,10388.040290837323,10456.727201548481,10384.933398358036,10229.45466392692,10286.742184965871,10428.385189579152,10409.565020747785,10280.930731407492,10309.496260821374,10438.577585050773,10396.1539740746,10253.952175849936,10234.774379107283,10440.142207162644,10433.369628592685,10278.51674300632,10192.820154764671,10391.05777633879,10435.44834082703,10360.704107368483,10243.31274548921,10412.090767871234,10486.231504229487,10425.121834888678,10332.85383377717,10477.335509936274,10550.872749194235,10470.764097066414,10338.28530767981,10442.846768241736,10564.864941223257,10501.207173014544,10396.936285130536,10450.558120078817,10625.728741375058,10657.423515012684,10554.449028307085,10518.0827400783,10707.558477825938,10733.419446160728,10567.23422613552,10488.421975186107,10662.25149181503,10686.346672337851,10597.163211961177,10475.703832591038,10638.1116078033,10725.104597223353,10717.840280275379,10708.11727143732,10914.267410548617,11126.318410196116,11106.15713669743,10881.075070032486,10804.140365617319,10783.442650251705,10569.491752325506,10315.352417868664,10306.948161953469,10460.057611472323,10454.044992213845,10379.479572710941,10347.76244732886,10531.247917562476,10528.856280905758,10409.96735214798,10335.245470433889,10486.387966440674,10490.768908353915,10404.49117475643,10285.624597743106,10429.055741912813,10496.222734001009,10363.453371936486,10233.276812228778,10345.61667986115,10444.769018264893,10394.72346242946,10275.342795293665,10341.168682714544,10511.019588830422,10503.732920137993,10381.334767500732,10414.72827371696,10595.017444493467,10585.227380422042,10486.49972516295,10437.907032717114,10592.424642136652,10585.137973444222,10495.529829922894,10402.099538099712,10581.09230769781,10550.783342216415,10444.031410697868,10316.42530160252,10438.73404726196,10506.616295172727,10446.177178165577,10320.09098769319,10415.48823302844,10474.295672690354,10428.787520979347,10283.65764423104,10329.27755466432,10465.086753974767,10451.183968923566,10333.837310533203,10309.026874187814,10483.92927455059,10464.438553385562,10128.424778988932,8268.82669554075,8088.448117786422,8627.773359748526,8877.442345314306,9005.942524187867,9314.106024993185,9482.794640397387,9515.808166957875,9487.801431155376,9697.594904612888,9813.55575484702,9764.381917045346,9630.04793286895,9727.903870094284,9845.228176740191,9805.956161732216,9647.549348777455,9674.036165956995,9807.677246055275,9774.998995661617,9646.565872021421,9618.492080985556,9751.194387816715,9795.160269160304,9659.172255894215,9583.84687707983,9740.912585367274,9769.947501414717,9684.809706784452,9603.829336622875,9767.086478124438,9818.808414794019,9767.958196158195,9657.406468082247,9818.070807226994,9901.979255912216,9848.4244761973,9737.82804463244,9865.90354036135,9975.225922492256,9943.084113965526,9779.26817885258,9834.18641497927,10008.194745563835,10000.12576581547,9936.512701095666,9936.088017951015,10100.149822252968,10100.641560630986,10036.156777877424,10024.712684716307,10163.069982894658,10176.212808634378,10160.63364274903,11399.523782673334,12663.783152554412,12204.32069353112,11775.256606967045,11406.5422304323,11330.546299284257,11282.601807427622,11183.360062046058,11015.6996268868,11044.153397578406,11129.53706139768,11072.964796181297,10918.938925139777,10925.108006609442,11044.354563278504,11027.568403192568,10901.01282608662,10848.866206272389,10988.810478307067,10977.679309568324,10900.476384219694,10836.818616010978,10966.257568151661,10997.751176089188,10912.255753547639,10773.853751880379,10905.550230211047,10974.013623477653,10947.21388187574,10851.414305140293,10889.076994547486,10974.371251388939,10971.867856009943,10781.766269417558,10821.798243737012,10939.703695738757,10894.217895772206,10750.630289391314,10752.776056859024,10901.34810225345,10867.440505914748,10748.193949245686,10707.69258829267,10854.38708715285,10848.083895216454,10750.764399858046,10677.182457111176,10821.150043147809,10850.274366173073,10790.975188133143,10665.49249476105,10835.410456110294,10960.267300637639,10848.620337083381,10727.093902479875,10823.42992108225,10937.379114315405,10911.071111091509,10807.403720307795,10857.67279358778,10955.908710468855,10914.602686715447,10791.265760811062,10794.797336435002,10914.110948337431,10865.607662869414,10764.555426186971,10716.633286074792,10865.115924491398,10881.119773521397,10796.294903313506,10702.439928345673,10848.173302194275,10905.036140088576,10843.010049225099,10742.31544045394,10876.761183352612,10964.067097195042,10942.162387628841,10819.89834545831,10910.266448291117,10997.773527833644,10961.65310879387,10870.189770482752,10910.691131435768,11027.814272381578,11003.517926158658,10904.186773799274,10910.06528259102,10981.501457870181,10992.632626608924,10868.736907093156,10858.320994176984,10979.713318313756,10958.523864570125,10849.894386517333,10812.835194210435,10992.878495797933,10962.770696016634,10932.081750879497,10853.805941797013,10956.288690124595,11001.439213924315,10987.916408528854,10898.35296849644,10949.203187132262,11015.163185019874,10986.865876539456,10890.999244570643,10953.561777301047,11165.635128693,11272.007080555806,11343.711476768432,11478.783068511853,11637.525157633443,11536.607031417732,11319.504537523335,11146.502035439258,11118.517651381213,11033.938650362332,10999.427556923338,10990.665673096857,11157.722611155821,11228.823510268154,11234.612612082079,11162.505884469258,11273.884627090052,11333.988467930374,11321.605601502133,11221.089806686618,11245.117931976072,11299.812650658208,11230.343428891114,11092.701386535333,11141.808169103644,11343.91264246853,11307.345188539648,11169.569035717135,11168.138524071996,11284.926388850974,11283.227656272371,11190.64673073849,11163.265843780739,11284.255836517315,11311.86024091962,11263.580472896156,11189.797364449189,11297.219848301393,11319.593944501155,11262.239368228838,11177.459201509859,11265.033336285751,11283.18295278346,11216.284181628727,11107.878221020488,11162.081201324607,11220.732178775332,11180.49903875578,11065.991051911242,11062.124200120474,11150.145369785472,11094.71304353631,11004.344940703504,10956.847483735977,11034.743313162722,10981.88143752592,10878.862247331412,10828.771988007067,10888.831125358478,10873.877808317877,10756.665260394248,10631.450787955617,10687.26309386052,10683.798573469947,10599.66660734017,9453.133875505195,8115.1137489216035,8607.70149322766,8921.542337124627,9064.280577216217,9293.095385205197,9476.267931016437,9530.917946209664,9497.12210859324,9539.79158875842,9621.777787420486,9603.605819178321,9561.383373902247,9567.79832456092,9620.704903686632,9599.962484832107,9529.398027586702,9487.108527077262,9580.13648750025,9584.159801502205,9551.101571452806,9490.595399212289,9573.319205441381,9600.163650532204,9566.948958271618,9505.772233697442,9631.590203236367,9717.555012411478,9708.72607335163,9672.404488611757,9760.448010021211,9870.463296230233,9879.67221494582,9855.107647789437,9936.646811562397,10008.373559519478,10032.424036553388,9990.536867444143,10026.053789383626,10189.82502100766,10237.83656809766,10202.789032791738,10191.076718697157,10311.731435266905,10353.640956120606,10321.342685382688,10263.943405621458,10367.253168493888,10386.699186170004,10345.415514161054,10281.355414552143,10381.804154134292,10692.202829385142,12433.806053853757,12582.020471336898,12095.847677689515,11830.532471005019,11554.533130470889,11304.528868738278,11187.673948725933,11180.45433526687,11070.6625665024,10939.055495149552,10871.352061194428,10885.59012241246,10813.014008166076,10749.490350424094,10709.033692959989,10769.472809967137,10793.52328700105,10799.08887137042,10686.726651993591,10763.549597686482,10804.252124339597,10765.896530854288,10722.243573933074,10825.441578083228,10923.521032753115,10953.897053467877,10976.762888045656,11021.265211256172,11106.760633797721,11098.490488349258,11023.388626979426,10989.570437618548,11007.474184927249,10918.268372806117,10781.542751973004,10648.72868641957,10591.061185724877,10336.184243701011,9819.546022361043,9545.334821383336,9667.688270531688,9731.726018396143,9787.98535919015,9812.4158158798,9987.742899387229,10071.651348072452,10099.90395306396,10136.270241292745,10280.438993029475,10433.995477437435,10450.848692756736,10406.703997457505,10449.194663667044,10529.0350948614,10555.141932385199,10478.721318092505,10471.1217249777,10516.115786566234,10488.98076879749,10432.341448347743,10369.890674339615,10437.504701316919,10422.573736020773,10389.046119337812,10336.787740801305,10345.750790327882,10355.585557888218,10321.052112704769,10245.860844357116,10332.339743654698,10387.839125137225,10350.0423252633,10259.2718910303,10335.75956055636,10398.299741542309,10407.709825957994,10318.951048725969,10326.349476140676,10394.276427540353,10391.05777633879,10322.035589460802,10338.978211757923,10449.68640204506,10446.624213054683,10393.360006017687,10380.95478784499,10505.677521905603,10529.191557072587,10481.805858827336,10461.443419628551,10543.161397357155,10568.351813358286,10546.625917747728,10499.709606136037,10635.138825790742,10707.022035959011,10788.829420665434,10858.790380810546,11094.71304353631,11293.956493610918,11318.655171234033,11165.478666481813,11020.952286833797,10977.567550846046,10781.98978686211,10540.143911855688,10430.843881469236,10513.65709467615,10492.557047910339,10423.266640098887,10356.47962766643,10428.072265156778,10395.192849063022,10312.580801556207,10243.491559444852,10298.298036849266,10340.90046178108,10284.84228668717,10178.559741802186,10258.310766018722,10301.002597928358,10259.31659451921,10168.389698075021,10223.576155135173,10267.363222523121,10257.12612356259,10191.2555326528,10215.104843986612,10299.70619674995,10249.347716492142,10233.209756995411,10254.846245628149,10367.43198244953,10304.288304363288,10258.042545085258,10242.999821066836,10348.723572340437,10347.695392095495,10231.376913950076,10139.645354705495,10250.197082781444,10293.067728646723,10242.999821066836,10149.144846099001,10213.674332341472,10251.024097326292,10201.805556035704,10122.345104497088,10186.673425039462,10273.331138292688,10253.50514096083,10132.403389501977,10134.52680522523,10235.668448885495,10223.93378304646,10215.842451553637,10262.26702478731,10308.378673598609,10281.98126339689,10220.983352778358,10134.370343014043,10193.44600360942,10165.305157340188,10132.693962179896,9724.34994272589,7943.206482315837,7743.717163052222,8175.955197328949,8378.014967204925,8634.747104018583,8845.993440865688,8848.139208333398,8783.45325987974,8794.427966407296,8892.261551888174,8946.822160103578,8870.33449057752,8901.33636013703,9035.335068146594,8991.168021102909,8913.339246909529,8868.032260898623,8985.602436733538,9016.380788848495,8974.851247650535,8899.347054880507,8937.52383441017,8878.895208703902,8694.225096014154,8556.918329825203,8641.989069222102,8550.324565210887,8441.33745924681,8305.371797725176,8318.760492653906,8293.771242352872,8181.990168331882,8005.746663301786,7902.638066129454,7856.168789406871,7608.332646886426,7213.980819461444,6896.943676107368,6716.922726264325,6471.589979122875,6212.734426585964,6004.036188606762,6019.883575425574,6005.891383396553,6038.457875067935,6048.739677517376,6182.60427506021,7169.076164850732,8837.432722739306,8444.578462192829,8166.433354190988,8002.662122566953,7869.289263402136,7757.910520781341,7838.421504309357,7837.438027553324,7822.015323879162,7799.238896279204,7914.506842435222,8069.695004188419,8155.27983370779,8177.251598507357,8256.421477368054,8443.215005781056,8552.045649533946,8590.110670341333,8623.101845157367,8802.921629300312,8918.949534767811,8960.076744565577,9014.59264929207,9203.263724239318,9236.746637433367,9257.310242332249,9265.222759869428,9344.973784085963,9410.28558138437,9417.728712287988,9383.418784549092,9456.844265084776,9548.352306884803,9573.028632763462,9515.383483813224,9563.931472770151,9671.063383944438,9685.480259118112,9649.24808135606,9658.322889604913,9745.002954602594,9751.93199538374,9750.479131994145,9749.808579660485,9884.254322559158,9974.108335269491,10000.55044896012,10031.194690608347,10170.624872520551,10277.488562761375,10328.003505230368,10348.745924084893,10510.214926030032,10627.516880931484,10708.40784411524,10696.673178276204,10840.350191634918,11024.305048502094,11128.464177663825,11161.902387368964,11377.373203918125,11621.074273714337,11832.76764545055,12038.04606652809,12357.877177939079,12870.35797481036,13407.22452488238,14077.463934119218,14960.111970914839,16382.554636306124,17752.0907225717,18018.836440901334,17658.146340626045,16976.127562061258,15818.687178932094,14578.321823873739,13529.041532163803,13013.498546302146,12745.970516916575,12457.744772165392,12086.862276418482,11721.567716785397,11344.113808168628,10952.064210422543,10728.144434469275,10716.342713396873,10785.744879930602,10705.703283036148,10547.609394503761,10398.72442468696,10415.778805706359,10328.003505230368,10161.3488985716,10051.847702485049,10173.86587546657,10195.144736188024,10120.936944596404,10040.872995957494,10161.840636949615,10151.514131011263,10100.70861586435,10014.07325435558,10140.070037850146,10280.573103496206,10317.56524056974,10377.49026745442,10499.709606136037,10435.001305937923,10137.43253200442,9804.257429153613,9606.913877357707,9565.451391393113,9442.203872466549,9324.119606509163,9341.822188117765,9547.525292339957,9536.84115849032,9480.559465951857,9433.933727018086,9549.022859218461,9565.943129771129,9511.695445978099,9427.854052526243,9553.6049668318,9601.460051710612,9539.568071313866,9395.28756085486,9423.182537935083,9478.883085117708,9403.535354558868,9364.285691295348,9357.244891791928,9399.757909745922,9317.503490150391,9170.496066867838,9174.362918658606,9298.303341663282,9298.862135274665,9215.758349389835,9163.969357486887,9276.063355930251,9287.820373513743,9253.44339054148,9208.985770819876,9372.220560576983,9437.19708170856,9350.405257988603,9266.943844192487,9323.449054175504,9423.450758868546,9423.763683290921,9334.177891514051,9429.642192082667,9506.97922789803,9463.929768077109,9389.43140380757,9459.817047097331,9624.169424077205,9669.252892643559,9637.33460156138,9696.231448201115,9865.322395005513,9898.24651458818,9875.984177110693,9937.809102274074,10180.169067402967,9696.477317390123,7832.811216451075,7959.9702906573175,8651.108580959866,9057.485646901805,9267.726155248423,9359.725935426466,9587.646673637233,9764.717193212175,9806.336141387957,9836.063961513515,9953.365916414967,10109.85047934657,10100.529801908708,10024.667981227396,10073.685356817885,10208.064044483192,10235.444931440941,10173.195323132912,10174.469372566864,10306.299961364266,10309.160984654545,10243.715076889406,10195.435308865943,10322.035589460802,10306.076443919712,10218.88228879956,10143.087523351613,10249.638289170061,10272.638234214573,10200.01741647928,10095.746528595273,10172.994157432813,10210.58979160664,10172.189494632423,9975.427088192355,10001.757443160706,10056.675679287397,9989.620445921475,9849.609118653432,9813.198126935737,9878.509924234144,9818.763711305108,9663.888473974284,9619.028522852484,9737.045733576506,9649.67276450071,9532.817844488365,9469.24948325747,9607.696188413644,9581.008205534006,9466.67903264511,9346.113723053184,9430.044523482862,9385.85512469472,9673.76794502353,11351.333421627693,11394.002901792874,10928.192547344273,10528.833929161303,10152.452904278387,10001.109242571503,9893.507944763654,9748.914509882274,9569.809981561897,9506.129861608728,9554.70020231011,9486.54973346588,9290.614341570657,9178.654453594025,9245.106189859653,9166.986842988354,9035.804454780156,8937.657944876903,8996.64419849446,8982.942579143355,8919.195403956819,8843.0877140865,8987.457631523328,9063.587673138103,9047.494417130281,8960.613186432503,9090.812097884667,9167.702098810923,9145.57387180017,9086.7440803938,9204.515421928814,9348.013621331886,9359.077734837263,9283.059451944764,9302.7960422988,9398.215639378506,9405.502308070936,9293.207143927473,9263.099344146174,9395.108746899217,9425.797692036354,9358.429534248058,9280.958387965964,9402.775395247389,9403.736520258966,9297.386920140616,9132.252232104807,9231.628087953102,9222.508576215336,9110.302819049695,8945.391648458439,8975.365337773006,8980.238018064263,8886.13717390742,8723.461177761696,8666.106601489379,8707.636142687339,8653.611976338861,8497.44033782963,8456.424886754143,8557.767696114504,8508.68326529065,8457.38601176572,8455.687279187117,8627.594545792883,8693.912171591779,8693.24161925812,8653.410810638763,8836.002211094166,8906.007874728188,8947.805636859614,8972.258445293719,9137.482540307348,9234.757332176845,9248.391896294583,9194.993578790854,9362.005813360907,9533.26487937747,9539.41160910268,9498.507916749468,9654.411334325236,9871.893807875373,9923.77220675614,9899.542915766588,9966.575797388054,10163.248796850301,10235.802559352227,10216.133024231556,10223.844376068637,10449.2170154115,10595.844459038313,10624.857023341301,10637.038724069444,10883.176134011286,11014.336170475028,11037.17965330835,11045.270984801173,11258.081943760151,11430.21272781047,11541.077380308794,11605.875087484728,11932.83640537696,12274.616929843061,12396.098660957654,12334.027866605267,12330.876270637069,12373.389288591063,12208.723987188816,11990.481554327198,11949.913138140815,12097.635817245939,12099.714529480283,12000.450432354264,11902.058053262002,11998.684644542294,11906.55075389752,11746.646374064252,11614.748730033485,11661.553282922898,11594.833325723806,11414.298285758292,11205.488289056813,11203.78955647821,11190.22204759384,11081.547866052135,10876.649424630335,10908.67947443479,10967.732783285712,10893.346177738451,10757.55933017246,10760.196836018185,10865.00416576912,10839.76904627908,10744.103580010365,10734.134701983297,10863.461895401704,10858.656270343814,10756.8887778388,10716.946210497166,10921.956410641244,10963.21773090574,10937.759093971144,10861.62905235637,11002.377987191438,11076.04933691613,11027.635458425935,10906.287837778073,11011.6986646293,11086.398194598938,11011.98923730722,10854.543549364036,10905.371416255406,10976.673481067835,10885.567770668004,10724.366989656328,10698.21544864362,10801.27934232704,10818.66899951327,10756.307632482962,10801.502859771594,10980.182704947318,10997.058272011074,10865.853532058421,10377.758488387883,8507.655085045706,8190.729700413907,8446.031325582424,8481.414137055175,8593.821059920914,8506.11281467829,8193.277799281812,7593.155812401273,7093.080233702688,6600.268971952078,6106.720102634443,5728.439179472826,5650.141018645885,5733.691839419823,5757.384688542448,5775.422546317881,5974.934217325952,6289.6467792566755,6465.1526767197465,6554.269081863056,6748.863369090959,6976.784107301725,7094.3989866255515,7123.0315712728,7158.056754834266,7426.255336553495,7570.111163867851,7611.908925999275,7626.392856406314,7850.558501548589,7963.412459303434,7962.339575569579,7915.8926505914515,8104.720187749886,8263.238759426924,8311.02678907237,8266.01037573938,8381.546542828864,8584.0756993384,8640.983240721613,8580.499420225551,8668.878217801835,8854.732972947713,8818.925478330311,8788.303588426541,8843.288879786596,9080.574998924136,9191.372596189094,9259.411306311049,9294.592952083702,9492.517649235446,10096.595894884575,11936.680905423273,11779.548141902464,11498.162030954603,11310.563839741211,11116.81891880261,10892.429756215783,10915.362646026928,10977.969882246243,10942.989402173687,10827.676752528758,10894.799041128044,11018.046560054609,11010.782243106634,10905.237305788673,10947.862082464944,11118.383540914481,11094.668340047401,11003.294408714106,10982.17201020384,11195.11707962955,11262.887568818041,11233.293859159216,11197.843992453098,11392.34887270318,11502.811193801308,11552.454418236544,11572.235712079491,11836.67920073023,12070.143171565911,12193.79302189267,12301.439023189429,12707.167888542162,13183.930597773862,13721.422996690631,14435.293011104228,15851.812464214858,18340.120415701916,20910.19104840649,21102.348995488763,19576.39540152495,17710.60588486265,15671.612700416174,13909.244705348578,12962.357754988403,12955.719286885178,12829.498985946058,12401.93246626049,11799.172973534223,11357.748372286365,10850.05084872852,10512.070120819822,10301.13670839509,10575.906702984179,10807.917810430266,10746.22699573362,10581.628749564738,10543.004935145967,10604.919267287169,10619.71612211658,10579.572389074849,10697.075509676399,10901.035177831076,10937.468521293225,10879.555151409526,10948.443227820782,11205.957675690375,11253.790408824732,11184.388242291003,11171.7371549293,11353.367430373124,11310.630894974578,11105.419529130404,10936.619155003924,11045.136874334441,11028.104845059497,10879.689261876258,10651.410895754207,10730.133739725798,10750.607937646859,10646.87349162978,10424.607744766206,10432.319096603287,10504.448175960562,10420.897355186624,10195.63647456604,10255.114466561612,10425.099483144222,10383.52523845735,10266.312690533721,10254.041582827758,10435.090712915744,10321.432092360508,10157.951433414393,10173.329433599643,10310.323275366221,10292.307769335242,10127.418950488443,9967.000480532704,10093.176077982913,10121.071055063136,10026.947859161837,9865.367098494424,10005.870164140482,10156.878549680538,10220.513966144797,10228.940573804448,10458.805913782826,10630.959049577601,10557.444162064096,10292.665397246528,10191.59080881963,10196.262323410789,10046.639746026964,9891.608046484953,9865.4788572167,10045.94684194885,10053.837007741573,9965.212340976279,9844.445865684256,9957.702154839297,9976.768192859674,9885.237799315191,9711.408282686269,9862.796647882062,9980.79150686163,9943.195872687802,9832.80060682304,9937.093846451504,10038.190786622858,10017.224850323779,9896.033691887103,9979.383346960944,10112.66679914794,10074.46766787382,9951.510721625176,9978.936312071839,10193.870686754071,10175.96693944537,10093.243133216278,10066.689260803374,10240.205853009922,10248.364239736109,10158.15259911449,10083.94480752287,10246.17376877949,10254.488617716863,10152.72112521185,10035.665039499407,10135.756151170273,10198.899829256516,10078.401574897955,9926.00738120167,10026.903155672928,10112.152709025468,10046.12565590449,9908.148337381881,9950.01315474667,10055.915719975916,9938.211433674269,9772.65206249381,9784.543190544033,9958.126837983948,9954.707021082286,9910.942305438793,9908.617724015443,10111.303342736166,10115.930153838415,10059.581406066585,9824.932792774773,8275.822791555262,7746.801703787054,8219.071712383236,8445.897215115692,8778.938207499768,8997.314750828118,9032.675210556414,8960.948462599334,9101.742100923313,9214.081968555685,9176.620444848591,9020.337047617084,9048.701411330869,9182.498953640337,9151.742953269835,9030.082408199598,9035.893861757977,9199.06159628172,9196.53584915827,9066.828676084122,8995.012521149221,9166.919787754989,9171.546598857236,9089.023958328242,8978.986320374766,9114.907278407489,9130.821720459668,9029.344800632573,8954.958195085312,9117.768301697768,9171.703061068423,9115.823699930155,9000.01931190721,9089.806269384178,9203.241372494862,9167.746802299835,9077.333995978117,9137.23667111834,9293.989454983408,9281.651292044078,9198.39104394806,9232.723323431412,9399.37793009018,9426.714113559023,9336.055438048297,9295.464670117459,9493.21055331356,9551.034516219439,9517.082216391827,9411.492575584958,9587.04317653694,9771.489771782133,11293.576513955179,11995.08601368499,11577.778944704407,11318.05167413374,11015.163185019874,10728.524414125015,10704.719806280114,10763.951929086677,10667.057116872922,10473.021623256402,10490.880667076191,10603.62286610876,10533.840719919292,10388.308511770787,10321.208574915956,10428.832224468259,10433.63784952615,10289.84907744516,10192.618989064573,10329.076388964224,10307.864583476137,10187.701605284406,10043.51050180322,10185.332320372143,10218.234088210356,10123.216822530845,9947.934442512327,10035.687391243862,10115.19254627139,10094.80775532815,9950.057858235581,9996.035396580148,10119.372322484533,10091.678511104406,9975.561198659087,10007.770062419184,10174.2011516334,10159.471352037353,10038.3696005785,10007.233620552257,10156.364459558066,10120.489909707298,10024.98090564977,9928.376666113934,10083.296606933667,10078.960368509337,9964.720602598263,9814.852156025428,9971.649643379407,10014.430882266866,9913.95979094026,9773.300263083012,9868.33988050698,9967.961605544282,9917.089035164003,9768.852265936406,9829.716066088207,9974.465963180777,9977.371689959966,9862.394316481867,9886.914180149339,10060.766048522717,10063.291795646168,9950.124913468948,9946.056895978081,10090.493868648276,10070.71257480533,9968.810971833584,9880.409822512845,10003.16560306139,9980.433878950344,9865.836485127984,9685.122631206827,9771.64623399332,9789.058242924004,9696.857297045863,9554.230815676548,9626.225784567092,9682.06044221645,9558.164722700683,9316.341199438715,9306.819356300755,9368.085487852752,9245.821445682222,8992.084442625575,8829.475501713217,8806.833184579991,8635.462359841153,8402.937162272592,8232.549814289787,8289.233838228445,8197.636389450598,8021.057608253671,7811.845280151997,7746.444075875769,7500.686645589668,7064.849980455635,6507.486880718098,6157.816190459274,5856.134695545995,5521.1043979053975,5258.225531366531,5381.607160759826,5588.293741738051,5703.472280916248,5804.926848998886,6069.5267998608115,6371.54357094092,6574.810335017483,6678.567132779019,6864.64540536945,7196.6582175085805,7379.316673197351,7462.196941637629,7578.336605827404,7879.682824573854,8066.2751872867575,8151.591795872664,8228.750017732384,8509.107948435301,8676.075479516445,8746.59523327294,8757.100553166933,8981.579122731582,9158.537883584248,9197.564029403215,9138.868348463577,9277.292701875294,9421.05912221183,9428.010514737429,9377.204999590516,9470.25531175796,9609.372569247791,9620.23551705307,9502.933562151618,9545.31246963888,9751.663774450275,9854.28063324459,9833.337048689968,9835.169891735302,10031.105283630524,10112.353874725566,10089.555095381153,10104.508412421754,10312.558449811751,10430.598012280228,10447.294765388342,10405.608761979194,10551.453894550074,10722.511794866537,10765.091868053898,10729.88787053679,10888.741718380657,11090.24269464525,11206.181193134928,11227.482405600835,11447.98236465244,11799.642360167785,12031.452301913776,12099.066328891078,10793.52328700105,10923.766901942123,12223.207917595855,13614.73812040545,15309.335626284555,16470.30758503766,16507.277370366737,15824.364522023741,14578.657100040567,13533.333067099222,12565.569587417793,11858.91918646326,11446.753018707397,11399.456727439969,11245.810836054186,10809.9518191757,10279.32140580671,10055.647499042452,10008.865297897495,9940.848939519994,9840.199034237747,9908.036578659605,9939.01609647466,9837.673287114298,9663.19556989617,9606.578601190879,9796.4119668498,9808.4148536223,9735.369352742357,9672.426840356213,9849.564415164521,9875.403031754855,9824.262240441114,9765.946539157218,9930.29891613709,9976.611730648487,9889.596389483975,9785.325501599968,9900.72755822272,9896.681892476308,9793.774461004074,9598.4649179536,9598.979008076074,9652.690250002177,9556.778914544453,9374.008700133409,9337.575356671257,9441.175692221606,9400.182592890573,9568.826504805864,11365.951462501462,11785.292540227478,11294.202362799926,10861.226720956174,10557.354755086275,10573.358604116274,10503.822327115813,10372.23760750742,10217.54118413224,10281.444821529964,10258.668393930006,10116.354836983066,9974.085983525036,10009.3123327866,10074.154743451447,9979.182181260847,9806.157327432315,9844.71408661772,9943.911128510372,9885.4836685042,9722.762968869563,9733.581213185933,9876.274749788612,9826.720932331196,9719.030227545527,9707.407320428769,9898.425328543823,9930.231860903725,9879.67221494582,9822.18352820677,9994.895457612927,10075.384089396488,10040.805940724129,9914.429177573822,10044.337516348067,10110.14105202449,10063.939996235371,9964.318271198068,10103.726101365817,10242.999821066836,10208.287561927744,10065.124638691503,10115.214898015845,10221.743312089839,10135.689095936907,10008.574725219576,10024.578574249575,10174.379965589043,10169.216712619867,10041.856472713527,9974.935349814337,10136.426703503932,10144.585090230119,10080.547342365664,10002.293885027633,10151.625889733541,10179.476163324853,10113.985552070804,9974.868294580972,10156.498570024798,10276.639196472073,10233.50032967333,10114.365531726544,10218.50230914382,10374.025747063846,10364.705069625983,10244.139760034057,10298.029815915801,10424.697151744027,10395.997511863412,10277.399155783552,10245.905547846025,10379.390165733119,10345.080237994223,10234.528509918275,10159.381945059533,10343.13563622661,10345.862549050158,10218.301143443721,10090.739737837284,10236.674277385984,10284.46230703143,10176.72689875685,10047.422057082898,10153.257567078777,10183.58888430463,10086.627016857508,9896.145450609381,9900.124061122426,10007.948876374827,9946.593337845008,9778.485867796644,9786.84542022293,9903.253305346168,9829.42549341029,9652.556139535445,9592.318188228392,9725.579288670933,9709.798957085486,9574.973234531073,9497.792660926898,9686.664901574242,9703.361654682358,9637.736932961576,9472.088154803296,9596.408557463714,9668.716450776632,9651.90793894624,9614.4687669836,9841.763656349618,10088.213990713833,10120.981648085315,9934.63515456142,9915.233840374212,9915.189136885303,9735.816387631463,9452.128047004706,9396.80747947782,9525.307658351381,9492.383538768714,9399.333226601271,9366.677327952068,9524.212422873072,9502.17360284014,9393.253552109427,9322.219708230461,9478.346643250781,9486.460326488057,9388.872610196187,9269.111963404652,9408.117462172206,9464.667375644132,9390.593694519246,9254.315108575238,9349.667650421577,9424.367180391215,9331.070999034762,9166.249235421328,9215.02074182281,9327.427664688548,9273.559960551258,9110.526336494248,9081.469068702349,9173.357090158117,9128.877118692055,9003.30501834214,8974.515971483705,9135.672049006469,9101.250362545296,9002.343893330562,8936.965040798788,9112.873269662055,9114.28142956274,9042.666440327936,8945.034020547155,9103.016150357265,9214.640762167068,9166.428049376971,9054.155236977964,9177.022776248787,9278.790268753799,9270.520123305336,9180.174372216985,9140.209453130896,9213.322009244206,9200.335645715671,9085.8947141045,8757.659346778315,7023.275735768764,6864.801867580637,7275.001081824432,7531.666163404723,7866.674109300865,7942.580633471088,7909.23183074377,7905.163813252904,8135.252670675835,8094.773661467274,7909.969438310795,7741.884320006886,7874.65368207141,7940.5242729812,7800.3117800130585,7443.175607106163,7470.310624874905,7563.8750271648205,7480.279502901973,7348.270100148929,7457.23485436855,7696.219706084694,7774.517866911634,7696.554982251523,7704.936886422263,7879.839286785042,7943.05002010465,7886.8353827995525,7810.750044673687,7896.1113567485045,7863.813086010586,7771.9027128103635,7659.89812134482,7868.506952346201,7886.120126976983,7741.392581628869,7636.674658855755,7807.330227772025,7949.755543441242,7942.446523004356,7817.142643587905,7910.8411563445525,8029.931250802429,8017.101349485082,7896.1113567485045,7958.71859296782,8111.537469808754,8080.200324082413,7954.67292722141,7985.004244447261,8130.983487484871,8133.0174962303045,7978.812811233141,7833.012382151173,7979.997453689272,7994.704901540864,7935.606889201033,7866.204722667304,8010.261715681758,8445.785456393416,10274.135801093078,10238.797693109238,9858.326298991002,9636.149959105249,9387.017415406397,9083.167801280952,9044.968670006832,9066.180475494919,8949.727886882769,8759.715707268204,8712.687636934237,8771.316262640508,8712.575878211961,8550.771600099994,8501.35189310931,8626.633420781305,8577.347824257353,8444.042020325902,8340.218167331,8485.191581868123,8492.835878471837,8426.697066628583,8289.189134739534,8395.00229299096,8449.540549461908,8354.590339015764,8249.380677864632,8388.833211521294,8512.907744992703,8542.032068017968,8475.647386985705,8617.89388869928,8799.725329843204,8860.164446850355,8858.756286949669,8954.466456707294,9146.244424133829,9262.875826701622,9221.659209926034,9296.336388151216,9592.117022528295,9776.787135218041,9675.91371249124,9689.838849286896,9963.06657350857,10086.470554646321,10099.389862941487,10085.196505212369,10324.628391817618,10477.559027380828,10524.520042481428,10476.106163991233,10629.707351888102,10763.281376753019,10788.583551476426,10710.307742393941,10834.851662498912,11010.93870531782,11012.79390010761,10919.408311773339,10951.706582511257,11127.212479974329,11142.456369692847,11069.56733102409,11067.555674023113,11248.001307010807,11240.826397040653,11057.497389018225,9231.359867019639,5225.480225739507,3180.7426429680163,3496.5951438659604,4562.460429961733,5703.740501849711,6605.365169687888,7358.55190259837,7973.828372219607,8589.015434863024,9056.345707934584,9373.069926866285,9642.944889419663,9974.845942836517,10302.097833406668,10518.932106367602,10719.181384942698,10927.857271177445,11154.839236121088,11201.062643654663,11244.46973138687,11251.823455312664,11195.78763196321,11053.876406416466,10906.511355222627,10749.31153646845,10630.221442010576,10449.909919489613,10314.391292857086,10206.410015393498,10214.434291652953,10167.406221318988,10080.547342365664,10042.191748880357,10061.235435156279,10059.13437117748,9939.77605578614,9778.59762651892,9767.689975224732,9809.688903056252,9688.564799852944,9504.364073796758,9338.692943894022,9375.908598412108,9285.004053712375,9177.760383815812,9137.817816474178,9325.661876876578,9312.876679048142,9093.829583386134,8798.227762964698,8654.394287394796,8415.610601378752,8100.361597581101,7826.172748347849,7856.951100462807,7875.36893789398,7776.797744846076,7631.690219842222,7667.497714459624,7728.920308222808,7657.7076503882,7517.696323120156,7525.58648891288,7618.681504569234,7515.170575996706,7331.506291807448,7268.787296865857,7364.877446279222,7314.317800321317,7173.926493397534,7103.093815218665,7230.05172372481,7231.482235369949,7135.928527823512,6984.875438794546,7118.427111915006,7152.044135575788,7071.287282858763,6924.145749109477,7038.5196254872835,7161.65538569157,7159.777839157324,7053.584701250161,7143.12578953812,7261.210055495508,7151.351231497673,7047.862654669601,7105.708969319937,7274.643453913147,7286.713395919013,7193.551325029293,7167.936225883512,7323.7949399703675,7325.359562082239,7234.320906915773,7197.574639031249,7395.4099292051715,7447.802418208411,7338.837663988789,7265.501590430927,7408.664513667169,7473.238703398551,7440.962784405087,7356.6073008307585,7467.069621928886,7528.782788369988,7484.660444815212,6885.4325277128855,5050.197845720988,5250.782400462914,5731.65783067439,5929.2919551482155,6207.057083494316,6547.854131204383,6717.928554764814,6764.129610553934,6837.4209806228855,7097.818803527213,7219.188775919531,7230.766979547379,7251.040011768343,7493.221162941595,7613.875879511343,7648.699897372711,7624.850586038899,7869.713946546787,8030.82532058064,8098.12642313557,8103.98258018286,8315.608896685708,8578.21954229111,8696.48262220414,8749.97034668569,9012.603344035548,9304.338312666216,9484.247503786983,9586.059699780906,9810.135937945359,10159.739572970817,10361.95580505798,10466.830190042281,10674.9696344101,11085.682938776366,11336.536566798279,11507.99679851494,11593.022834422927,11956.819827177505,12206.757033676748,12306.110537780589,12358.01128840581,12669.281681690418,12872.570797511435,12928.94189702772,12876.370594068838,13082.096050035483,13214.530135933177,13071.836599330498,12980.194447063739,14745.19994797706,15145.385580704879,14487.797258829745,13884.456620747642,13630.294934546344,13659.218091871511,13555.371887132156,13303.73594805431,13203.488374172257,13424.502423346332,13484.785078142295,13389.879571185062,13326.981762287827,13569.319375672267,13687.515400351931,13683.693252050072,13608.099652302224,13868.095143806357,14014.2084973107,13884.590731214374,13344.952564829895,12635.619954540725,12332.73146542686,12449.564033694749,12589.128326073685,12848.11798907733,12981.893179642342,12863.630099729313,12579.405317235627,12338.185291073954,12215.451862269863,11847.050410157492,11305.311179794215,10889.635788158868,10795.937275402222,10593.676339826148,10264.658661444028,9963.603015375498,9997.97999834776,9965.212340976279,9752.535492484032,9497.63619871571,9525.195899629105,9491.087137590306,9338.04474330482,9127.737179724834,9170.116087212096,9206.638837652068,9097.361159010072,8907.974828240256,8973.577198216582,9156.19095041644,9169.736107556357,9014.145614402963,8997.404157805939,9189.092718254653,9240.144102590573,9179.928503027977,9242.468684013926,9578.370699688281,9771.60153050441,9869.591578196476,9959.289128695624,10308.043397431778,10551.65506025017,10717.281486663996,10851.749581307124,11223.101463687595,11605.24923863998,11802.056348568958,11865.334137121932,12163.081725011078,12471.066411860755,12615.101053130753,12647.488730846493,12811.416424681714,13058.850235801965,13140.523510041656,13142.132835642438,13232.165662308415,13477.85603736115,13591.760527105394,13593.235742239445,13580.763468833384,13654.07719064679,13629.579678723774,13585.189114235534,13628.260925800912,13965.213473464666,14233.792034839635,14322.014370204732,14305.697596752358,14472.799238300233,14589.855324012677,14546.872919425121,14399.016129853266,14475.660261590512,14546.090608369186,14454.560214824704,14294.678186735891,14287.525628510193,14361.733420101813,14275.187465570863,14123.486175952696,14070.266672404608,14191.100202929998,14081.621358587905,13907.2330483476,13756.67169769665,13831.795910810937,13791.16043939119,13621.130719319668,13422.75898727882,13457.895929562561,13406.397510337534,13261.468799289323,13068.863817317942,13057.978517768208,13025.747302263655,12921.208193446184,12771.876188740276,12859.495027005081,13020.516994061112,13084.10770703646,12968.61624343589,12832.002381325054,12763.315470613894,12559.042878036844,12260.110647691567,11935.809187389516,11951.388353274866,11869.983299968637,11719.89133595125,11603.483450828011,11725.859251720816,11728.94379245565,11596.822630980329,11432.850233656196,11502.475917634478,11493.334054152258,11358.731849042399,11179.046175366186,11216.038312439718,11227.683571300933,11139.751808613755,10949.203187132262,10951.483065066705,11024.282696757638,10959.484989581704,10773.741993158103,10768.735202400114,10943.369381829427,10925.935021154288,10793.076252111943,10735.498158395072,10889.971064325699,10875.174209496285,10756.17352201623,10678.121230378298,10819.09368265792,10838.09266544493,10745.310574210951,10599.040758495423,10707.06673944792,10829.777816507556,10693.454527074638,10511.310161508341,10599.867773040269,10705.099785935854,10638.938622348145,10483.50459140594,10527.582231471806,10616.542174403927,10562.294490610897,10414.549459761318,10395.930456630047,10551.409191061162,10545.731847969515,10421.925535431568,10343.694429837995,10522.575440713816,10555.253691107475,10368.929549328035,8727.953878397213,7987.306474126158,8604.616952492828,8887.143002407909,8991.68211122538,9287.418042113548,9485.990939854497,9508.901477921187,9423.741331546466,9574.459144408602,9707.429672173223,9687.313102163447,9582.773993345976,9634.272412571003,9730.20609977318,9722.450044447189,9603.494060456045,9569.072373994872,9713.822271087442,9706.44619541719,9567.619510605278,9480.69357641859,9647.728162733098,9673.432668856702,9563.193865203128,9412.76662501891,9529.040399675418,9594.240438251549,9540.88682423673,9412.00666570743,9517.864527447764,9602.28706625546,9531.297925865403,9376.422688534582,9459.39236395268,9553.470856365067,9424.791863535866,8551.688021622662,7173.7029759529805,6037.854377967641,5565.874942049378,5559.48234313516,5826.093950998063,6296.955799693561,6602.2135737196895,6850.2732336846875,7095.829498270691,7490.583657095869,7723.0641511755175,7881.985054252751,8029.707733357875,8286.819849827272,8435.168377777145,8549.45284717713,8551.576262900384,8731.284288321052,8843.221824553231,8889.825211742545,9043.158178705953,10872.357889694917,11582.964549418039,11029.781225893645,10623.359456462797,10417.902221429613,10364.123924270145,10210.835660795648,10071.092554461069,9961.569006630065,10016.286077056657,9958.797390317606,9856.314641990024,9812.169946690792,9906.494308292187,9894.357311052956,9812.505222857622,9743.304222023991,9833.739380090163,9771.690937482232,9738.520948710555,9729.803768372985,9847.530406419088,9924.86744223445,9882.086203346993,9821.55767936202,9904.236782102202,9988.301692998612,9935.037485961615,9849.922043075805,9885.90835164885,9968.83332357804,9929.270735892145,9903.812098957551,9824.776330563585,9885.52837199311,9845.18347325128,9783.090327154438,9712.436462931211,9782.59858877642,9747.238129048124,9694.979750511617,9625.734046189076,9706.647361117288,9722.986486314117,9691.381119654312,9646.632927254788,9712.078835019927,9719.499614179089,9709.575439640932,9706.4908989061,9701.618218614843,9798.960065717705,9809.599496078432,9814.114548458403,9817.579068848976,9919.145395653892,9923.749855011685,9931.640020804409,9930.701247537285,10009.64760895343,10023.662152726907,10019.705893958318,9981.909094084394,10123.686209164407,10160.2983665822,10134.057418591668,10077.485153375286,10199.726843801362,10246.352582735131,10129.229441789323,9946.593337845008,9959.870274051462,9968.609806133487,9847.66451688582,9627.991572379062,9616.167499562205,9720.036056046016,9660.714526261632,9537.51171082398,9439.432256154092,9586.171458503182,9566.524275126967,9458.386535452191,9375.863894923199,9520.926716438142,9548.41936211817,9470.054146057862,9389.85608695222,9540.573899814355,9613.887621627764,9564.065583236883,9448.149436491662,9580.09178401134,9677.947721236673,9694.197439455682,9625.175252577694,9831.66066785582,10149.703639710384,10340.47577863643,10208.622838094574,10171.027203920747,10220.715131844894,10070.489057360775,9790.332292357956,9615.295781528448,9707.608486128865,9706.423843672734,9630.942002647162,9584.606836391311,9753.966004129172,9806.693769299241,9752.133161083837,9685.435555629201,9868.13871480688,9968.900378811406,9935.886852250916,9814.136900202859,9933.092884194004,10017.805995679617,9932.534090582622,9747.126370325848,9769.858094436895,9788.857077223907,9670.281072888503,9534.673039278156,9622.962429876618,9748.199254059704,9680.96520673814,9493.434070758114,9433.956078762541,9547.301774895403,9495.378672525725,9327.405312944093,9223.961439604931,9437.308840430838,9596.386205719258,9604.678702912177,9584.383318946759,9770.93097817075,9822.22823169568,9773.836704949941,9661.496837317567,9783.537362043544,9887.495325505177,9892.05508137406,9829.09021724346,9929.673067292342,10116.935982338904,10126.636639432507,10025.115016116502,10028.64659174044,10131.911651123959,10100.216877486335,10063.671775301907,10077.37339465301,10237.188367508455,10224.202003979923,10081.28494993269,9984.121916785469,10123.596802186585,10134.14682556949,8804.21803047872,7361.591739844292,7984.3336921136015,8437.381200478221,8648.247557669587,8690.648816901305,8937.836758832545,9127.84893844711,9136.409656573494,9030.954126233355,9092.80140314119,9246.112018360142,9232.231585053396,9090.23095252883,9082.65371115848,9227.023628595309,