-38018.5738824098,-37916.87344513815,-37812.1778741095,-37726.101306212106,-37687.7457127268,-37641.20938077085,-37583.87715624299,-37557.412690807905,-37570.80138573663,-37605.379534408996,-37661.437709502905,-37663.27055254824,-37590.31445864611,-37537.74315568723,-37507.925928583856,-37461.83663151701,-37393.44029348377,-37346.12165047188,-37376.36356071992,-37405.845511656466,-37349.02737725108,-37297.77482721506,-37334.610502077405,-37306.916690697275,-37294.01973414657,-37296.2549085921,-37285.30255380899,-37300.702905738704,-37327.614406062894,-37343.8641242819,-37358.86214481141,-37329.91663574179,-37256.580562183924,-37217.308547175955,-37215.58746285289,-37277.501794994096,-37318.09256292493,-37317.198493146716,-37278.32880953894,-37299.18298711574,-37333.068231709985,-37366.95347630423,-37349.83204005147,-37310.4035628323,-37243.88477133331,-37194.17449166471,-37168.20176460764,-37224.61756761284,-37318.897225725326,-37362.72899660218,-37420.62001474143,-37511.122228040964,-37631.88870333299,-37808.042801385265,-38042.06556583233,-38196.60552699632,-38342.137735144825,-38621.132209435964,-38914.968242045434,-39231.02190864347,-39633.24155011673,-39950.52456265981,-40271.987351416035,-40650.201219344286,-41066.36834935765,-41423.79509494246,-41759.89827631692,-42149.891513573115,-42592.79132995503,-43026.549282854714,-43443.23050299055,-43834.833065847524,-44173.66316004553,-44499.17161454816,-44804.49644380766,-45125.31103197468,-45417.113055838716,-45739.96165275117,-46118.60020382407,-46406.89300380862,-46647.017794491985,-46828.11162806888,-47047.873979553464,-47262.96481644688,-47507.91758393259,-47733.826665142384,-47907.36560909339,-48053.32250038654,-48218.0325052777,-48348.45493417441,-48512.829662898745,-48652.77393493342,-48759.90584610771,-48891.378806993824,-48995.962619300204,-49104.90502177537,-49191.80860421761,-49209.24296489274,-49215.65791555142,-49296.68298920191,-49393.466042693384,-49506.32000044823,-49601.873707994666,-49701.137805120685,-49723.13192166471,-49670.046528583356,-49657.88717959967,-49630.57334787528,-49611.9096412551,-49603.684199295545,-49542.55217821028,-49474.80404076625,-49376.47871690735,-49339.397172856,-49326.38845758301,-49226.72202905679,-49084.87785874341,-48939.0997814059,-48833.66660281022,-48723.4501509011,-48623.09081829677,-48432.40808634855,-48281.578514764136,-48134.057001359106,-48010.943592899275,-47873.502716243594,-47684.25049594051,-47456.575626918755,-47284.35543589061,-47142.7794865107,-46971.20749607176,-46764.56561858245,-46626.387134359735,-46532.733325092,-46339.10016287568,-46143.36593668055,-45981.49460333522,-45792.39884524332,-45570.334264079844,-45374.3094652068,-45215.7238382964,-45079.15467967447,-44879.218325521746,-44688.26737264006,-44530.39700155223,-44364.770575138406,-44200.03821850279,-44052.56140858668,-43848.892313109915,-43668.40197663331,-43580.783138368504,-43489.74448320204,-43319.73711487497,-43163.83369729921,-43023.42003863097,-42845.38839404445,-42646.8154963035,-42510.35809640385,-42383.601353597805,-42275.3295034563,-42156.44057469852,-42011.71302935041,-41815.12943686598,-41642.43985920428,-41490.20212771918,-41350.481373129056,-41217.55554885335,-41013.372363254115,-40809.07741893261,-40704.515958370685,-40547.45025008324,-40325.475075897586,-40158.61930353872,-39953.00560629435,-39785.68044730192,-39687.064550765106,-39626.312509335585,-39507.06595266652,-39390.769826265554,-39291.215156461614,-39141.74904128898,-38993.53462380584,-38844.62730224458,-38725.20193161988,-38547.48321145573,-38363.394244121824,-38234.84936175935,-38066.272505077424,-37847.471278604426,-37616.08602000309,-37447.4868115767,-37336.39864163383,-37209.17251219422,-37143.43603175116,-37037.354652566275,-36876.31033376579,-36751.073509582704,-36648.63546474403,-36555.29457989867,-36444.40757565589,-36369.57393521952,-36282.22331788818,-36168.095310699384,-36018.74095424902,-35850.27585628937,-35785.768721791355,-35770.48012858393,-35711.91855811102,-35633.66510077299,-35521.302881396165,-35358.269257339154,-35254.35599736643,-35245.28118911757,-35239.31327334801,-35168.23472598013,-35040.248637229044,-34924.064269550356,-34856.78551873988,-34814.83129439727,-34742.232828406435,-34642.65580685804,-34504.58908135761,-34426.96147286433,-34393.99264979275,-34365.29300991214,-34341.19782938932,-34288.73828515271,-34229.88614200189,-34166.116615070896,-34106.66097481978,-34071.233459858115,-34005.742848604066,-33986.25212743904,-33989.53783387397,-33958.53596431446,-33937.74884197102,-33923.98016738655,-33916.1570568272,-33884.66344888967,-33867.117329492256,-33820.40218358066,-33778.962049360525,-33738.93007504107,-33721.96510099949,-33682.827196458245,-33661.213059569964,-33641.63293142711,-33622.5892451512,-33627.01489055334,-33661.88361190362,-33719.2605399204,-33767.98734283297,-33836.18251516611,-33976.12678720079,-34122.1060302384,-34289.16296829736,-34450.430804542404,-34683.80536840026,-34905.109990252255,-35192.1063890584,-35486.836491446076,-35808.94748079151,-36159.981627462104,-36488.909898866405,-36794.74881824837,-37137.334005514866,-37471.15730895488,-37848.94649373848,-38218.17496039569,-38574.104139102004,-38937.38704173411,-39275.9712667431,-39639.05300367511,-39989.66246720105,-40278.71522649709,-40570.47254687221,-40865.6943876379,-41169.92398141909,-41430.05358338995,-41705.22590937924,-41985.047398215225,-42260.756166071435,-42512.83914003839,-42713.49075001368,-42915.036429767184,-43168.37110142364,-43390.7933104984,-43651.191133402725,-43859.88937138193,-44020.84428320459,-44175.89833449106,-44323.10692347371,-44436.81024751786,-44587.908040035734,-44788.91727792231,-44974.10148073453,-45123.12056101806,-45198.73651251036,-45273.88307736911,-45420.95755588503,-45518.85819659927,-45602.90075575122,-45630.54986364244,-45691.10073937187,-45783.502850950106,-45840.43274407778,-45868.48418336918,-45912.673582157324,-45951.565617509565,-45946.75999245167,-45835.9176916978,-45798.99260985763,-45791.124795809366,-45710.68086751472,-45609.40511338772,-45523.52971119043,-45422.16455008561,-45298.313534058754,-45176.85415468862,-45062.50263005527,-44912.38831429343,-44773.53927773706,-44634.466723736135,-44509.274603041966,-44385.73651143748,-44230.30248049527,-44032.2436728768,-43819.745638340195,-43688.54089838754,-43582.77244362503,-43399.957525725076,-43168.54991537928,-42916.42223792341,-42705.51117724314,-42533.290986215,-42292.20507052005,-42048.526352468296,-41870.89703928197,-41649.123030796414,-41429.38303105629,-41204.233909157985,-41020.502569735356,-40861.29109398021,-40672.57531554405,-40459.2502664626,-40239.15263881119,-40029.4485723315,-39883.1117013826,-39747.50366777225,-39587.37577049444,-39378.27520111504,-39203.12693156325,-39048.13993551015,-38862.821622231204,-38658.99606454326,-38510.60283310447,-38353.15714516129,-38109.25490966498,-37887.68206687952,-37708.979869959345,-37528.824809649566,-37375.93887757527,-37190.44175034067,-37016.098143589275,-36854.98676955543,-36723.44675343594,-36554.10993744254,-36389.33287731801,-36246.41582327078,-36084.343324225345,-35885.748074739946,-35713.30436626725,-35533.886913524504,-35329.41315524735,-35191.97227859167,-35018.723907318585,-34810.13742806166,-34677.18925204149,-34542.78821263173,-34392.45037942533,-34201.074743398996,-34033.07903207291,-33869.24074521551,-33715.46074336299,-33556.02575016329,-33409.9347484034,-33291.82813070156,-33137.6234457044,-32979.820129849926,-32850.51528817598,-32706.01126027242,-32506.63369973108,-32360.162718315452,-32269.48169106027,-32227.795687651123,-32124.910607923342,-31982.194719576208,-31878.169700881208,-31811.762668104493,-31713.41499250114,-31600.426924279564,-31443.51767820331,-31326.90862737997,-31262.334437648587,-31125.184133670824,-31034.816030838017,-31013.537170116568,-30898.58214838292,-30736.196724915117,-30661.921878090132,-30592.743229000956,-30466.36646585065,-30356.0159034748,-30306.260920317283,-30258.875222072034,-30204.49342781227,-30127.648130374928,-30089.493702589716,-30052.389806793908,-29982.74177107117,-29873.307630217987,-29704.39549736923,-29588.591109346286,-29531.482402262976,-29534.79046044236,-29522.98873936996,-29484.27551797337,-29472.49614864542,-29479.53694814884,-29448.512726844878,-29403.697479211987,-29374.796673631274,-29350.165051241525,-29309.19430365495,-29245.804756379697,-29209.125543728536,-29202.621186092045,-29184.136293427506,-29193.43461912091,-29192.62995632052,-29207.851494294584,-29199.35783140157,-29146.495955764767,-29107.648623901445,-29084.358106179014,-29102.37361220999,-29097.746801107744,-29117.7739641397,-29186.77379927323,-29190.461837108356,-29226.962235803872,-29264.401407766512,-29266.61423046759,-29316.61508281411,-29310.960091466917,-29329.221466686904,-29362.100882780658,-29335.591713856666,-29302.891111718553,-29332.95420801094,-29361.072702535716,-29342.341940682167,-29312.256492645323,-29279.868814929585,-29274.83967242714,-29338.363330169122,-29439.281456384833,-29532.667044719106,-29635.999159335992,-29763.068826564413,-29958.467776592708,-30218.418564607928,-30476.64826830009,-30742.119937195774,-31049.43407171179,-31356.323523083156,-31712.56562621184,-32090.44421797326,-32469.306286490715,-32813.724316802545,-33105.19106449975,-33454.95116173639,-33902.65660317619,-34336.92864619835,-34728.598264288696,-35135.958806986666,-35491.798578715156,-35850.45467024502,-36194.71623834565,-36601.473283943335,-37031.43144028562,-37354.10122324243,-37665.617485716044,-38025.927606335594,-38430.62829144338,-38797.68863888844,-39055.694825136045,-39283.16852845771,-39578.703293645776,-39918.382754133076,-40223.126438036736,-40533.860389454414,-40790.77134022371,-41035.09825886467,-41221.556511110844,-41389.976905581585,-41578.20094563973,-41774.78453812415,-41994.144558208536,-42146.78462109383,-42348.933797947626,-42544.55626542047,-42703.723037686716,-42865.30379835413,-42930.97322356382,-43015.82044551617,-43109.451903039444,-43240.0084424029,-43266.629370049166,-43312.405742693634,-43377.82929871432,-43424.67855509264,-43492.06906462539,-43538.38187913679,-43540.66175707123,-43550.027137998004,-43488.82806167937,-43453.132325784245,-43469.94083761464,-43436.05559302039,-43354.00233912496,-43262.494297324934,-43172.70733984796,-43084.306190527226,-42999.48132031933,-42849.32230106858,-42703.991258620175,-42511.945070260175,-42357.6956817741,-42214.53275853786,-42016.74217185285,-41851.316911139125,-41634.43793468928,-41422.61045248633,-41176.137766377666,-40915.73994347334,-40699.86679552398,-40516.22486307918,-40331.197122478145,-40111.814750649304,-39928.53044611579,-39795.93989800691,-39598.50693923318,-39366.02644515353,-39179.63524814072,-38948.42880349503,-38640.578227112084,-38387.77999732256,-38174.16437556319,-38018.529178920886,-37857.6860258205,-37649.23365703031,-37466.597553085994,-37207.54083484898,-37022.669556459135,-36826.0412604858,-36651.96587466787,-36424.98390972423,-36184.948526018685,-35991.18125333563,-35865.65385647462,-35762.03116917982,-35583.64189668201,-35360.25856259568,-35157.86351655287,-35005.1116949453,-34877.70675155005,-34655.08337677519,-34459.90794419145,-34310.55358774109,-34137.171106001275,-33926.19299008763,-33743.55688614331,-33584.59127957717,-33400.099980843064,-33210.512484373154,-33074.479767618155,-32965.135033742794,-32778.09563614078,-32542.77647051531,-32360.83327064911,-32214.250530511206,-32046.903019774323,-31907.964576240134,-31779.33028689984,-31640.861229999213,-31441.66248341352,-31235.71351000232,-31079.273650559626,-30899.5432733945,-30714.783753726933,-30497.882425532633,-30380.178139230986,-30189.406000304938,-30005.965233560233,-29862.399978923797,-29728.02129125849,-29546.413367559122,-29353.361350698633,-29200.073087224137,-29062.386341379446,-28860.99712383713,-28722.371604725315,-28623.733356444045,-28507.057250387345,-28373.215004588965,-28232.01903486479,-28120.439126543897,-28052.378064677487,-27956.69024666432,-27857.247335582655,-27790.907358039305,-27728.277770075532,-27700.96393835115,-27606.99720466104,-27394.65563233562,-27275.654944855567,-27232.15845014554,-27191.85825489262,-27115.41528885547,-27032.244447737274,-26917.892923103922,-26807.20708456124,-26776.473435935193,-26739.23542967265,-26731.63583655785,-26700.656318742793,-26630.583599875405,-26550.407892514217,-26427.56270498785,-26334.31122712031,-26219.736185042406,-26121.723785605885,-26103.30594817471,-26097.382735894054,-26091.325413146667,-26094.119381203578,-26112.35840467911,-26021.789136146206,-25933.924428692393,-25924.2684750877,-25942.3733880965,-25907.92934989087,-25862.10827375749,-25851.06651199657,-25820.288159881613,-25742.504089177142,-25689.41869609579,-25691.74327751914,-25642.010646106082,-25590.042840247494,-25603.230369476125,-25625.872686609353,-25651.174861332758,-25661.099035870917,-25696.168922921293,-25725.203838968737,-25734.85979257343,-25694.023155453582,-25660.428483537256,-25662.663657982786,-25667.64809699632,-25655.37698929036,-25672.073742398472,-25701.734507290665,-25676.052352911516,-25674.733599988653,-25682.75787624811,-25703.969681736195,-25706.89776025984,-25670.732637731155,-25612.528695169534,-25610.002948046083,-25607.812477089465,-25597.418915917748,-25663.13304461635,-25718.56537086551,-25737.81022284153,-25739.91128682033,-25754.23875501618,-25765.39227549938,-25821.91983722685,-25899.16746606439,-25879.095599543525,-25885.532901946655,-26006.23232200531,-26129.233971742866,-26283.840988140226,-26540.43901448715,-26775.244089990152,-26989.060877449618,-27199.86017940762,-27451.943153374574,-27765.94045948273,-28074.88627134398,-28408.597816061716,-28774.205300117173,-29169.875880465017,-29589.66399308014,-29983.635840849383,-30333.75356599731,-30719.18704738463,-31092.528235021622,-31504.51558882184,-31967.822547891446,-32425.116887702574,-32875.21396579909,-33299.67359300537,-33578.77982601879,-33889.49142569202,-34225.41579311083,-34592.81141672271,-34928.78048763043,-35287.83891056048,-35587.59815545061,-35889.3243538528,-36226.63452942783,-36537.301425612146,-36849.3988334416,-37082.48282462154,-37356.24699071014,-37620.91399680543,-37902.72479089794,-38135.8534855668,-38297.90363286777,-38489.39102761639,-38708.4381232784,-38831.2162555714,-38975.22854509694,-39147.20286693607,-39255.988807200054,-39317.76902887452,-39399.03997171402,-39533.329252401505,-39672.29004768015,-39743.34624330357,-39805.32763067813,-39838.631729916546,-39890.24190786385,-39970.66348441404,-40003.49819701889,-40000.43600802851,-39989.99774336788,-39972.89865885957,-39934.85598979664,-39853.18271555695,-39831.45681994639,-39802.623069599045,-39760.937066189894,-39686.46105366481,-39589.00744783967,-39540.2806449271,-39445.66571064779,-39333.34819475987,-39236.92276917968,-39105.65097399366,-38974.49093752992,-38824.39897351253,-38624.12734319298,-38419.34066049346,-38236.928073993695,-38107.39971487519,-37926.7529161874,-37742.68630059795,-37498.269974979165,-37219.610776854846,-36981.65410538365,-36759.254248053345,-36546.91267572793,-36381.84504292549,-36238.570360966965,-36060.449309402626,-35839.54701895083,-35624.79145822424,-35447.38566248246,-35278.94291626727,-35063.8744311183,-34879.42783587311,-34663.42057745702,-34466.16643263894,-34332.212428118284,-34141.19442000323,-33892.37480072675,-33660.81072816977,-33429.201952123876,-33232.86422882846,-33052.46329932968,-32877.538547222444,-32658.7596724939,-32473.128434792572,-32273.70617076232,-32050.747519820634,-31833.220342781588,-31637.821392753292,-31468.395169782067,-31353.283685837232,-31178.805968619108,-30934.300236022504,-30703.518474521457,-30528.213742758486,-30343.275409135273,-30161.242802291254,-29989.13436998539,-29770.89193712377,-29593.910824526647,-29398.35541228717,-29225.397613692003,-29163.706798995354,-29031.943265431317,-28865.37806575037,-28685.468874629605,-28475.63069768318,-28281.148169177555,-28066.437311939873,-27880.80607423855,-27691.822074868927,-27527.424994400146,-27325.767555924365,-27131.575600096658,-26937.785975669143,-26786.598776173447,-26681.322059788952,-26555.25822106102,-26392.582224915295,-26213.880027995114,-26050.44407253791,-25966.356809897043,-25885.287032757646,-25777.395162271878,-25690.84920774093,-25608.661843378766,-25448.913925756686,-25297.592615794256,-25220.747318356913,-25139.27520981732,-25072.130569473575,-24953.12988199352,-24848.59077317605,-24767.208071614277,-24694.296681201064,-24573.1502262533,-24473.349687260354,-24371.78336045544,-24238.27639082389,-24164.940317266028,-24068.51489168583,-23956.286782775736,-23844.70687445484,-23775.751742810222,-23759.971411224775,-23706.729555932234,-23669.692715369787,-23586.700688207235,-23480.93223344472,-23345.257144601008,-23205.11170686623,-23122.901990759612,-23057.836062650214,-23033.47266119393,-22955.30861083372,-22887.49341815632,-22853.250545650786,-22831.74816748478,-22740.709512318317,-22723.11868943199,-22680.136284844433,-22582.70503076375,-22494.348584931922,-22485.0055557496,-22481.74220105913,-22491.554616875008,-22474.768456789072,-22480.26698592508,-22485.944329016726,-22460.39628510431,-22481.250462681113,-22482.59156734843,-22467.526491585555,-22478.791770791027,-22488.134799973348,-22441.129081383835,-22422.19715383019,-22415.134002582312,-22425.214639331658,-22411.714185680652,-22402.974653598627,-22358.00294375455,-22336.075882443893,-22369.849368315863,-22373.24683347307,-22385.205016756656,-22405.746269911084,-22402.415859987243,-22354.56077510843,-22368.932946793193,-22404.38281349931,-22389.317737736434,-22402.95230185417,-22385.026202801015,-22416.855086905372,-22475.282546911545,-22499.757707090106,-22525.17164053579,-22527.74209114815,-22615.09270847949,-22657.71748515576,-22648.28504899562,-22647.458034450774,-22701.795125221626,-22728.863087757003,-22739.74838730674,-22762.36835269551,-22841.71704551185,-22920.10461331661,-23062.887556897113,-23315.70813843109,-23593.696784221745,-23797.27647272068,-24015.787126515763,-24277.034315709392,-24557.682819090227,-24877.089247356565,-25194.484018621926,-25477.501806915025,-25781.418476273833,-26179.88302467859,-26594.709050024638,-26954.102749121517,-27372.974440213973,-27754.652828532795,-28100.36726002303,-28468.992229579955,-28833.07979501245,-29205.504561126778,-29562.976010200502,-29930.036357645557,-30308.361984296083,-30667.241593270493,-31014.922978272796,-31319.62195868754,-31653.668779572105,-31968.29193452501,-32247.62168498298,-32514.25564459034,-32779.14616813018,-32948.68414982368,-33146.65355046434,-33396.188425563385,-33632.982806322914,-33782.82890115129,-33972.99754297704,-34230.981377480195,-34446.29573181817,-34598.51111155881,-34751.7546715444,-34889.66493483364,-34970.84647069532,-35080.54883248196,-35188.77597913456,-35264.16841318231,-35371.36737958996,-35453.57709569658,-35558.96557080335,-35624.411478568494,-35672.020694258295,-35754.76685223184,-35789.43440788203,-35805.17003597856,-35849.49354523344,-35867.33023730877,-35843.05624283031,-35809.48392265844,-35749.69300624049,-35722.133305327094,-35646.092670690145,-35570.49907094229,-35484.91424142292,-35370.71917900076,-35225.030508641066,-35121.94426321319,-35022.21077945361,-34878.71258005054,-34757.186145447035,-34622.62864382609,-34532.39465146001,-34432.7282229338,-34253.40017716887,-34016.851665598355,-33808.84633169727,-33653.255838543875,-33470.12799622154,-33269.27522054616,-33054.72082551966,-32855.589134167334,-32663.140614407137,-32543.469374593424,-32483.320830264194,-32391.07518089714,-32247.107594860507,-32033.58138007896,-31797.81517956438,-31602.170360347078,-31409.699488842427,-31250.108033431537,-31041.163926263325,-30849.92240070372,-30692.20849182707,-30528.772536369866,-30432.369462534127,-30308.160818595985,-30150.58102018607,-29990.98956477518,-29853.839260797413,-29694.024287941967,-29543.977027413493,-29441.851906997195,-29313.08350719017,-29140.259819061735,-28978.41083746086,-28848.681312642257,-28705.473685917103,-28551.13489045321,-28334.27826574782,-28147.32827512363,-28069.007762552235,-28017.799916005126,-27895.960556979247,-27691.95618533566,-27556.728131381053,-27399.349498671236,-27248.96696197593,-27134.213105942385,-26968.363162084006,-26811.275102052106,-26610.89171301028,-26417.70558568306,-26272.955688590493,-26114.83944831365,-25977.018592002227,-25804.463124807255,-25657.478053269155,-25523.881676659785,-25397.41550653166,-25274.637374238657,-25139.25285807286,-24980.734286395826,-24834.687988124846,-24715.687300644793,-24584.147284525312,-24457.614059163818,-24334.09831930379,-24175.423285415567,-24053.31570545622,-23949.156576294492,-23826.512554468223,-23692.759715647666,-23596.58015925648,-23485.246120124593,-23375.81197927141,-23275.9443850451,-23159.15652026612,-23041.563992686748,-22962.59527952615,-22841.739397256304,-22727.700797045327,-22607.537818853598,-22498.97539603417,-22395.687984906195,-22269.937070600638,-22127.75762412043,-22032.293323551814,-21880.055592066718,-21746.436863712894,-21684.522531571693,-21676.47590356778,-21604.346824210505,-21525.825145939012,-21441.00027573112,-21383.89156864781,-21317.37277714882,-21262.856872422322,-21169.538339321418,-21038.534765068864,-20932.453385883975,-20890.40975456354,-20878.45157127995,-20866.56044322973,-20807.887114034547,-20717.29549375719,-20641.09839690905,-20570.712753619286,-20506.49619179919,-20438.636295632878,-20325.447061711202,-20289.036069993504,-20189.123772278283,-20060.62359340472,-20012.857915503733,-19980.80551395482,-19957.023257854373,-19931.855193597698,-19897.008823991877,-19866.275175365827,-19818.084814320187,-19719.75949046129,-19632.006541729756,-19663.32133571164,-19593.695651733356,-19511.642397837924,-19479.56764454456,-19466.447170549294,-19447.89522265139,-19339.15398587632,-19267.963679786168,-19199.2320655861,-19143.46446317011,-19137.87652705628,-19115.435375623154,-19105.511201084995,-19155.757922620527,-19170.93475710568,-19137.474195656087,-19102.896046983726,-19086.087535153336,-19129.226401952077,-19148.203032994632,-19134.479061899074,-19169.437190227174,-19171.359440250333,-19225.629475787817,-19279.854807836393,-19390.98768126818,-19501.181781432842,-19612.091137420077,-19794.660186131023,-20058.902509081665,-20317.98157906313,-20584.190855525834,-20854.82577739069,-21143.789129708905,-21453.405493903818,-21765.771122666734,-22106.94815003254,-22416.832735160915,-22741.73769256326,-23167.717238392503,-23525.27809444405,-23855.659229237943,-24224.708881939518,-24579.38636295633,-24928.98999798179,-25262.85800491071,-25605.912578810763,-26000.756144613762,-26360.686285577573,-26756.021589758588,-27118.745698779312,-27387.056039220817,-27648.794966792462,-27932.05862427457,-28282.60103256715,-28611.104620826798,-28925.370147868416,-29197.882616267518,-29472.384389923143,-29717.918302764694,-29879.409656454285,-30080.91063271888,-30303.19873132691,-30470.233317641418,-30675.98112535252,-30899.40916292777,-31103.882921204917,-31280.819330313127,-31414.59452087814,-31483.974335667415,-31556.304580724787,-31651.54536384885,-31808.186388991642,-31916.79351529998,-31995.158731360287,-32085.079799303985,-32161.478061852227,-32261.233897356262,-32334.279398236205,-32333.854715091555,-32311.078287491597,-32335.374633714517,-32338.146250026974,-32305.6244618445,-32274.39907484044,-32266.598316025535,-32269.213470126808,-32275.494310318747,-32214.496399700216,-32115.902854907854,-32049.24995294213,-32000.74666747411,-31979.020771863554,-31907.539893095483,-31755.10099591029,-31614.285005841855,-31553.53296441233,-31546.71568235346,-31389.31469789919,-31215.909864414916,-30999.7684955321,-30799.787437890463,-30556.80162391682,-30364.107234967618,-30201.58770103308,-30042.622094466937,-29859.71776958916,-29636.446194225096,-29330.450812631945,-29063.57098383558,-28909.031022671585,-28705.339575450373,-28458.553964919327,-28240.78091869127,-28042.185669205868,-27854.788643692573,-27630.80181250594,-27425.3222257283,-27260.92514525952,-27051.668113668933,-26779.200348758743,-26558.36511354031,-26367.145939725156,-26157.50892847883,-25914.277245316178,-25669.92797493076,-25429.356149358293,-25229.240981249928,-25084.513435901816,-24951.721722092836,-24805.42955463285,-24583.454380447198,-24340.312104262364,-24154.323238649755,-24007.159353156014,-23812.587417672567,-23667.34578220198,-23523.981693265643,-23350.710970248103,-23197.6238724737,-23042.167489787043,-22835.45855706436,-22663.372476502955,-22493.767439576084,-22338.735740034073,-22154.66912444462,-21921.495726286856,-21789.12869562253,-21698.604130578537,-21559.08454168851,-21405.349243324905,-21233.30786625241,-21031.963352199004,-20895.103620899157,-20775.92411946346,-20611.527038994675,-20441.22909798969,-20278.418991377235,-20142.69919904461,-20023.407938886638,-19852.752369970367,-19704.023862364753,-19542.800729608625,-19379.16360845132,-19205.46820228913,-19017.33356920881,-18891.761468858895,-18731.18653669197,-18531.607810450532,-18373.625680640424,-18262.649269419824,-18176.013907911052,-18019.909324635188,-17889.48689573847,-17773.928376904532,-17649.853843433124,-17550.388580607007,-17488.720117654815,-17433.891288505947,-17353.38030497793,-17230.64687617384,-17128.611162735364,-16999.08280361686,-16899.751651257473,-16862.178368828103,-16742.104797614193,-16674.267253192338,-16622.590020011667,-16513.871134981055,-16423.86066005953,-16319.321551242061,-16242.342143337983,-16210.02152085561,-16154.253918439617,-16051.860577089856,-16004.631341055792,-16018.489422618082,-16001.59150380987,-15946.896785127734,-15926.713159884592,-15856.506330550472,-15797.07304204381,-15736.321000614287,-15649.484473405419,-15590.542923276775,-15546.398227977543,-15500.666558821984,-15428.001037597782,-15331.75442597323,-15348.361772103523,-15346.528929058186,-15336.627106264486,-15364.56678683362,-15333.98960041876,-15290.64956791992,-15260.251195460702,-15252.763361068173,-15274.60101540101,-15334.41428356341,-15352.51919657221,-15301.3113500251,-15276.299747979612,-15225.002494454682,-15211.926723948327,-15287.050937062615,-15313.090719353047,-15283.720527138774,-15227.505889833677,-15199.007415653161,-15188.77031669263,-15193.955921406261,-15237.027732971637,-15275.316271223579,-15294.11408831049,-15280.412468959388,-15322.500803768731,-15397.267388971733,-15431.4432062439,-15391.791211580183,-15406.319845476133,-15346.797149991651,-15297.60096044552,-15319.863297923006,-15350.887519226972,-15382.80581030915,-15361.3257838876,-15415.260543258257,-15517.430367163464,-15592.934559933492,-15665.823598602248,-15746.848672252736,-15838.222603586031,-15980.089125643866,-16143.681543312257,-16242.140977637886,-16402.023005726696,-16591.14111556305,-16803.95207452203,-17067.814417816928,-17362.2986510156,-17684.54375082776,-17977.6421758702,-18300.781345460575,-18658.498663723312,-18985.638795571183,-19344.227831867676,-19729.86247895509,-20074.906358111664,-20393.37401311088,-20801.561570353697,-21174.72394403505,-21577.189454697305,-21983.700631105978,-22345.150690692746,-22687.713526214782,-23011.83617256119,-23359.18228139666,-23704.53908497561,-24001.683175764465,-24280.320022144322,-24544.98702823961,-24819.82407806207,-25100.561988420726,-25324.213543440528,-25544.266467603025,-25736.647932129854,-25937.634818271974,-26144.522564950297,-26281.605813694696,-26424.07583285282,-26622.760489316046,-26788.25280526314,-26905.174780508853,-26990.33492688357,-27103.613567783068,-27278.135988490107,-27450.15501381815,-27565.02062857397,-27601.968062158594,-27629.147783416247,-27708.16120006576,-27791.555558628508,-27908.365775151942,-28009.418011834387,-28038.430576137376,-28087.202082538854,-28138.499336063785,-28206.58274967465,-28249.87807868458,-28246.92764841648,-28240.847973924636,-28231.951979631423,-28215.992834090335,-28132.442013316395,-28031.389776633954,-27967.664953191874,-27908.879865274415,-27844.909172643325,-27783.508930624597,-27708.831752399416,-27668.48685365759,-27515.265645416457,-27306.902683604087,-27133.766071053276,-27006.539941613668,-26876.385733650415,-26781.994316815653,-26692.676745972247,-26531.699482405125,-26343.78836676936,-26170.741161196373,-25981.064257748636,-25798.048174148582,-25609.377099201334,-25446.99167573353,-25266.09900785673,-25109.30152050275,-25012.451411777904,-24857.039732580153,-24685.668907841315,-24475.428399494696,-24293.149923461668,-24124.595418524197,-23912.678529343433,-23669.40214269187,-23478.02650666553,-23340.04918814292,-23150.260525972906,-23002.671957334514,-22823.858001692057,-22662.299592769097,-22534.425262740286,-22395.531522695008,-22229.882744536728,-22020.715119923963,-21871.159597773505,-21751.086026559595,-21611.924065580853,-21453.092569481443,-21286.21444537812,-21119.47043174153,-20973.826464870748,-20811.843372803138,-20644.94289695536,-20430.18733622877,-20312.88538132732,-20195.404612470225,-20050.252383977462,-19906.776536318845,-19790.52511340679,-19621.568277069127,-19432.539574210594,-19299.412584234786,-19195.0299376285,-19069.748409956504,-18952.871138199705,-18841.402988601087,-18674.860140664594,-18543.834214667586,-18416.6974922058,-18252.076894292462,-18112.66906412471,-18003.70430990509,-17894.337224285275,-17760.830254653723,-17647.082227120667,-17540.822033980137,-17443.1672624549,-17349.692267142807,-17203.40009968282,-16991.84083841334,-16868.123932853214,-16736.472158011456,-16599.05363310023,-16474.666175206446,-16388.209627653316,-16277.143809454896,-16201.036119584576,-16135.970191475177,-16056.46503644765,-15967.549797004438,-15883.373127385752,-15782.432649425586,-15683.257959277387,-15608.379615352109,-15488.283692393745,-15398.541438405686,-15321.316161312601,-15259.670050104864,-15173.973461863216,-15065.4557425327,-14989.213942195647,-14950.14309288777,-14938.52018577101,-14886.41826944569,-14821.374693080747,-14759.035677794896,-14678.211769844505,-14598.907780517076,-14542.290811811783,-14510.7748521298,-14452.325040379172,-14440.836243729145,-14444.278412375263,-14433.013133169787,-14433.057836658698,-14408.94030439142,-14386.119173302553,-14389.203714037385,-14301.964855428321,-14205.807650781591,-14216.067101486577,-14262.961061353812,-14224.04667425712,-14149.078923354022,-14146.955507630768,-14133.343295257486,-14117.048873549567,-14089.846800547457,-14130.75049290067,-14167.362650318462,-14200.309121645585,-14169.217845108253,-14152.386981533407,-14152.94577514479,-14155.404467034874,-14173.844656210502,-14189.915560473868,-14131.13047255641,-14072.859474761424,-14061.415381600307,-14015.147270577821,-13975.517627658563,-13940.246574908087,-13935.932688228213,-13922.096958410379,-13921.873440965825,-13943.28641215401,-13931.216470148143,-13946.415656377752,-14019.036474113045,-14050.440675072752,-14008.575857707961,-13988.1016597869,-14010.118128075377,-14027.150157350321,-14027.328971305964,-14020.9587241362,-13997.087061057933,-13988.705156887194,-14033.63216324236,-14077.553341097038,-14123.173251530321,-14151.962298388757,-14294.991111158266,-14472.553369111225,-14649.13215030815,-14818.200745368094,-15005.106032503372,-15179.494342743677,-15362.599833321552,-15584.55265576275,-15873.180731914132,-16158.05371499702,-16441.071503290117,-16744.831710437742,-17066.65212710525,-17390.9535874073,-17778.33167056223,-18143.335657517393,-18445.195966386316,-18752.264231713325,-19047.553127712385,-19350.285154615063,-19633.32529465262,-19907.782364819333,-20220.52797323799,-20486.62549097842,-20694.407307434954,-20900.691557012982,-21182.65881331668,-21400.409507800283,-21585.683117590324,-21797.376489326536,-21981.554863638266,-22127.645865398154,-22289.53955048794,-22452.97550594515,-22552.999562382647,-22661.360819501977,-22771.085533033078,-22914.986063836346,-23056.249088793887,-23164.655049402125,-23287.388478206216,-23400.421249916704,-23515.46567862817,-23561.733789650654,-23600.6705284918,-23622.977569458195,-23690.189265035304,-23790.05685926162,-23819.114127053515,-23826.914885868417,-23834.402720260947,-23846.450310522356,-23824.43384223388,-23824.411490489423,-23810.75457462723,-23776.601109099523,-23761.066646703082,-23749.779015753153,-23779.015097500695,-23739.430158070347,-23670.49737817018,-23631.8288602625,-23566.829987386463,-23511.732937304132,-23438.77684340201,-23334.014217139986,-23230.59269554528,-23134.97193276548,-23072.789379690814,-22904.212523008886,-22737.177936694377,-22624.86042080646,-22508.385480449855,-22413.882304892817,-22334.310094631925,-22250.73692211353,-22150.846976142762,-22066.51384431289,-21916.95832216243,-21710.986997006774,-21550.724989262224,-21427.969208713675,-21314.332939902895,-21197.656833846195,-21102.840733866782,-21004.649520474617,-20887.906359184548,-20797.337090651643,-20617.092623364046,-20428.33214143898,-20315.478183684136,-20220.19269707116,-20101.72845145803,-19952.53055721886,-19793.497895419347,-19683.08027781013,-19588.822971442103,-19484.03799343562,-19410.12077452192,-19336.427073052775,-19179.83075139889,-19026.3413222243,-18827.902534950084,-18639.276163491748,-18478.008327246705,-18393.20580878327,-18279.681298694766,-18161.41821878174,-18055.403894830215,-17914.096166383766,-17800.839877228722,-17691.159867186532,-17611.475898203364,-17536.217574622344,-17432.036093716157,-17321.417310406843,-17205.724681106174,-17031.068149932402,-16908.468831595044,-16778.404030609614,-16647.400456357056,-16521.202507162394,-16393.216418411306,-16237.871794446923,-16120.391025589828,-16036.46022516015,-15919.113566769787,-15788.288806472876,-15632.832423786214,-15545.437102965965,-15424.62592418503,-15264.83330307404,-15147.821920850507,-15111.835612277462,-15080.36435608439,-15010.738672106108,-14845.380466625747,-14688.538275782857,-14527.561012215736,-14397.272693785751,-14317.722835269313,-14239.558784909104,-14155.404467034874,-14091.970216270713,-14052.340573351452,-14007.43591874074,-13916.889001952291,-13845.922213306692,-13757.118732585757,-13688.811801530339,-13594.778012606861,-13489.657758433552,-13378.994271635327,-13296.896314250984,-13248.750656694254,-13173.13470520195,-13109.678102693333,-13020.315828361016,-12930.595926117412,-12869.285091076505,-12882.338509838404,-12854.7341054361,-12792.618607594803,-12785.443697624649,-12791.43396513867,-12751.938432686144,-12712.398196744705,-12684.860847575766,-12627.483919558994,-12562.038011793855,-12557.366497202695,-12522.274258407862,-12468.920644393045,-12392.50003010035,-12341.515700997794,-12310.022093060266,-12299.740290610825,-12291.380738184542,-12278.23791244482,-12261.831732014625,-12243.927984705924,-12192.340158503075,-12170.569559403606,-12086.415241529376,-12017.303647673565,-12001.165688176834,-11996.360063118944,-12002.976179477713,-11994.527220073607,-12017.124833717924,-12061.29188076161,-12053.558177180073,-12035.073284515534,-12010.41931038133,-11984.111307157435,-12011.201621437267,-12048.417275955353,-12130.671695550884,-12239.211766625855,-12343.460302765407,-12512.260676891885,-12699.925923338644,-12930.79709181751,-13116.741253941209,-13292.649482804476,-13593.034576539349,-13877.952263111147,-14114.947809570767,-14347.003620505766,-14604.585123608724,-14854.544681852423,-15164.317508258524,-15483.701584780407,-15793.429707697596,-16080.381403014828,-16324.060121066586,-16634.369389339612,-16901.070404180336,-17109.67923518172,-17310.576714346018,-17521.89010642649,-17714.249219208865,-17917.292465840874,-18140.87696562731,-18325.949409717254,-18521.5718771901,-18659.862120135083,-18804.030871871815,-18940.488271771464,-19078.97968041655,-19201.199019098167,-19301.938331358237,-19395.03334701459,-19499.03601396513,-19596.26610234572,-19670.451542192885,-19784.33368019267,-19856.038076405297,-19923.56269640478,-19970.970746394487,-19984.873531445686,-20022.53622085288,-20012.76850852591,-20033.957962269542,-20069.139608042195,-20057.74021836999,-20041.378741428704,-20016.7247672945,-19989.030955914375,-19984.225330856483,-19985.946415179544,-19961.158330578608,-19927.40719645109,-19922.646274882114,-19900.450992637994,-19836.033265117796,-19842.671733221025,-19791.463886673915,-19743.76526400629,-19655.721742596834,-19563.073761829586,-19448.386961029406,-19305.983997104646,-19194.538199250484,-19118.139936702246,-19007.029415014913,-18973.70296403205,-18953.429931811086,-18775.890025602585,-18589.63293905651,-18422.285428319625,-18245.304315722504,-18094.877075538287,-17972.635385112215,-17851.421874931082,-17719.926562300512,-17620.707168663404,-17522.404196548963,-17395.043956642625,-17307.670987566828,-17180.847189527416,-17059.164292712725,-16993.07018435838,-16775.543007319335,-16586.782525394265,-16449.721628394323,-16298.802649832089,-16194.710575903724,-16052.50877767906,-15910.329331198853,-15743.272393139887,-15603.66339727204,-15507.461489136398,-15435.354761523577,-15376.748487561761,-15277.68555613584,-15120.865717037406,-15004.63664586981,-14864.625318601766,-14695.981406686475,-14538.133387343096,-14369.757696361268,-14173.643490510403,-14023.931506148758,-13925.941458456691,-13811.142898934235,-13673.478504833998,-13575.197884464013,-13475.084421048692,-13404.117632403093,-13251.477569517801,-13045.573299595511,-12909.60763807388,-12818.7254451186,-12768.590482305346,-12673.93084453712,-12563.222654249985,-12430.900327074567,-12310.62559016056,-12216.36828379253,-12080.514380993174,-11963.972385403204,-11872.799619770005,-11765.667708595718,-11664.011974812982,-11574.113258613737,-11483.633397058655,-11403.904724586573,-11343.331497112691,-11245.564966865179,-11103.206706429328,-11022.069874056564,-10958.680326781312,-10878.05758453102,-10798.463022525671,-10649.399238753229,-10526.911679138146,-10467.254873186932,-10387.302683270298,-10283.903513420048,-10193.557762331697,-10144.942718141403,-10083.922455778415,-10011.815728165595,-9953.120047225959,-9884.81311617054,-9774.283739839047,-9637.33460156138,-9536.416475345668,-9462.029869798407,-9364.553912228814,-9268.284948859806,-9181.24725595084,-9128.38538031404,-9140.052990919708,-9112.359179539584,-9046.019201996232,-8958.512122453705,-8847.870987399934,-8778.580579588483,-8699.880087361347,-8615.211679364644,-8570.93287359868,-8549.139922754755,-8538.858120305315,-8452.088648329813,-8369.23073163399,-8366.123839154701,-8347.12485636769,-8277.230951455946,-8233.86856721265,-8244.128017917636,-8253.292233144311,-8241.378753349632,-8166.455705935444,-8096.539449279243,-8068.6221204545645,-8064.174123307958,-8022.085788498615,-7981.0479856786715,-7980.064508922638,-7943.161778826926,-7888.444708400334,-7870.496257602723,-7857.979280707751,-7857.152266162904,-7839.293222343114,-7832.319478073058,-7855.855864984497,-7885.7177955767875,-7910.103548777527,-7896.714853848798,-7873.424336126368,-7789.292369996592,-7748.031049732095,-7719.219651129205,-7750.668555577822,-7810.124195828938,-7843.204777622793,-7834.018210651662,-7773.444983177779,-7752.479046878701,-7852.190178893827,-7985.764203758741,-8142.51698762381,-8328.50585323642,-8507.990361212536,-8691.453479701697,-8916.267325433175,-9170.63017733457,-9422.556689090336,-9604.768109889998,-9829.537252132566,-10107.257676989757,-10427.155843634111,-10769.316347755952,-11065.029926899664,-11344.96317445793,-11694.969140883582,-11978.880998954894,-12213.864888413536,-12484.902141678589,-12766.467066582092,-13046.556776351545,-13393.321739831179,-13711.364711685743,-14034.816805698492,-14318.281628880695,-14548.616355492635,-14799.492335259001,-15077.503332794111,-15261.346430939011,-15440.026276114737,-15673.24437776141,-15868.643327789705,-16034.22505071462,-16147.123711958375,-16247.617155029435,-16376.34085134755,-16556.428856423958,-16766.244681625925,-16920.806994534374,-16975.41230623869,-17003.575504252374,-17053.308135665433,-17128.655866224275,-17164.195139908214,-17195.889913545838,-17209.010387541104,-17200.673186859272,-17261.447580033255,-17357.269508513156,-17397.59205551053,-17457.98646902877,-17498.68899568188,-17551.260298640766,-17603.697491132916,-17634.83347115916,-17604.39039521103,-17564.492531358308,-17601.1046887761,-17593.43804042793,-17586.330185691142,-17571.354516906085,-17514.961065645348,-17490.999995589256,-17405.661035258894,-17263.1239608674,-17115.937723629206,-16966.31514624538,-16863.497121750966,-16779.298100387823,-16762.199015879516,-16689.891122566598,-16581.775734636278,-16494.805096960677,-16367.154284376418,-16237.335352579994,-16052.709943379157,-15859.009725929467,-15661.465008433463,-15466.602500272096,-15308.486259995254,-15202.069604643537,-15069.479056534656,-14915.47553723759,-14776.78296289241,-14695.064985163806,-14523.962381358431,-14331.69267555388,-14144.139187829398,-13968.722697344148,-13811.366416378787,-13647.595184754753,-13517.686845980508,-13381.095335614125,-13238.446502500356,-13093.137811796405,-12892.106222165374,-12712.487603722526,-12556.226558235474,-12411.54371637627,-12193.36833874802,-11995.734214274195,-11886.411832143287,-11753.307193911935,-11615.06165445586,-11473.396298098123,-11333.608488274633,-11193.731271473322,-11077.725717750278,-10941.938870184287,-10768.243464022096,-10605.701578343103,-10436.901204216625,-10303.550696796263,-10191.568457075175,-10077.99924349776,-9966.575797388054,-9814.650990325332,-9673.522075834522,-9551.570958086368,-9408.609200550223,-9223.87203262711,-9102.792632912711,-8967.475171980283,-8889.020548942155,-8765.102477681932,-8631.260231883554,-8475.53562826343,-8289.032672528348,-8142.539339368265,-8028.076056012637,-7925.146272795949,-7814.818062164553,-7673.711499418199,-7513.404788184737,-7360.675318321624,-7266.730936375969,-7120.3493619381625,-7033.714000429392,-6940.060191161656,-6822.735884515749,-6660.372812792399,-6550.9163201947595,-6521.702590191673,-6452.65805156923,-6349.7506200969965,-6294.6312182702095,-6245.367973490712,-6134.905652392585,-6032.132331387083,-5938.545577352712,-5854.30185250066,-5777.456555063314,-5646.3635738329385,-5525.306525862995,-5493.879973158833,-5401.231992391586,-5304.627752855748,-5212.896193611168,-5152.658242304116,-5086.6758926720495,-5002.879202709103,-4913.941611521436,-4848.763924689762,-4774.46672612032,-4689.664207656885,-4631.437913350811,-4574.820944645518,-4527.032915000072,-4436.463646467167,-4380.874858006819,-4336.2160725851145,-4310.176290294682,-4274.458202655102,-4217.371847316247,-4176.646968918678,-4129.2389189289715,-4116.990162967463,-4136.659698088133,-4119.918241491108,-4114.218546655005,-4138.313727177826,-4107.6694855296,-4018.8883565531205,-3982.7902892577995,-4016.831996063232,-3969.0216146733305,-3892.757462591823,-3830.776075217256,-3809.0278278622422,-3829.0549908941975,-3836.8781014535552,-3792.331074754128,-3753.662556846447,-3700.264239342718,-3624.089494239032,-3640.249805480219,-3608.309162653585,-3591.858278734479,-3616.0875697240317,-3621.9660785157776,-3600.240182905219,-3625.2517849507076,-3659.2934917561406,-3643.9378433153447,-3629.3645059304845,-3591.6794647788365,-3556.8554469174683,-3571.4958395356944,-3580.1012611509877,-3599.3908166159176,-3629.610375119493,-3633.477226910261,-3618.14393021392,-3629.3868576749396,-3661.595721435037,-3631.532625142649,-3661.238093523752,-3733.814207770134,-3816.225089576851,-3910.884727345077,-3994.7484725413888,-4150.473076161513,-4359.081907162894,-4563.600368928954,-4780.367586656522,-4948.542111938252,-5163.521190109395,-5466.70025190118,-5754.881293163454,-6040.201311135449,-6403.283048067457,-6743.834226588515,-7090.219210412409,-7449.769371720478,-7751.428514889302,-8071.684309444941,-8378.931388727593,-8655.869502528847,-8924.246898203719,-9201.587343405168,-9476.089117060796,-9761.275024566057,-10013.737978188752,-10311.37380735562,-10598.124336972754,-10875.889465318854,-11169.703146183867,-11379.407212663558,-11584.05978489635,-11799.687063656696,-12019.583525608006,-12209.305132544654,-12347.260099322808,-12430.341533463185,-12514.0041129594,-12668.275853189929,-12836.852709871855,-13008.447052055246,-13136.12021638396,-13258.518369021222,-13362.275166782758,-13474.279758248302,-13575.01907050837,-13678.529999080898,-13779.24695959651,-13830.700675332628,-13893.374966785308,-13908.171821614722,-13940.157167930267,-14019.327046790964,-14053.122884407388,-14047.557300038017,-14060.297794377542,-14077.888617263869,-14073.015936972612,-14040.941183679246,-14004.127860561355,-14005.290151273031,-14026.189032338743,-13992.639063911327,-13930.255345136566,-13912.195135616677,-13823.101082217823,-13706.402624416665,-13604.635131911653,-13556.265956910367,-13469.250615745857,-13372.579320976654,-13253.846854430063,-13104.537201468613,-12926.282039437538,-12751.938432686144,-12623.97469567951,-12500.101327908198,-12362.34752683014,-12190.999053835756,-12018.555345363064,-11914.753844112616,-11791.416918208233,-11656.702954376096,-11503.191173457048,-11330.322781839703,-11146.30086973916,-10966.12345768493,-10820.837118725434,-10595.039796237921,-10382.184133790033,-10256.477922973387,-10121.47338646333,-9901.979255912216,-9641.737895219076,-9473.965701337542,-9315.983571527431,-9184.018872263297,-9085.581789682126,-8935.19925298682,-8764.610739303916,-8596.480917511097,-8411.833156565805,-8251.571148821253,-8144.9309760249835,-8054.317004003168,-7929.817787387108,-7732.876566991397,-7566.02079463253,-7440.1357698602405,-7311.076797375298,-7171.46780150745,-7001.505136669295,-6826.490977584241,-6666.966577406714,-6493.204116011157,-6349.392992185712,-6210.879231796173,-6061.793096279275,-5916.529109064235,-5742.23020580175,-5571.328767696473,-5397.253381878541,-5192.064367778822,-5024.85096750867,-4900.642323570529,-4739.441542558854,-4592.05413962056,-4436.240129022614,-4239.589481304823,-4065.7599646758995,-3939.807884670244,-3845.170598646474,-3741.1455799514747,-3605.6493050634035,-3463.82748649448,-3338.9259384782245,-3195.0254076749575,-3033.6458127076403,-2888.8959156150718,-2790.2800190782573,-2723.8282828126294,-2605.364037199502,-2455.272073182115,-2379.522011223079,-2357.930226079253,-2241.2541200225496,-2112.1727957931516,-1989.9534571115325,-1861.4309264935168,-1747.369974538085,-1636.8629499510469,-1562.5433996371507,-1502.4619105412855,-1484.8487359105036,-1430.8916247953923,-1281.6043235783964,-1173.9583222816375,-1126.7290862475738,-1027.6438030771976,-854.3954318041125,-758.6629103020323,-718.3627150491137,-672.9663220603851,-631.9732227293518,-573.4340040009027,-474.57223827507954,-411.65207763339015,-365.2498561441727,-274.7699945890897,-178.97041785364365,-153.35531870786176,-103.08624542787618,-50.000852346521896,-21.32356421036294,39.897863852723106,121.70524855914695,233.37456385786103,306.598878693447,326.46957951421496,303.00024783614253,448.107772839996,531.2562622137383,607.9450974398968,687.1820315339603,726.1858256084712,728.063372142717,695.3627700046027,653.2967869397148,623.5019115807905,641.2939001672149,699.3413805176474,732.4890175448678,719.8155784387086,772.4092331420462,793.1069485076605,802.7405503678979,847.8016671897968,909.2913161863466,968.6351977151869,990.7410729814856,965.5059534914438,961.6614534451311,964.6342354576869,962.4214127566115,934.4593804430224,951.4914097179663,980.4816222764996,977.4641367750331,1011.9528784695719,975.8995146631617,1000.53113705291,1018.9713262285384,978.984055397994,962.4884679899774,966.1988575695584,978.1346891086923,964.209552313036,965.2153808135249,944.115334047715,898.2942579143355,810.6977713939872,646.5689118586674,421.9115283383761,243.49990409611513,36.03101206195498,-181.94319986619948,-447.90660713989826,-761.6133405701329,-1031.5553583568762,-1359.4107460273203,-1657.0018717052785,-1921.8923952451225,-2217.2036429886393,-2571.679958305354,-2899.378883764611,-3190.4433000616195,-3512.8225103405134,-3831.6924967399236,-4118.711247290522,-4424.013724805561,-4718.073274859581,-5068.414517452064,-5383.261189849519,-5693.145774977896,-5975.3141969816925,-6241.836397866774,-6452.188664935668,-6628.990963577147,-6840.885501013458,-7042.386477278052,-7226.855424267701,-7384.614036633258,-7560.991652130086,-7741.81726477352,-7916.85377560303,-8010.149956959482,-8090.571533509677,-8188.159249801547,-8303.628361657664,-8429.848662596782,-8483.694014989616,-8522.54134685294,-8556.761867614016,-8622.85597596836,-8666.128953233832,-8667.984148023623,-8663.2455781991,-8714.319314279475,-8770.623358562394,-8800.93232404379,-8850.8884729014,-8876.034185413622,-8902.364540381974,-8938.23909023274,-8946.86686359249,-8938.194386743831,-8889.646397786904,-8901.76104328168,-8871.876760944935,-8801.26760021062,-8740.180282614265,-8665.972491022647,-8585.237990050076,-8544.334297696865,-8495.138108150733,-8413.911868800149,-8335.79252192885,-8279.734346834939,-8138.51602536631,-7948.883825407484,-7817.567326732556,-7658.46760969968,-7490.047215228941,-7355.087382207797,-7230.319944658273,-7130.295888220774,-6965.585883329616,-6754.943043582803,-6550.871616705849,-6390.386091516744,-6208.912278284107,-6088.503430903367,-5960.852618319109,-5756.401211786415,-5563.975043770676,-5442.068629511432,-5287.573371836349,-5117.364837809186,-4894.4955938453195,-4767.850609761549,-4653.454381639288,-4491.068958171482,-4341.535787765478,-4117.48190134548,-3971.770879241333,-3872.1268024595743,-3760.6139493720475,-3596.8650694924677,-3408.931602112246,-3268.137963788267,-3075.2200573945115,-2889.5441162042757,-2771.415146757978,-2660.259921581736,-2533.88315843143,-2411.5744127719895,-2319.0381907270184,-2169.5720755543803,-2027.9514226855545,-1903.7427787474132,-1758.3446810656408,-1647.792952989692,-1532.8602830005032,-1426.2648136931437,-1295.2165359516785,-1122.3704960787888,-974.6701687181197,-853.2554928368918,-741.5638257937225,-595.9422106673969,-431.9698133432643,-280.8943725698439,-108.45066409714987,39.27201500797451,156.68572863170252,286.1246807723857,407.6064118869796,529.1328464904841,671.5358104152454,749.9010264755519,871.7850889903414,1036.986832259516,1168.750365823551,1259.811372734472,1321.904518831315,1417.2347089331997,1611.761940927737,1780.562315054216,1893.9974181648993,1966.0817940332645,2098.739397375512,2168.186267398151,2277.1957251066838,2426.1253984123946,2559.4759058327563,2653.4873430117777,2729.8856055600177,2788.4918795218327,2840.839665036162,2942.4283435855323,3025.9344608705596,3141.6270901712287,3235.236195950055,3316.7306562341046,3316.8647667008363,3376.9909592856125,3494.538783376072,3597.8485462485014,3638.662831623892,3705.2263266117966,3736.5858240825924,3788.3748159855386,3847.8975114700215,3944.4123440280373,4038.870816096165,4109.52468031939,4151.30009070636,4185.386501000703,4241.489379583523,4319.47461598809,4423.790207361008,4485.972760435672,4549.831694344484,4601.978314158716,4718.877937659971,4775.427851131899,4769.884618506982,4799.500679910264,4816.4880056962975,4850.4179537794535,4929.788998340249,4981.175658843,4989.870487436115,5040.564243860751,5134.150997895122,5199.239277748976,5264.975758192034,5337.395410227229,5431.9432892731775,5488.023816111543,5454.026812795021,5448.036545280998,5471.930560103722,5472.489353715105,5449.578815648415,5488.672016700747,5522.847833972912,5501.077234873443,5451.702231371669,5335.651974159715,5233.549205487872,5125.389114068641,5039.267842682343,4944.004707813824,4764.140220181968,4517.2428509286465,4238.583652804334,3973.8942949645875,3741.212635184841,3487.83326003948,3223.9262132556696,2948.642128544108,2623.9606885863172,2294.0265886815296,1958.2139799849965,1623.921289911424,1286.812280036483,930.7266391189861,600.2784490917264,243.20933141819614,-20.45184617660596,-283.50952667111477,-552.7586403797436,-788.1672129830376,-1019.5748233288317,-1239.0018986465811,-1489.252029568199,-1743.816047169691,-1914.717485274969,-2120.308830774883,-2338.1936357252166,-2467.29731169907,-2648.7934766761637,-2849.8027145627398,-2956.4875908479203,-3071.6437782816624,-3182.82135520236,-3298.290467058476,-3427.9082331548016,-3555.760211439158,-3671.9669308622997,-3779.590580414603,-3905.6320673980795,-3996.6260190756348,-4098.348808091737,-4194.215440060549,-4277.296874200925,-4334.316174306414,-4381.187782429192,-4358.523113551511,-4414.469529923145,-4482.21766736718,-4521.690848075253,-4562.102802050448,-4586.712072695741,-4568.450697475755,-4601.017189147137,-4641.965584989261,-4575.156220812348,-4461.587007234933,-4363.820476987419,-4337.557177252434,-4307.002342582028,-4229.486492811024,-4115.604354811234,-3987.17123117104,-3860.19097092044,-3788.911257852466,-3689.2895328151626,-3582.179973385331,-3490.2696001851086,-3331.8851389748024,-3178.9992069005025,-3025.3756672591767,-2900.563526220742,-2727.4939689032994,-2532.5420537641116,-2323.441484384714,-2206.541860883458,-2087.8540978257774,-1914.5386713193263,-1699.1125582590769,-1462.9440263443025,-1321.5692426644855,-1155.6298918282857,-997.4465963180777,-837.2516438068919,-659.644682365022,-505.84232876805413,-326.13430334738536,-143.31938544742889,-6.884337292234576,112.20575716564146,315.8525008979441,469.3195783280824,558.0336520711961,695.1839560489602,864.3419580867242,1029.7001635670858,1178.205153728146,1322.709181631706,1476.8915148844142,1673.2515899242867,1868.4493742524833,2030.320707597817,2189.7109973086117,2347.17903699625,2525.076571116039,2741.843788843607,2928.480855045421,3108.904136288659,3248.3119664564097,3396.191107772721,3599.1449474269093,3793.8286416326337,3939.651422459057,4059.4344209950473,4182.279608521415,4318.893470632252,4465.610321236887,4639.551596588087,4798.137223498491,4922.144701736534,5088.061700828279,5250.715345229548,5368.531390253472,5452.529245916516,5516.209365869685,5633.488969026682,5814.0687124811075,5951.733106581343,6135.4420942595125,6315.0607127023595,6408.535708014454,6490.410147954243,6593.563448615486,6743.81187484406,6914.4897955047845,6999.4264244349515,7123.433902672995,7263.624043896681,7360.004765987965,7426.948240631609,7547.714715923634,7668.749412149122,7773.400279688869,7903.241563229748,8030.892375814006,8126.490786849355,8259.170741936057,8415.744711845484,8515.679361305161,8596.793841933471,8634.903566229768,8675.583741138427,8700.260067017087,8727.14921559682,8832.94002210379,8891.881572232434,8939.066104777588,9016.939582459878,9130.262926848285,9227.895346629066,9285.7416612794,9351.321679511271,9414.398302364149,9513.774158212444,9567.731269327554,9639.592127751366,9773.36731831638,9861.4778949592,9846.56928140751,9824.105778229927,9813.958086247218,9860.226197269702,9929.606012058975,9985.887704597439,10034.03336215417,10111.035121802703,10150.307136810678,10233.567384906697,10281.020138385313,10276.616844727618,10276.84036217217,10312.84902248967,10339.42524664703,10366.917892327057,10377.1996947765,10417.298724329321,10468.752440065437,10517.792167400381,10562.629766777727,10552.549130028383,10594.503354370994,10588.155458945688,10616.09513951482,10640.39148573774,10644.101875317321,10676.623663499793,10669.180532596176,10684.245608359053,10666.87830291728,10672.577997753382,10713.16876568422,10698.036634687976,10689.386509583774,10705.703283036148,10718.309666908941,10665.15721859422,10664.866645916301,10661.089201103354,10629.550889676917,10638.402180481218,10616.475119170562,10612.563563890883,10599.733662573537,10640.838520626847,10673.15914310922,10692.538105551972,10651.612061454303,10682.144544380253,10675.461372788117,10621.884241328746,10596.425604394151,10564.686127267614,10463.83505628527,10365.57678765974,10199.838602523638,9932.601145815986,9729.893175350808,9520.971419927051,9303.712463821466,9089.269827517252,8842.305403030563,8503.2070878991,8138.136045710569,7821.612992478967,7464.8120957389,7080.786774252269,6687.284313116588,6370.0013005735045,6062.843628268675,5701.147699492896,5356.72966918107,5080.193886780011,4774.8690575205155,4480.809507466496,4148.304956949349,3831.8042554622,3556.1401910948985,3323.100903403867,3057.852751952738,2819.449045592433,2546.4001353264016,2255.5592364739464,2063.26717892494,1877.010092378866,1603.2682780347202,1362.4282315287867,1162.4248221426992,979.7440147094745,777.8407070446858,638.5669873436675,545.1590472649392,442.02809834815247,314.44434099725976,198.59524948540326,89.96577143261092,-12.628735617248491,-155.702251875669,-291.42204420829347,-371.2624754026503,-442.4751332372586,-509.2621456697161,-519.7674655637104,-519.879224285987,-550.0987827895622,-592.9023734214751,-622.4513795913911,-637.0247169762513,-648.93819677093,-654.4814293958461,-675.2685517392816,-681.7729093757761,-687.8972873565301,-611.45432131938,-581.3465215380814,-598.2891438352042,-556.1114020480397,-456.9814153887529,-396.7211123372451,-333.30921331753893,-283.9565615602209,-257.1344682138525,-185.25125804558493,-50.09025932434313,62.54018098594916,190.21334531466312,313.2149950522179,446.94548212832,660.2705312097706,878.5800193047547,1032.5835386018205,1235.358564300366,1419.80515954556,1566.2537892167318,1744.0172128697889,1937.1362849636419,2093.7102548730677,2317.4065133817808,2517.6110884679665,2690.323017874124,2846.673470338997,3046.2298448359784,3285.415862252219,3465.6156260509047,3618.501558125205,3788.754795641279,3952.883655176599,4138.716058578022,4321.2404038000595,4514.806510783018,4690.379463479455,4871.942683689915,5025.700333797972,5165.041108732356,5293.42952888364,5470.611807180859,5684.473298129237,5888.589428495101,6092.370282694135,6229.252365738436,6343.380372927234,6493.829964855906,6684.8032694820495,6894.976722595302,7085.92767547699,7320.553937024348,7492.707072819123,7635.378257677348,7816.539146487612,8046.4938934438105,8224.704351985974,8400.411415149143,8602.09120536938,8764.431925348274,8927.733770338747,9051.31656543214,9184.242389707852,9367.079659352263,9509.773195954944,9624.929383388684,9737.470416721157,9866.216464783725,10007.859469397006,10186.136983172535,10375.52331394235,10529.169205328131,10706.060910947432,10821.887650714832,10938.049666649064,11059.218473341283,11205.667103012456,11366.711421812943,11499.32432166628,11616.670980056642,11665.666003902676,11750.960260744127,11891.776250812562,11996.807098008048,12104.87778244946,12227.879432187014,12302.489555178829,12422.630181626104,12598.225486066996,12722.300019538407,12767.405839849216,12870.201512599173,13097.898733365386,13261.804075456152,13337.978820559838,13407.291580115747,13508.790851687296,13627.322152533789,13778.621110751763,13928.914240469247,14023.126843348366,14121.36276022944,14218.995180010223,14322.327294627106,14411.913086403978,14476.979014513376,14603.17696370804,14663.571377226279,14669.986327884953,14725.239840178472,14795.804297423876,14833.93637346463,14959.262604625537,15046.21089055668,15108.125222697881,15174.57695896351,15261.122913494459,15305.334664027056,15342.595022034053,15403.168249507935,15442.216747071356,15454.644316988508,15493.715166296384,15573.108562601634,15674.071392306256,15697.71953793997,15700.982892630445,15737.483291325963,15772.419067909608,15819.648303943672,15911.491621910529,16028.055969244955,16084.583530972426,16104.923618426756,16092.496048509605,16069.496103465093,16125.28605762554,16166.748543590134,16185.948692077243,16230.11573912093,16273.232254175218,16262.346954625484,16213.418986012815,16219.141032593374,16288.163219471362,16306.268132480162,16290.823077061545,16276.115629209951,16242.900936949365,16242.789178227089,16250.478178319716,16266.034992460609,16298.400318431894,16338.052313095608,16366.304918087117,16383.962796206808,16408.035624985176,16389.90836023192,16335.23599329424,16278.261396677663,16190.888427601867,16066.679783663725,15974.21061685212,15862.004859686478,15652.211386228966,15488.596616816118,15313.470699008787,15075.201103115214,14787.44474499759,14474.609729601114,14230.43927317134,13930.970600959135,13553.96372723147,13184.981129763262,12820.58063990839,12484.879789934133,12190.84259162457,11858.852131229894,11514.590563129255,11184.097669613084,10829.733113018647,10481.872914060703,10219.30697194421,9971.515532912676,9691.783451054509,9425.373008891704,9143.070476421175,8841.41133325235,8591.742347686572,8353.048068648348,8082.3013880612125,7851.072591671061,7673.443278484736,7517.62926788679,7373.259350449962,7159.710783923958,6955.527598324728,6787.308369554087,6678.924760690304,6566.5848930579305,6432.541481559454,6325.521329107443,6234.8179501078075,6128.200129055993,6021.872880682097,5983.696101152433,5900.5923152676005,5795.67322679439,5715.6986851333,5658.478219327715,5575.933227054265,5520.679714760747,5480.535981719016,5469.1589437912635,5454.295033728485,5428.255251438052,5445.0861150128985,5428.098789226865,5444.393210934783,5478.591379951404,5489.387272523317,5557.828314045467,5608.29855302555,5650.11866690143,5655.952472204265,5693.302237189083,5777.881238207965,5891.718672718844,5984.321949997181,6115.616096927655,6232.515720428911,6386.742757170529,6539.472227033642,6698.616647555429,6877.497658431252,7033.177558562465,7141.292946492786,7307.433463029082,7482.67113955869,7659.384031222347,7789.627646163422,7951.186055086381,8169.696708881464,8357.943100684059,8567.088373552368,8772.120925440899,8963.72007891179,9138.7565897413,9360.083563337752,9545.290117894427,9728.082684049927,9880.454526001755,10055.08870543107,10215.39541666453,10342.196862959488,10512.472452220018,10670.521637263493,10831.789473508534,11008.502365172191,11184.231780079816,11396.372186705135,11578.29303482688,11720.293667351445,11871.972605225159,12069.62908144344,12236.820129969137,12385.63804455257,12533.96422075799,12657.636422829202,12787.455354625627,12931.445292406714,13100.245666533194,13256.685525975887,13454.766685338818,13678.977033970003,13869.905635107236,14030.815843440992,14208.378101393952,14432.990781425331,14618.711426104479,14766.881140098709,14936.173252603205,15102.693748795242,15245.186119697824,15402.09536577408,15590.364109321132,15693.115078582177,15805.879629359202,15927.070787795878,16085.030565861533,16283.64816709139,16406.314540662115,16508.663178522966,16577.104220045116,16710.119451298648,16899.505782068467,17047.675496062697,17203.1095270049,17328.391054676897,17464.73669585427,17630.944267623934,17779.449257784996,17922.634532765693,18075.542816584446,18202.768946024054,18320.316770114514,18470.609899832,18612.677587589933,18773.29722324577,18915.29785577033,18990.198551440066,19082.600663018307,19204.730594722103,19319.48445075565,19355.694276773247,19424.068263062032,19552.92606984688,19679.235777763817,19743.42998783946,19817.749538153355,19935.252658754907,20003.42547934359,20106.176448604638,20206.446374231145,20305.531657401523,20371.26813784458,20376.900777447318,20451.443845205766,20545.790558551616,20581.955681080304,20605.5144197362,20676.43650489289,20799.438154630443,20885.13474287209,20900.1327634016,20938.309542931267,20970.71957239146,20996.06645060378,21047.27429715089,21160.195310139097,21235.654799420216,21217.86281083379,21189.587854097826,21264.197977089643,21350.18513800921,21431.925467482266,21510.648311453857,21534.564678021037,21517.197372579263,21558.570451566036,21617.333187739037,21596.858989817978,21609.08539403503,21646.926897397865,21650.257307321706,21663.24367085024,21719.033625010685,21729.963628049332,21696.368956133003,21652.42542653387,21645.00464737471,21605.7996876001,21584.31966117855,21544.60061128147,21502.802849150044,21486.48607569767,21393.79339144151,21267.081352124376,21098.37038497572,20931.46990912794,20738.77552017874,20509.20075287828,20263.30921212545,19984.471200045493,19719.200696849908,19429.99147534269,19152.829844096883,18902.535009686355,18593.991529225295,18275.94855737073,18000.329196492337,17713.578666875204,17338.449339681785,16970.763143391985,16602.56285697971,16269.007774473164,15968.510922016016,15664.035459045823,15410.05258680017,15170.799514150563,14880.360946698303,14562.809713221755,14276.148590582443,14049.703067505727,13842.569451638396,13602.377605721666,13341.175120016947,13150.067704924073,13005.317807831503,12799.033558253475,12574.286767755362,12422.451367670461,12265.944452994401,12169.474323925297,12059.86136911647,11915.044416790535,11723.959353442116,11558.824665406308,11468.32245210677,11388.526724401323,11274.532827679257,11108.10173846504,11051.730638948757,11043.259327800195,10974.415954877848,10917.798986172556,10840.685467801746,10740.415542175238,10711.335922638884,10716.700341308158,10684.491477548061,10670.476933774584,10650.807398653913,10640.011506081999,10646.225291040575,10723.562326855937,10764.063687808954,10857.896311032333,10919.408311773339,10918.469538506215,10966.97282397423,11063.353546065515,11204.013073922762,11361.056430465751,11566.558368987844,11706.681454978163,11882.992015241625,12089.96916889777,12279.958996767878,12424.485376415894,12604.461622770026,12783.543799345947,12949.729019371156,13137.617783262467,13316.275276693736,13468.982394812394,13609.463108713999,13755.509406984975,13938.95017372968,14158.667821725348,14396.736251918825,14607.624960854646,14828.437844328624,15021.40045421129,15188.613854481442,15361.281080398689,15544.632440165573,15754.291803156353,15980.469105299606,16170.660098869814,16348.915260900887,16521.716597284867,16699.412965704556,16837.43498771608,17051.117664708814,17274.970385428715,17412.2100963843,17607.787860368237,17821.738758294436,17989.220379498052,18193.135344163817,18366.406067181357,18563.05671489915,18757.203967237947,18923.12096632969,19095.296453868923,19232.26794389104,19415.574600169017,19607.17375363991,19826.578477213203,20061.227090505017,20181.90415881922,20335.348884504903,20524.10936642997,20664.120693698012,20830.39532070104,20994.63593895864,21149.84645245629,21271.238776593065,21435.457043106206,21628.017321588675,21770.844968658086,21940.67352302951,22085.64693756663,22242.556183642886,22374.67734511821,22490.906416285805,22639.657275635873,22782.730791894293,22925.938418619447,23011.523248138816,23097.264539869375,23259.426445892626,23433.993570088576,23610.5723512855,23817.61656017501,24005.013585688306,24135.704235518486,24245.786576960872,24378.019497158468,24538.43796711421,24644.49699455464,24793.51607483817,24937.997750997278,25020.47568803736,25106.708718145936,25226.93875157103,25374.616727187244,25502.133429304773,25599.475276407633,25673.861881954897,25777.126941338414,25894.138323561947,26043.984418390326,26124.964788551904,26205.207551146457,26299.263691814387,26396.493780194975,26538.516764463995,26618.334843913897,26671.286126528517,26689.61455698187,26735.569743581982,26821.60160799046,26917.691757403823,27044.292037998683,27122.344329636617,27243.557839817746,27328.87444840365,27435.291103755368,27556.415206958678,27597.251844078524,27635.540382330466,27693.453752214165,27781.96666025718,27823.965588088704,27871.843024711972,27936.618380143453,27959.86419437697,27993.414162804387,28033.423785379386,28075.04273355517,28081.904719102946,28094.42169599792,28147.082405934623,28230.320302286185,28250.34746531814,28233.24838080983,28231.88492439806,28267.670067271003,28276.610765053127,28218.831505636157,28229.40388076352,28190.735362855838,28156.80541477268,28231.661406953506,28354.99833285789,28404.596853804214,28395.454990321996,28378.199443602498,28407.703746283503,28385.754333228393,28367.96234464197,28390.023516419355,28385.66492625057,28345.163565297553,28349.61156244416,28392.99629843191,28373.9973156449,28308.7302218354,28243.954866403925,28199.318432726675,28156.268972905753,28124.37303356803,28045.2702099407,27924.01199627066,27758.49732857911,27537.840907316317,27316.60334069769,27129.809812284686,26898.670422872357,26614.51269561204,26314.418174555085,26030.52866822823,25695.073687442982,25382.283375535415,25086.480389413882,24749.66195221686,24415.458669121108,24067.71022888544,23725.348559063503,23306.476867971047,22954.97333466689,22657.87394736695,22374.00679278455,22049.32535282676,21727.25906697024,21430.33849362594,21093.005966306446,20779.58980555413,20495.454430038266,20261.789293502487,20045.849090319763,19820.767023654822,19566.69474443135,19286.51562768407,19053.163415570667,18817.330159822723,18580.848703485575,18385.382698223915,18223.623123600857,18031.9569148966,17882.982538101976,17800.61635978417,17672.652622777536,17524.058225638655,17409.885514960948,17310.42025213483,17152.460474069176,16972.528931203953,16829.65658064563,16743.200033092504,16706.230247763426,16698.16126801506,16685.376070186623,16609.983636138873,16554.484254656345,16571.583339164656,16576.746592133833,16622.455909544937,16653.39072387108,16682.91737829654,16725.944486373006,16814.457394416022,16893.5378662989,16951.87591932725,16967.678602657154,17033.012751700015,17117.278828296523,17223.89664934834,17359.795255636604,17455.192500971854,17554.121321931045,17674.64192803406,17836.088578234743,18023.84323165932,18222.84081254492,18369.490607916192,18553.981906650293,18815.162040610558,19063.042886619914,19269.260080964577,19433.925382366822,19589.44882028685,19759.165615935995,19956.24094679844,20176.7632575945,20399.341928880447,20566.89060531743,20730.930057874928,21025.45899456251,21220.880296335257,21376.828417399935,21557.899899232376,21757.92566036292,21941.679351529998,22084.015260221393,22250.11107326878,22382.455752188656,22542.136614577368,22714.02152943868,22854.636353807015,23026.78948960179,23199.63552947468,23407.48440116458,23569.780417654565,23727.270809086658,23884.24711039628,24076.941499345485,24236.68941696756,24375.113770379277,24504.262149842045,24645.145195143843,24813.118554725475,25002.504885495295,25133.44140451448,25285.925005188587,25465.722437587076,25660.584945748444,25850.619477107466,26036.58599097562,26238.2434294514,26427.00391137647,26571.01620090201,26732.172278424776,26909.600425911,27072.07525635663,27230.079737911194,27372.4603500915,27509.25302615798,27626.823201992895,27785.855863792403,27980.450151020308,28155.37490312754,28321.493067919382,28479.29638377385,28635.33391181635,28779.70382925318,28912.160266895327,29072.13170196196,29227.208104992882,29417.220284607447,29562.841899733772,29695.36539260929,29826.48072558412,29908.623386457373,30018.37045173293,30198.056125409144,30327.00333917181,30468.087550173706,30642.185287736094,30791.04790580844,30950.326436796957,31006.630481079876,31088.16964485284,31172.279259238156,31253.23727765528,31332.58597047162,31387.101875198114,31500.67108877553,31637.30730263082,31744.66273124966,31848.978322622577,31933.043233518987,31997.438609294728,32102.201235556753,32188.322506943052,32286.223147657296,32332.178334257405,32407.45900958288,32458.33157996316,32518.05544114774,32603.662622411564,32701.85383580373,32767.72442671352,32780.35316233077,32884.735808937054,33012.185455821214,33084.13572122285,33108.1638465123,33136.66232069282,33202.77878079162,33276.45013051631,33348.445099406854,33390.89106212748,33435.482792315815,33503.990889071334,33516.03847933275,33555.98104667438,33591.98970699188,33553.83527920667,33523.19103755844,33536.73619469836,33542.90527616802,33546.12392736959,33540.759508700314,33565.592296790164,33598.13643671709,33563.80415723374,33523.92864512547,33456.0463972147,33365.36536995952,33278.886470661935,33153.537887756574,32882.88061414726,32609.943462603507,32427.66498657048,32249.454528028316,32022.360804362394,31708.497608720972,31401.049363738224,31162.623305633464,30905.332375208425,30561.182565830062,30176.55374724314,29857.035560254524,29596.86125479475,29318.023242714793,29012.631358221934,28694.230758456084,28340.447347217483,28079.3789719795,27884.494112073677,27693.409048725254,27415.71097561252,27131.933228007943,26899.788010095122,26682.10437084489,26463.213737394064,26237.66228409556,26011.90966509696,25816.555418557575,25672.632536009853,25512.70580443213,25325.375834152204,25107.669843157513,24951.140576736998,24770.80670247158,24579.811046100982,24466.375942990297,24396.191465400632,24290.244196682477,24239.19281234656,24192.634128646154,24096.834551910706,24014.93776022646,23929.956427807385,23836.883763895486,23802.909112323418,23772.711905564298,23767.123969450473,23772.264870675193,23750.874251231464,23760.59726006952,23790.593301128545,23845.355075044048,23930.78344235223,23986.774562212773,23997.123419895583,24021.620931818597,24130.96566569396,24236.04121637836,24310.740746347994,24425.58400935936,24491.56635899143,24637.277381095577,24786.028240445645,24941.104643476563,25086.458037669425,25245.13307155765,25503.698051416643,25746.795624112565,25964.971001740814,26156.65956218953,26360.26160243292,26555.86171816131,26695.71658321817,26841.36055008895,27046.393101977483,27233.410147835035,27435.536972944377,27631.89704798425,27785.364125414388,28014.87183748148,28180.073580750657,28295.319175162218,28464.320714988797,28678.361019892815,28845.105033529406,29007.669270952854,29150.563973255634,29286.015544654794,29482.88970981714,29688.21283438359,29837.656597811772,29993.381201431897,30147.898810851435,30367.884679780567,30543.390577243637,30682.664296944655,30843.999188423062,31057.57010669352,31241.770832749706,31426.68681462846,31584.043095593825,31769.96490597307,31928.59523637238,32108.571482726515,32296.549653595648,32412.868131741066,32512.78042945629,32670.159062166105,32849.7553288645,33057.134813920835,33218.693222843795,33405.37499253452,33579.0256952078,33716.57833058576,33850.01824498394,34003.574729391905,34167.636533693854,34338.51562005468,34529.46657293637,34685.4370457455,34825.22485556899,34889.35201041127,34992.68412502815,35146.307664669475,35277.043017988566,35447.49742120474,35610.03930688373,35780.94074498901,35908.390391873174,36063.444443159635,36254.5071547636,36400.21817686775,36512.93802415586,36690.477930364366,36814.17248418003,36933.70961352702,37034.22540834253,37124.36999373078,37242.00722479907,37335.593978833436,37414.383878038396,37524.622681691966,37675.474605020834,37832.093278419175,37951.54100078833,38074.16267087015,38237.15159143825,38358.47686034165,38395.40194218182,38510.2899086821,38614.40433435492,38724.30786184166,38813.15604605151,38891.45420687845,38937.25293126737,38987.879632458644,39074.78321490088,39118.57028228883,39163.787861321915,39194.76737913697,39255.027682188476,39332.49882847057,39428.07488776146,39502.68501075328,39623.47383778976,39722.46971398231,39750.14117361798,39767.799051737675,39811.988450525816,39854.41206150199,39895.06988466619,39961.40986220955,39982.75577816436,40018.74208673741,40069.77111932887,40116.4192100071,40174.75726303545,40192.72806557752,40264.231296090045,40339.15434350423,40332.113544000815,40361.59549493736,40399.74992272257,40382.092044602876,40401.9850971681,40391.34566680738,40418.52538806503,40462.87124906436,40501.78563616105,40532.16165687581,40529.1665231188,40519.42116253629,40546.869104727404,40551.40650885183,40555.02749145359,40489.24630752162,40477.57869691595,40558.894343244356,40621.14395155239,40586.8787273024,40506.79242691904,40494.498967468615,40482.429025462756,40482.71959814067,40457.752699584096,40423.59923405638,40368.14455606277,40318.680145583174,40329.49838989954,40396.12894012081,40456.903333294795,40499.21518554869,40556.03331995408,40480.35031322841,40357.23690476858,40321.7199828291,40246.97574937055,40099.00720107641,39923.81422803572,39738.07123161211,39537.28551117009,39318.46193295264,39095.83855817778,38804.86354885859,38480.85266123446,38178.36650352079,37862.49165087839,37543.93458890136,37193.77216026451,36836.81480131326,36531.065288909114,36211.45769494268,35853.04747260183,35495.59837527256,35119.97730970113,34747.70900579799,34432.14707757796,34139.830963591456,33844.251494914475,33557.63507576407,33230.316129960556,32899.8679399333,32567.899831283074,32325.24929347626,32108.0797443485,31855.326218047885,31598.459970767497,31406.74905857433,31221.94483541785,31024.46717315521,30840.24409535457,30654.03171229741,30465.5394513058,30300.538873736725,30117.254569203207,29966.51440459662,29850.71001657367,29742.63933213226,29645.744519918506,29593.95552801556,29524.59806497074,29440.175526163046,29329.28852192027,29216.054584509682,29168.177147886414,29097.165655751905,29002.371907516947,28929.572275826013,28876.688048444757,28870.563670464002,28890.501426518134,28906.259406359128,28955.45559590526,28997.700392925788,29021.59440774851,29065.269716414183,29099.870216830997,29171.44050257689,29302.98051869637,29390.219377305435,29424.618712022155,29479.156968493102,29608.081830511313,29721.852209788827,29830.325225630433,29963.96630572871,30117.992176770233,30288.066600330665,30452.195459865983,30626.472011384012,30856.806737995954,31079.586574981997,31264.055521971648,31455.98995160937,31660.97780000899,31856.26499131501,32066.036113028065,32303.456342632337,32489.33344952267,32669.935544721553,32807.26466265496,33006.55281621848,33248.15282203589,33474.553641623694,33711.415077616584,33910.34560326882,34103.822303273955,34320.76833495717,34513.283909950726,34725.84899972069,34961.65990372418,35173.91206907178,35404.559720106095,35634.1121356621,35848.95710336651,36028.419259598166,36204.64041288381,36376.74884518967,36575.50055688626,36785.29403034378,36927.965215202,37112.791790102936,37272.98674261412,37396.01074409613,37576.7693015062,37808.69100197447,38021.546664422356,38235.13993443727,38450.87897191989,38643.14867772444,38826.14240958005,39010.119618191675,39239.7614407255,39448.95141708272,39602.329087535036,39747.63777823899,39897.774445745286,40045.58653182823,40183.45209162856,40371.34085551988,40586.8787273024,40769.805403924634,40947.36766187759,41118.69378312752,41275.670084437144,41426.119676365815,41614.09784723495,41787.72619816377,41969.937618963435,42108.026696208326,42216.07502890528,42323.45280926857,42474.774119231006,42645.36263291391,42846.34951905603,43063.83199260617,43240.56723601428,43381.58439178281,43546.674376329705,43662.97050273067,43749.56116075053,43879.98358964725,43986.31083802114,44105.24447026783,44228.82726536122,44345.12339176219,44482.74308237351,44652.61634023385,44821.81904576052,44937.82459948357,45018.33558301158,45146.2546165293,45343.46405785848,45462.37533836071,45569.708415235094,45730.90919624677,45891.90881155834,45967.45770781729,46105.300915873166,46154.720622863846,46128.09969521758,46201.14519609752,46344.2857675893,46510.80626378134,46603.40954105968,46592.56894499886,46606.35997132778,46658.50659114201,46707.25574579904,46753.00976669905,46800.954258555685,46823.14954079981,46882.471070584186,46941.07734454601,46986.16081311236,47035.4017061474,47077.512392701195,47086.02840733867,47131.2236346273,47159.85621927455,47116.85146294254,47034.84291253602,47006.63501103342,47029.54554910011,47034.68645032483,47025.52223509816,47026.30454615409,47037.01103174818,47027.64565082141,47047.873979553464,47057.77580234716,47031.06546772307,46936.785809610585,46884.95211421873,46871.47401231218,46867.450698310226,46877.508983315114,46886.5167363306,46850.41866903528,46800.41781668876,46790.761863084066,46809.11264528187,46791.097139250895,46754.93201672221,46736.96121418014,46729.80865595444,46711.748446434554,46665.614445878804,46640.04405022193,46592.41248278767,46548.15602876616,46583.672950705644,46564.27163651844,46527.190092467084,46467.82385919379,46418.29239348083,46359.59671254119,46331.76879069433,46327.41020052555,46233.0634871797,46145.01996577025,46104.20568039485,46067.325302043595,46061.29033104066,46026.82394109058,45974.09617592051,45944.703631961784,45970.81046948558,45919.02147758263,45806.2122233167,45734.686641059714,45657.662529666726,45561.99706339801,45404.64078243265,45227.81613204672,45101.08174098513,44920.0996661305,44684.35581736038,44453.976387259536,44198.026561501814,43964.07085228811,43722.56025344852,43450.4054129607,43127.82503698171,42824.511864723194,42475.51172679803,42083.685646496495,41722.9955462212,41418.989469884575,41048.755174726866,40686.120472683964,40310.61116583481,39923.7248210579,39527.36133663194,39161.6420938542,38827.103534591624,38495.89538525288,38186.27902105797,37858.42363338752,37538.70428069881,37218.068506487434,36944.1702299321,36721.859779579616,36510.74755319924,36260.877401933365,36011.141361134214,35797.36927716366,35572.130748287535,35340.164344330355,35147.425251892244,34932.78144988793,34730.833438734226,34524.41507868947,34322.66823323587,34152.8620306089,34020.293834244476,33817.58586377929,33651.2441815429,33546.77212795879,33524.24156954784,33467.13286246453,33334.43055563338,33222.38126067892,33132.97428285769,33029.86568568536,32978.47902518261,32906.193483614144,32791.50668281397,32733.39214723017,32659.31846610528,32668.214460398493,32698.38931541316,32675.299963390826,32668.482681331956,32711.6215481307,32783.77297923243,32846.559029407385,32828.40941290968,32807.6446423107,32866.47443371706,32966.99022853258,33099.17844524127,33201.52708310212,33279.33350555104,33387.873576626014,33529.53893298375,33660.67661770304,33767.763825388414,33899.1026758078,34006.860435826835,34120.02731800405,34295.55556721158,34487.758217782764,34630.652920085544,34756.09090996873,34876.18683292709,35018.232168940565,35166.91597305727,35361.24203935171,35592.895518886515,35775.777492019835,35919.90154026765,36039.528076592454,36166.8883164988,36316.175617715795,36518.30244282514,36663.18645038443,36804.47182708643,36967.41604416562,37105.303955710406,37235.50286716257,37421.51408451964,37531.28350153965,37657.8390786456,37846.80072627076,38033.23662677248,38185.206137324116,38326.759734959574,38455.93046616679,38617.01948845619,38762.68580707143,38861.41346233052,38969.95353340549,39106.45563679405,39264.34835962634,39422.41989641427,39554.11637474494,39666.6127045885,39811.65317435899,39956.626588896106,40114.631070450676,40293.44502609313,40402.52153903503,40534.910921443814,40659.790117715616,40764.35157827754,40899.646687465516,41012.85827313164,41099.94066952952,41283.44849150759,41446.07978416441,41546.305006302005,41661.75176641366,41785.08869231805,41892.421769192435,42036.769334884804,42221.64061327465,42366.0999376893,42536.33082346092,42671.98356056018,42751.823991754536,42838.571111985584,42921.04904902566,42978.47068053135,43099.10304535664,43178.65290387308,43288.84700403774,43381.67379876063,43472.04190159344,43599.62565894433,43685.2104884637,43748.73414620569,43827.59110064401,43884.2080693493,43901.329505602065,43975.13496579349,44114.43103723897,44221.585300157705,44299.83875749574,44402.05328488985,44477.66923638216,44508.492291986026,44599.508595408035,44647.341328542396,44676.24213412311,44755.546123450535,44906.129825845936,45026.89630113796,45072.247990637785,45113.73282834683,45114.4480841694,45159.978587624864,45281.08033908372,45353.209418440994,45353.8576190302,45349.0519939723,45349.58843583923,45369.213267470994,45428.80301818884,45465.45987909554,45542.528693977445,45582.985351441544,45620.37981991527,45664.77038440351,45694.54290801798,45741.548626607495,45729.456332857175,45723.35430662087,45746.1977894542,45745.616644098365,45772.304626977995,45805.25109830512,45847.13826741437,45874.65326483885,45885.493860899674,45905.968058820734,45972.41979508636,46044.28065351018,46063.23493280828,46036.8151708621,45993.69865580781,45924.31884101854,45888.08666325649,45882.40932016484,45927.49278873119,45924.65411718537,45944.793038939606,45982.12045217997,45996.26910642017,45980.19820215681,45990.92703949536,45969.89404796292,45953.599626254996,45974.58791429853,46008.94254552633,45978.34300736702,45931.24788179969,45927.42573349783,45897.65320988336,45883.50455564315,45842.444401078756,45754.08795524692,45636.00368928954,45523.5967664238,45406.65243943363,45299.364066048154,45171.087404619146,44982.59514362754,44741.06219304349,44518.26000431299,44250.15082957159,44024.0405826617,43763.57570452401,43467.79507014693,43222.97641312795,42941.56795043564,42707.2322615662,42470.147308128755,42142.18016173603,41838.91169296643,41558.57611400796,41194.15327240864,40810.016192199735,40480.86440335088,40224.2440252595,39949.47403067041,39696.13935901396,39449.644321160835,39225.94806265212,38954.21790530896,38684.342942755575,38449.33670155248,38273.696693622675,38112.94294750011,37899.752008885385,37665.99746537179,37432.04175615808,37189.50297707355,36966.0749394983,36799.91207121755,36650.37890081154,36497.00123035923,36350.68671115478,36220.13017179134,36080.07414103438,35967.37664549072,35867.88903092015,35800.27500394285,35717.26062503584,35627.8089437257,35561.893649327,35477.73933145277,35409.83473179755,35395.68607755734,35333.168248315844,35280.64164884587,35242.46486931621,35164.345522444906,35078.96185862563,35064.70144566315,35036.51589590501,34998.1603024197,34976.993200420526,34930.88155160923,34899.79027507189,34916.867007835746,34957.32366529985,34992.237090139046,35020.35558466382,35089.35541979736,35130.52733308403,35199.996554851125,35267.78939578407,35343.18182983182,35474.58773548457,35532.478753623815,35596.49414974381,35703.22372951791,35835.680167160055,35881.5682985268,35979.133663074215,36144.20129587666,36310.721792068696,36478.82926211706,36649.95421766689,36794.704114759465,36933.73196527147,37068.98237097054,37182.149253147756,37338.23148467916,37501.8015506031,37647.33375875161,37775.09633005814,37953.88793395614,38074.028560403414,38095.62034554724,38160.663921912186,38332.86176119587,38473.27541986411,38565.20814480879,38744.871466740544,38893.376456901606,39048.296397721344,39169.599314880295,39287.34830467085,39448.102050793415,39549.02017700913,39607.358230037484,39694.887661324465,39857.94363712593,40040.44563060351,40183.340332906286,40319.6189188503,40449.81783030246,40553.28405538607,40655.230361846734,40806.9316514649,40922.15489413201,41036.77463969882,41128.28268149885,41243.95295905507,41342.63591082524,41436.736754982085,41580.681989274264,41749.5047151452,41840.18574240038,41905.58694667661,42039.786820386274,42125.349298161185,42170.87980161665,42302.53157645841,42417.15132202522,42484.09479666887,42583.94003915072,42695.341133515976,42765.48090761673,42868.00835943322,43003.16935815446,43072.057434565715,43101.53938550227,43081.24400153685,43076.79600439024,43081.10989107012,43086.9213446285,43139.62675805411,43238.62263424667,43311.914004315615,43435.11681975327,43550.65298684275,43634.762601228074,43741.33571879098,43834.006051302684,43972.54216343667,44021.157207626966,44063.513763369774,44192.66214283254,44308.131254688655,44488.085149298335,44623.000278830565,44721.057381756,44800.18255712778,44844.886046038395,44946.050041443115,45077.143022673496,45139.3032240037,45221.89291976606,45283.82960365172,45246.949225300465,45220.90944301003,45268.406899977555,45353.276473674356,45405.40074174413,45444.13631488518,45493.04193175339,45458.70965227004,45423.79622743085,45396.63885791765,45410.5192912244,45392.03439855986,45381.529078665866,45421.73986694096,45425.74082919846,45437.40843980413,45457.54736155836,45410.92162262459,45389.8662793477,45373.43774717304,45371.873125061175,45383.65249438912,45354.77404055286,45296.30187705778,45209.97943997139,45180.318675079194,45152.82602939916,45090.6434763245,45007.025600317196,44949.71572753379,44923.675945243354,44878.19014527681,44759.27886477457,44683.797023749,44642.49099999559,44606.504691422546,44588.28801969147,44527.33481256185,44388.19520332757,44221.27237573533,44099.321257987176,44043.017213704254,43913.80177900813,43762.12284113441,43672.20177319071,43542.36048964984,43424.36563067027,43336.880902872195,43247.85390470671,43161.35265366467,43071.38688223206,43016.155721683,42941.813819624644,42804.26118424669,42680.67838915329,42585.39290254032,42541.29291072999,42483.26778212402,42401.68391486215,42363.127155676746,42306.15255906017,42214.130427137665,42116.18508293451,42054.47191649341,41970.0046741968,41952.16798212147,41895.61806864954,41802.41129427091,41711.350287359994,41615.349544924444,41550.641244726336,41524.42264848026,41472.186621688204,41406.98658311208,41326.6544135397,41260.60500867427,41190.800510740344,41043.59192175769,40880.692408167415,40708.1592927169,40530.06059289701,40300.03879070745,40021.53605479432,39821.3985349415,39634.51559955068,39420.74351558012,39222.640004472734,38986.89615570261,38718.94344317239,38455.97516965571,38230.155495423736,37978.78777727935,37747.33546344465,37489.1504632414,37245.78466961201,37047.971731182544,36874.54454595382,36670.92015396597,36477.801081872116,36258.843393187926,36039.79629752592,35845.44787948702,35688.85155783314,35588.559280462185,35477.76168319723,35394.56849033457,35317.32086149703,35224.20349409622,35091.85881517635,34986.135063902744,34971.673485240164,34899.05266750487,34817.60291070973,34756.02385473536,34754.97332274596,34733.269778879854,34706.96177565596,34718.0929443947,34677.2339555304,34684.7888451563,34710.225130346436,34742.76927027336,34789.417360951586,34861.345274608764,34955.22260132105,35023.127200976276,35070.62465794381,35122.50305682457,35202.0082118521,35297.27134672062,35376.64239128141,35467.92691563689,35577.09283555661,35724.36847977263,35910.558511085335,36100.88361512227,36212.64233739881,36343.06476629552,36470.804985857605,36536.22854187829,36610.95042359238,36721.70331736843,36861.669941147564,37067.86478374777,37203.60692782485,37298.49008303763,37378.10699678743,37428.46547704524,37499.23109999074,37598.83047328359,37736.76308831729,37854.84735427467,37929.7033464555,37963.47683232747,38042.40084199916,38135.51820939997,38180.46756749959,38266.700597608164,38312.76754293055,38382.86261354239,38457.070405134014,38560.179002306344,38654.16808774091,38753.85686801158,38901.57954711671,39029.565635867795,39079.36532251422,39042.37318544069,39016.065182216786,38995.12159766217,38997.3567721077,39036.49467664894,39108.26612809493,39171.45450967008,39181.691608630616,39292.89153729576,39387.50647157508,39417.211939956185,39378.543422048504,39314.662136395236,39319.06543005293,39302.16751124472,39307.174302002706,39301.80988333344,39306.2802322245,39354.31413105895,39414.32856492145,39434.78041109806,39447.02916705956,39509.703458512246,39509.43523757878,39463.36829225639,39457.48978346465,39469.73853942616,39500.22631886319,39459.68025442127,39402.77271303806,39412.49572187611,39407.1536549513,39416.11670447787,39434.065155275486,39471.12434758239,39497.05237115054,39517.593624304965,39577.786872123106,39616.54479700861,39604.78777942512,39599.378657266934,39607.93937539332,39651.391166614434,39690.819643833594,39726.67184193991,39724.883702383486,39751.75049921877,39792.900060760985,39800.87963353153,39749.71649047333,39743.16742934793,39788.563822336655,39840.710442150885,39859.68707319344,39867.04079711924,39930.340937416666,40016.23869135841,40062.9091337811,40093.016933562394,40181.4851381165,40290.651058036216,40335.98039579158,40393.692599975184,40398.96761166664,40420.402934599275,40480.48442369514,40574.60761959644,40602.05556178756,40698.97272574577,40800.27083161722,40828.881064520014,40904.452312523405,40974.34621743515,41042.89901767958,41105.953288788,41135.18937053554,41194.13092066418,41287.31534329836,41386.400626468734,41476.12052871234,41554.77631745057,41607.101751220434,41662.5340774696,41731.3998021364,41810.43557053037,41896.9368215724,41959.23113336934,41999.106645477616,42032.790724371764,42063.09968985316,42135.65345235509,42200.18293859756,42229.240206389455,42242.450087362544,42336.34976581929,42416.63723190275,42488.78866300448,42542.20933225266,42619.121684923375,42708.90864240035,42742.6374247834,42794.2028992418,42866.24257162125,42941.813819624644,43033.92535852496,43112.37998156309,43153.52954310531,43201.65284891759,43315.31146947283,43416.87779627774,43530.6258238108,43617.3952957863,43670.97242724567,43651.63816829183,43682.81885180698,43738.31823328951,43755.19380035327,43763.35218707946,43820.3938389294,43910.15844466191,43985.75204440976,44001.73354169531,43997.307896293154,44086.87133632557,44109.223080780874,44118.00731635181,44103.0092958223,44152.227837112885,44198.585355113195,44208.35306744016,44226.52503568233,44209.38124768511,44301.11280692969,44411.15044488316,44513.34262053283,44553.933388463665,44565.15396418023,44611.757351369546,44615.73596188259,44633.483246980104,44711.53553861804,44745.7113558902,44759.36827175239,44771.415862013804,44793.83466170248,44769.98535036866,44695.486986099124,44707.579279849444,44738.04470754203,44740.034012798555,44768.08545208996,44804.33998159647,44818.30982188104,44812.4760165782,44843.276720437614,44819.360353870434,44766.14085032235,44759.99412059714,44788.20202209974,44791.80065295704,44783.441100530756,44773.62868471488,44752.2157135267,44759.27886477457,44794.348751824946,44849.87048505193,44847.94823502877,44778.09903360594,44705.500567615105,44686.546288317004,44638.49003773809,44592.26663020452,44606.68350537819,44624.22962477561,44580.86724053231,44523.311498559895,44481.17846026164,44429.61298580325,44342.597644638736,44272.681387982535,44258.286864553316,44260.320873298755,44239.489047466406,44223.127570525125,44210.63294537461,44188.90704976405,44146.23756959887,44077.05892050969,44060.38451914603,44091.45344393891,44122.20944430941,44121.24831929783,44057.76936504476,44009.04256213219,43970.35169248006,43899.60842127901,43850.501638710695,43811.81076905856,43771.39881508337,43752.3774805519,43778.55137330906,43771.778794739104,43711.093808542944,43708.79157886405,43771.86820171693,43729.64575644085,43631.67806049324,43510.19632937865,43500.9203554297,43487.75517794552,43445.19745650262,43482.994256376536,43523.36150686282,43455.523962440966,43389.519261064444,43351.4318885126,43333.729306903995,43319.37948696369,43332.03057432539,43388.468729075044,43347.989719866484,43281.60503883422,43296.49130064146,43292.982076761975,43215.84620664671,43142.957167977955,43121.6783072565,43113.25169959685,43085.669646939,43067.520030441294,43124.51697880233,43103.75220820335,43020.91664325198,43014.32287863766,43031.19844570142,43052.1643820005,43080.05935908072,43060.09925128213,43069.91166709801,43023.93412875344,42938.6845754009,42891.16476668892,42846.70714696731,42827.57405371357,42766.79966053959,42806.87633834795,42838.146428840926,42803.74709412421,42846.64009173395,42900.999534249255,42868.94713270034,42839.48753350825,42831.0609258486,42769.504221618685,42713.69191571378,42739.41877358184,42769.45951812977,42746.12429691843,42755.42262261184,42731.37214557793,42668.004950047136,42633.315042652495,42604.61540277188,42519.23173895261,42509.866358025836,42511.60979409335,42484.13950015778,42513.50969237205,42525.40082042227,42521.75748607606,42582.30836180549,42617.378248855865,42631.95158624072,42600.5026817921,42556.02271032604,42533.9391868042,42515.722515073125,42494.73422702959,42423.40981047271,42423.92390059518,42400.54397589493,42390.9550775236,42414.983202813055,42388.22816470006,42442.40879325972,42465.16286911522,42432.08228732137,42407.38360969825,42373.27484765946,42305.8843381267,42263.03604400588,42229.48607557846,42185.408435512596,42188.761197180895,42206.59788925623,42198.10422636321,42143.744783847906,42092.201661133964,42076.77895745981,42068.866439922625,42059.65752120704,42080.15407087256,42029.303852236735,41990.6129825846,41971.72575851986,41957.93473219094,41912.78420839122,41862.850411278065,41858.514172853735,41884.24103072179,41895.26044073825,41850.22167566081,41768.50369793221,41696.08404589701,41690.89844118338,41672.32414154102,41701.09083665501,41732.56209284808,41730.93041550284,41752.11986924647,41744.8555522985,41733.232645181735,41707.77400824714,41711.93143271583,41707.55049080259,41650.44178371928,41609.11340822141,41580.74904450763,41498.85225282339,41477.573392101935,41500.55098540199,41520.13111354484,41493.75605508758,41483.11662472685,41505.468369182156,41558.08437562995,41564.72284373317,41494.20308997668,41449.72311851062,41421.73873445258,41401.86803363181,41409.422923257705,41412.17218782571,41377.23641124206,41368.51923090449,41355.443460398135,41336.288015399936,41302.98391616153,41280.7439304285,41296.010171891474,41274.39603500319,41202.02108645691,41150.29914978733,41118.246748238416,41072.33626512722,41006.040991072776,40933.5095803153,40862.81101260317,40850.87518106403,40914.82352195067,40982.7728250948,40915.225853350865,40866.23082950483,40878.52428895525,40854.92084681045,40825.77417204072,40783.39526455346,40811.11142767804,40822.33200339461,40815.20179691337,40790.05608440114,40720.76567658969,40662.919361939355,40629.32469002303,40627.87182663343,40643.339233796505,40655.453879291286,40659.85717294898,40638.06422210506,40646.4461262758,40644.61328323046,40606.52591067862,40577.558049864536,40521.72339221518,40492.48731046764,40468.81681308947,40481.53495568454,40472.59425790242,40429.58950157041,40435.713879551164,40484.01599931908,40539.470677312696,40541.415279080305,40522.125723615376,40490.654467422304,40428.24839690309,40372.74901542056,40365.9764368506,40338.41673593721,40324.73746833056,40352.453631455144,40338.88612257077,40309.20300593412,40308.93478500066,40327.88906429876,40348.94440757566,40320.89296828425,40302.1622064307,40256.40818553069,40262.264342577975,40248.2497988045,40218.96901356805,40213.269318731946,40170.80100426686,40170.15280367766,40146.05762315483,40103.45519822302,40068.474718150464,40106.65149768013,40168.20820191005,40133.160666604126,40036.28820613482,39994.71396144795,39939.88513229908,39914.29238489776,39956.201905751455,39944.176667234504,39849.33821551064,39831.36741296857,39892.54413754275,39964.025016310814,40021.2454821164,40059.86929653517,40006.962717409464,39885.74920722833,39889.012561918804,39906.022239449296,39881.971762415385,39893.75113174333,39937.20292296445,39929.06688798271,39851.03694808924,39822.806694842184,39814.33538369362,39737.110106600536,39716.94883310185,39722.71558317132,39753.56099051965,39748.68831022839,39737.87006591202,39757.13726963249,39789.5920025816,39772.9399529624,39785.54633683519,39738.33945254558,39728.54938847416,39732.43859200938,39686.930440298376,39664.04225397614,39709.39394347596,39799.98556375332,39818.917491306966,39784.786377523706,39723.20732154934,39649.84889624702,39603.22315731325,39598.194014810804,39602.463198001766,39635.58848328453,39643.61275954399,39616.43303828633,39586.86168037196,39548.573142120025,39607.13471259293,39673.83231804756,39669.00434124522,39632.235721616235,39582.950125092284,39547.656720597355,39482.47903376568,39486.45764427872,39568.82382259653,39590.14738680689,39594.573032209046,39594.416569997855,39558.765537591644,39510.575176546,39475.035902862066,39555.09985150097,39592.6954856748,39612.23091032874,39592.06963683005,39582.01135182516,39499.93574618528,39448.63849266034,39435.20509424271,39389.76399776507,39386.70180877469,39389.76399776507,39454.80757413001,39533.038679723584,39552.6858630998,39507.13300789989,39471.01258886011,39459.076757320974,39480.825004675986,39476.37700752938,39471.90665863832,39455.098146807926,39391.52978557703,39325.79330513398,39304.44738917916,39325.480380711604,39357.13045086032,39323.82635162191,39287.72828432659,39302.39102868927,39242.935388438156,39243.47183030508,39279.52519411149,39273.57963008638,39265.4659468491,39238.19681861363,39275.45717662063,39285.40370290324,39271.88089750778,39282.49797612405,39271.63502831877,39246.086984406356,39293.807958818434,39297.451293164646,39290.76812157251,39286.767159315015,39308.15777875874,39289.24820294955,39300.15585424374,39331.560055203445,39326.463857467636,39333.951691860166,39356.57165724893,39350.20141007917,39314.01393580603,39307.1295985138,39364.484174786114,39350.62609322382,39301.4746071666,39260.43680434666,39240.52140003698,39283.16852845771,39292.31039193993,39250.557333297416,39227.49033301954,39206.94907986511,39220.404830027204,39226.9091876637,39182.92095457565,39180.68578013012,39182.47391968655,39210.88298688924,39203.23869028553,39121.16308464564,39097.29142156737,39083.23217430498,39081.24286904847,39106.56739551633,39130.148485916674,39128.87443648272,39096.5761657448,39113.20586361955,39076.191374801565,39093.58103198779,39120.11255265624,39099.43718903508,39079.09710158075,39047.737604109956,39076.79487190186,39051.00095880043,39040.7638598399,39009.78434202485,39002.25180414341,39048.229342487975,39058.220572259495,39052.900857079134,39076.616057946216,39108.86962519522,39125.812247492344,39094.11747385472,39048.40815644362,39041.47911566247,39079.45472949204,39070.89401136566,39132.16014291765,39173.019131781955,39143.80540177887,39146.0405762244,39155.741233318004,39152.522582116435,39158.42344265264,39177.26596322846,39177.51183241747,39118.25735786645,39093.670438965615,39090.027104619396,39062.8697351062,39041.18854298455,39048.40815644362,39092.21757557602,39117.65386076616,39116.871549710224,39164.056082255374,39147.13581170271,39097.91727041212,39070.379921243184,39094.363343043726,39126.527503314916,39084.28270629438,39048.00582504342,39062.132127539175,39075.38671200117,39087.41195051813,39073.88914512267,39056.52183968089,39002.31885937678,38977.44136779802,38973.86508868517,38922.76900086034,38902.40656166155,38934.23544576591,38903.74766632887,38890.26956442232,38932.313195742754,38978.737768976425,38983.65515275659,38933.07315505423,38894.494044124374,38883.67579980801,38886.40271263155,38887.63205857659,38861.03348267478,38867.873116478106,38876.90322123805,38959.96230363397,39028.47040038948,39036.472324904484,39045.010691286414,39001.313030876285,38946.48420172742,38899.21026220444,38863.313360609216,38845.07433713369,38874.19866015895,38873.393997358566,38823.72842117887,38781.86360381408,38740.557580060675,38748.20187666439,38800.79553136772,38803.611851169095,38750.92878948794,38748.78302202022,38779.33785669063,38808.238662271346,38851.75750872582,38882.35704688514,38829.1151915926,38735.304920113675,38726.163056631456,38786.825691083155,38790.87135682957,38776.32037118916,38780.56720263567,38824.086049090154,38833.20556082792,38779.44961541291,38756.96376049087,38708.14755060048,38678.50913745274,38741.6975190279,38789.44084518443,38818.229892042866,38856.89840995055,38851.154011625535,38822.834351400656,38742.658644039475,38714.696611725885,38758.39427213601,38823.16962756749,38842.3697760546,38858.10540415113,38814.944185607936,38806.71874364838,38883.11700619662,38969.88647817212,38938.66109116806,38835.127810851074,38765.34566466161,38776.94622003391,38831.19390382694,38820.465066488396,38816.84408388664,38833.56318873921,38868.700131022946,38855.51260179432,38910.855521065656,38956.430728010026,38945.03133833782,38928.044012551785,38925.42885845052,38894.5834511022,38845.275502833785,38808.88686286055,38816.95584260891,38928.13341952961,38947.84765813919,38920.53382641481,38896.01396274733,38856.42902331698,38873.01401770282,38892.325924912206,38885.195718430965,38851.93632268147,38845.1190406226,38798.47094994437,38790.267859729276,38799.47677844486,38819.16866530999,38881.37357012911,38941.29859701379,38934.59307367719,38934.10133529918,38946.52890521633,38939.64456792409,38982.783434722834,39012.62301357067,39025.922301521576,38966.198440337,38914.700021111974,38889.84488127767,38892.7282563124,38905.468750651926,38944.85252438218,38914.632965878605,38854.171497127,38799.901461589514,38815.23475828586,38831.372717782586,38818.00637459831,38775.76157757778,38749.40887086497,38727.213588620856,38686.868689879026,38653.385776684976,38657.923180809405,38681.43721597639,38734.20968463537,38746.72666153034,38733.58383579062,38754.86269651207,38773.906382787995,38762.52934486024,38731.683937511916,38656.82794533109,38633.55977935312,38686.309896267645,38708.08049536711,38695.183538816396,38700.83853016359,38684.38764624449,38663.13113726749,38680.565497942625,38696.2340708058,38706.20294883286,38697.37400977302,38656.06798601961,38615.09723843304,38635.83965728756,38675.536355440185,38675.02226531771,38739.61880679355,38748.09011794211,38729.11348689956,38714.29428032569,38714.204873347866,38704.683030209904,38692.098998081565,38670.775433871204,38713.914300669945,38692.27781203721,38646.456735903834,38580.6532002274,38554.92634235935,38584.43064504035,38588.90099393141,38575.86992691397,38560.961313362284,38566.23632505373,38580.78731069414,38544.48807769872,38591.18087186586,38612.57149130959,38571.936019889836,38525.444391422796,38520.34819368699,38583.29070607313,38600.74741849273,38591.80672071061,38585.011790396195,38578.17215659287,38560.93896161782,38581.793139194626,38596.07590390157,38592.276107344165,38569.142051832925,38521.175208231834,38504.63491733491,38447.3250445515,38362.477822599154,38311.87347315234,38295.66845842224,38251.63552184529,38220.94657670815,38230.04373670146,38266.85705981935,38262.18554522819,38223.025288942496,38169.69402667213,38091.59703154529,37998.881995544674,37949.596399020724,37912.87248288065,37841.101031434664,37809.71918221941,37729.8563992806,37606.81004605413,37547.46616452529,37571.807214237124,37539.66540571039,37452.42654710133,37401.933956376786,37309.06245816499,37197.75077077756,37189.12299741781,37193.59334630887,37153.82959292288,37117.93269132766,37103.426409176165,37075.24085941802,37012.65597494316,36970.96997153401,36956.41898589361,36892.04596186232,36808.20456841047,36772.62059123762,36768.70903595794,36751.83346889418,36660.97362768336,36629.32355753465,36603.17201652194,36611.889196859505,36600.46745544284,36622.3945167535,36595.97475480733,36508.422971775886,36439.08786047553,36446.93332277934,36415.707935775274,36371.16090907585,36393.66911574234,36409.60590953898,36394.317316331544,36417.42902009833,36427.822581270055,36372.97140037673,36364.00835085015,36383.25320282617,36443.893485533416,36420.67002304435,36364.85771713945,36352.38544373339,36358.01808333613,36367.15994681835,36375.47479575572,36371.33972303149,36393.53500527561,36414.70210727479,36378.06759811254,36349.323254743016,36359.04626358107,36375.54185098909,36419.910063732874,36449.68258734734,36446.28512219014,36442.440622143826,36431.935302249825,36452.431851915346,36401.00048792368,36367.00348460716,36409.002412438684,36438.68552907533,36473.44249170333,36528.53954178566,36526.41612606241,36513.27330032269,36518.79418120315,36531.60173077604,36574.29356268568,36599.57338566463,36655.229229358345,36763.05404461075,36836.52422863534,36875.371560498665,36883.52994722485,36919.426848820076,36929.97687220298,36916.31995634079,36859.81474635777,36807.75753352136,36839.58641762572,36938.82816300728,37018.534483734904,37034.27011183144,37048.01643467146,37059.035844687925,37094.44100790513,37099.31368819639,37121.01723206249,37196.27555564351,37223.65644260126,37251.841992359405,37324.93219672825,37335.459868366706,37373.45783394073,37392.36740974992,37401.576328465504,37495.45365517779,37579.518566074206,37589.845072012555,37556.988007663254,37579.00447595173,37673.26178231976,37773.509356201816,37798.588013480665,37821.185627124985,37833.970824953416,37892.37593321514,37870.44887190448,37839.44700234497,37889.29139248031,37993.94226002005,38049.3298827803,38143.22956123704,38192.42575078318,38196.18084385167,38216.40917258372,38267.59466738637,38352.66540678327,38370.524450603065,38346.83160148044,38377.67700882876,38418.60305292643,38420.05591631602,38500.05280972157,38580.45203452731,38618.986441968256,38571.60074372301,38571.46663325628,38546.902066099894,38532.373432203945,38567.957409376795,38613.35380236552,38649.541276638665,38680.94547759837,38707.72286745583,38751.33112088813,38757.34374014661,38819.906272877015,38861.25700011933,38880.233631161886,38912.37543968862,38950.44046049601,38936.940006845,38943.06438482575,39011.304260647805,39044.69776686404,39053.92903732408,39068.54707819785,39057.41590945911,39090.11651159722,39139.75973603246,39199.41654198367,39193.04629481391,39131.04255569489,39100.89005242468,39137.03282320891,39114.010526419945,39040.741508095445,39052.431470445576,39091.90465115364,39125.25345388096,39155.182439706616,39147.38168089172,39147.64990182518,39189.40296046769,39190.98993432402,39246.265798361994,39293.07035125141,39249.90913270821,39257.77694675648,39284.57668835839,39293.56208962943,39274.16077544222,39288.4211884047,39290.25403145004,39311.19761600466,39360.48321252861,39375.72710224713,39338.06441283994,39304.29092696797,39260.86148749131,39205.56327170888,39198.65658267219,39205.09388507532,39266.5164788385,39275.45717662063,39307.777799103,39352.79421243599,39432.05349827451,39495.91243218332,39461.244876533136,39460.70843466621,39443.363480968896,39385.964201207666,39350.82725892392,39281.26863017901,39230.887798176744,39197.89662336071,39170.67219861415,39080.75113067045,38954.77669892034,38817.33582226465,38724.84430370859,38634.83382878707,38529.914740313856,38437.26675954661,38353.00068295011,38265.06892026293,38188.44714027013,38080.37645582872,37961.822803237774,37819.419839313014,37676.01104688776,37525.181475303354,37396.83775864098,37252.64665515979,37119.74318262854,36980.93884956108,36848.25889447438,36727.49241918235,36598.14287401949,36472.6601806474,36371.406778264856,36228.445020728715,36137.92045568472,36030.78854451043,35926.80822930434,35775.643381553105,35550.53896314371,35407.46544688528,35300.735867111194,35183.27744999855,35081.487605749084,35008.35269789132,34910.161484499156,34779.04615152432,34687.426351002025,34558.32267502817,34483.17611016943,34427.363804264525,34370.94800125933,34297.58957595701,34260.30686620556,34240.81614504053,34203.824007967,34119.84850404841,34085.27035537605,33988.040266995464,33885.26694598996,33834.41672735414,33826.75007900597,33790.60730822173,33705.402458358105,33709.33636538224,33671.360751552675,33638.168411036546,33620.59993989467,33672.79126319781,33720.087554465244,33727.01659524639,33716.9583102415,33694.83008323074,33691.47732156245,33672.947725409,33743.780403587865,33820.826866725314,33863.16107072366,33980.12774945828,34060.16934635274,34152.2138300197,34226.91335998933,34244.6829968313,34262.56439239554,34362.85666976651,34554.99226510433,34676.13872005209,34718.36116532817,34680.96669685444,34699.161016841055,34802.5154832024,34885.552213853865,34931.93208359863,35006.40809612371,35157.79646131951,35298.500692665664,35360.32561782904,35404.067981728076,35480.22037508731,35441.2165810128,35468.105729592535,35586.99465835031,35668.600877356635,35747.88251493961,35866.95025765303,36022.22782638405,36152.225572136114,36204.28278497252,36277.84237597494,36358.263952525136,36443.625264599956,36503.93027114037,36560.4801846123,36637.459592516374,36730.97929131738,36843.18504848302,36937.08472693977,37062.43330984513,37189.480625329095,37296.7019434812,37418.36248855144,37578.55744106262,37728.962329502385,37800.845539670656,37905.38464848812,38024.742963879464,38036.90231286315,38109.23255792053,38243.38772814128,38296.71899041164,38378.638133840344,38470.079120407005,38574.72998794675,38676.81040487414,38810.65265067251,38882.06647420722,38873.1257764251,38906.519282641326,39014.23233917145,39080.30409578134,39094.05041862135,39123.33120385781,39142.06196571136,39189.17944302314,39294.76908383001,39372.50845104557,39460.93195211076,39590.54971820709,39699.223899748795,39760.042996411685,39867.979570386364,39959.37585346411,40019.77026698235,40059.042281990325,40150.93030344609,40170.59983856676,40235.66576667616,40341.5236284165,40383.61196322584,40372.234925298086,40403.415608813244,40501.33860127194,40533.56981677649,40544.700985515236,40582.60954411144,40644.50152450818,40727.87353132648,40829.55161685367,40954.229647425374,41052.30910209526,41115.94451855952,41168.29230407385,41154.18835332255,41155.03771961185,41253.07247079283,41326.788524006435,41352.493030130034,41367.535754148455,41399.76696965301,41438.971929427615,41509.49168318411,41571.31660834749,41591.20966091271,41637.43306844629,41677.4873945102,41734.350232404504,41745.77197382116,41759.07126177207,41838.12938191049,41909.878481612024,41947.00472915229,41979.21359291239,42036.09878255115,42076.24251559288,42148.43865018352,42224.65809877612,42232.86118899121,42192.02455187137,42169.13636554914,42174.97017085197,42127.807990051275,42160.933275334035,42185.81076691279,42226.870921477195,42272.289666210374,42298.12828280071,42298.865890367735,42357.20394339609,42397.43708341564,42435.21153154511,42452.377671286784,42508.79347429198,42561.43183248423,42533.335689703905,42517.622413351826,42556.760317893066,42578.53091699254,42581.548402494,42592.43370204374,42589.21505084218,42612.706734264706,42655.97971153018,42712.88725291339,42752.76276502166,42737.94355844779,42694.424711993306,42690.13317705788,42662.68523486677,42606.02356267256,42544.42215495374,42508.50290161406,42569.72432967715,42562.12473656234,42496.05297995245,42431.74701115453,42401.996839284526,42374.012455226475,42306.644297438186,42222.40057258613,42189.20823207,42145.689385615515,42036.7246313959,41933.01253712327,41835.4248208314,41701.76138898866,41554.57515175047,41397.24122252956,41242.27657822092,41106.623841121655,40963.05858648522,40844.03554726071,40704.00186824821,40598.680448374806,40479.143319027826,40359.159154791734,40213.0905047763,40092.59225041774,39898.266184123306,39711.874987110496,39581.81018612506,39442.5588181685,39361.95842766266,39250.132650152766,39115.9327764431,38936.24710276689,38818.58751995415,38685.259364278245,38542.990510820215,38425.4203349853,38329.844275694406,38261.22442021661,38161.87091611277,38064.752586454466,38004.80520782533,37937.61586399268,37827.48881906138,37757.14787926053,37665.50572699377,37582.223127153295,37582.6701620424,37542.90640865641,37422.58696825349,37322.317042626986,37194.48741608708,37144.955950374126,37167.64297099626,37153.9189999007,37106.9579848001,37126.82868562087,37147.749918431036,37121.598377418326,37098.86665330728,37060.86868773326,37029.665652473646,37059.54993481039,37005.90574811766,36945.39957587714,36904.76410445739,36882.077083835255,36849.73410960843,36865.62619991615,36933.396689104644,36970.29941920035,37005.548120206375,36970.098253500255,37005.01167833945,37048.821097471846,37065.942533724614,37117.55271167192,37143.480735240075,37182.39512233676,37230.80900082696,37272.182079813734,37211.11711396183,37147.34758703084,37276.2500973046,37331.72712704267,37382.979677078685,37411.65696521485,37411.701668703754,37457.96977972624,37539.55364698811,37533.25045505172,37542.168801089385,37594.91891800391,37677.083930621615,37751.5599431467,37805.09237111716,37861.39641540008,37889.626668647135,37964.30384687232,38044.99364435597,38156.12651778776,38293.09800780988,38379.84512804093,38446.63214047338,38542.9458073313,38614.27022388819,38662.92997156739,38674.79874787316,38716.8870826825,38790.62548764056,38900.37255291612,38965.036149625324,39075.38671200117,39154.13190771722,39165.665407856155,39208.446646743614,39252.43487983166,39333.50465697106,39387.37236110835,39501.366257830414,39614.10845686298,39698.88862358197,39796.87867127403,39829.378107712044,39879.55777401421,39968.74123439089,40014.56231052426,40111.09949482674,40224.48989444851,40307.012534977504,40388.462291772645,40464.525278154055,40546.39971809384,40622.39564924189,40681.4042546039,40745.93374084637,40788.44675880036,40827.18233194141,40877.78668138822,40971.6193046116,41052.84554396219,41124.0582017968,41227.859703047245,41257.65457840617,41331.817666508876,41437.47436254911,41505.26720348206,41522.41099147928,41544.31570104548,41616.355373424936,41730.05869746908,41800.42198901439,41887.05735052316,41904.13408328701,41957.68886300193,42012.3165264507,42099.354219359666,42190.28111580385,42207.89429043463,42206.374371811675,42215.940918438544,42179.28405753184,42150.942045562515,42218.22079637299,42298.19533803408,42336.64033849721,42385.65771408769,42461.67599698019,42484.38536934678,42517.957689518655,42576.541611736015,42647.10606898142,42732.82500896752,42760.898800003386,42769.481869874224,42837.028841618165,42890.56126958862,42919.797351336165,42938.86338935654,42960.1869535669,43037.255768448806,43094.655048210036,43084.797928905245,43057.75231811432,43046.9117220535,43071.09630955414,43067.25180950783,43083.65798993802,43095.45971101042,43079.16528930251,43077.734777657366,43136.58692080819,43207.46430247597,43296.49130064146,43392.469691332546,43446.784430358945,43447.32087222587,43450.67363389416,43456.015700818985,43528.167131920716,43557.179696223706,43556.24092295658,43592.406045485266,43627.29711858,43576.26808598854,43522.53449231798,43542.986338494586,43568.44497542918,43468.91265736969,43381.29381910489,43333.885769115186,43250.80433497481,43197.02603781534,43160.61504609764,43072.079786310176,42971.92161940594,42837.788800929644,42710.16034008984,42644.87089453589,42569.43375699923,42447.54969448444,42313.32746903032,42201.12171186468,42020.74313411035,41840.76688775622,41730.32691840255,41618.21056821472,41496.77354058904,41309.95766043159,41080.74052104241,40864.62150390405,40701.76669380268,40555.58628506497,40419.66532703225,40262.53256351144,40144.15772487614,40031.88491247713,39913.01833546381,39759.841830711586,39587.53223270562,39453.80174562952,39307.44252293617,39196.711980904576,39112.7811804749,39049.07870877728,38996.59681279622,38915.124704256625,38837.228874829874,38774.3534176771,38660.62774188849,38559.66491218387,38523.209216977266,38509.99933600418,38445.46984976171,38371.32911340346,38259.793908571475,38210.32949809188,38200.651192742735,38196.449064785134,38193.297468816934,38168.26351502699,38148.214000250584,38112.138284699715,38091.84290073429,38099.86717699375,38123.87295053875,38137.06047976738,38162.94379984663,38169.22464003857,38157.087642799335,38176.35484651981,38213.861073715816,38226.869788988806,38223.60643429833,38258.452803904154,38245.309978164434,38208.116675390804,38184.58028847937,38201.23233809857,38233.12827743629,38257.402271914754,38308.56541497295,38323.764601202565,38342.38360433383,38398.82175908348,38461.6301610029,38537.55903691758,38583.73774096224,38571.243115811725,38582.77661595066,38588.92334567587,38641.002910256735,38692.389570759486,38742.74805101729,38785.05990327119,38862.128718153086,38990.114806904174,39039.758031339414,39042.79786858534,39087.81428191833,39114.636375264694,39173.17559399314,39205.42916124215,39254.49124032155,39318.9313195862,39340.791325663486,39385.964201207666,39494.99601066065,39531.58581633399,39541.46528738324,39535.96675824723,39614.84606443001,39719.96631860332,39805.97583126734,39835.79305837072,39886.53151828427,39936.979405519894,39907.56450981671,39898.71321901241,39965.90256284506,40090.290020738845,40177.14889969217,40234.68228992013,40303.860939009304,40386.3835795383,40422.213425900154,40417.5866147979,40432.51758009405,40452.72355708165,40553.731090275185,40680.84546099251,40811.73727652279,40873.696312152904,40953.53674334726,40966.254885942326,41010.73485740839,41108.166111489074,41158.6139987247,41209.06188596033,41216.97440349751,41254.23476150451,41298.89354692621,41411.94867038115,41480.12149096984,41502.964973803166,41509.15640701728,41555.49157327313,41686.5398510146,41757.08195651555,41760.4570699283,41790.05077958712,41814.190663598856,41829.61336727302,41893.78522560421,41945.37305180705,41962.807412482194,41996.46913963189,42008.22615721538,42004.202843213425,42046.84997163415,42117.57089109074,42149.891513573115,42183.955572123,42199.62414498617,42243.88059900768,42319.40714352216,42345.29046360141,42390.15041472321,42476.562258787424,42537.02372753903,42541.29291072999,42538.40953569526,42571.04308260001,42612.684382520245,42666.86501107991,42707.32166854402,42799.36615221097,42852.49624878124,42921.92076705942,42952.92263661893,43014.21111991538,43084.507356227325,43102.276993069296,43139.939682476484,43168.57226712373,43188.91235457806,43192.376874968635,43222.283509049834,43215.712096179974,43218.77428517035,43246.51280003939,43248.63621576264,43287.50589937042,43302.414512922114,43350.023728611915,43420.632889346234,43470.07494808137,43567.32738820641,43642.29513910951,43722.24732902615,43762.03343415659,43741.04514611306,43712.25609925462,43752.73510846318,43748.86825667242,43741.64864321335,43819.455065662274,43848.333519498534,43913.08652318556,43988.568364211125,44027.48275130782,44039.61974854705,44009.958983654855,44028.30976585267,44081.685731611935,44092.28045848375,44104.81978712318,44052.71787079786,44043.643062549,44044.76064977177,44084.32323745766,44130.8148659247,44150.08206964518,44171.58444781118,44231.10714329567,44233.09644855219,44226.681497893514,44238.95260559948,44253.30242553978,44256.96811163046,44236.896245109594,44176.12185193561,