57873 
57912 
57926 
57935 
57964 
57983 
57995 
58002 
58070 
58126 
58122 
58106 
58074 
58075 
58181 
58303 
58334 
58343 
58377 
58390 
58414 
58441 
58441 
58412 
58395 
58429 
58508 
58515 
58533 
58530 
58509 
58519 
58545 
58559 
58539 
58533 
58512 
58454 
58401 
58359 
58301 
58226 
58156 
58122 
58026 
57908 
57840 
57787 
57738 
57669 
57577 
57423 
57255 
57146 
57056 
56959 
56827 
56727 
56637 
56560 
56517 
56419 
56326 
56258 
56174 
56049 
55969 
55874 
55759 
55698 
55636 
55585 
55550 
55516 
55501 
55524 
55562 
55590 
55495 
55489 
55554 
55582 
55639 
55704 
55760 
55787 
55844 
55956 
56057 
56170 
56294 
56377 
56414 
56424 
56465 
56479 
56538 
56575 
56545 
56571 
56652 
56727 
56710 
56718 
56746 
56780 
56768 
56764 
56725 
56706 
56696 
56652 
56611 
56569 
56563 
56610 
56621 
56587 
56582 
56586 
56580 
56568 
56552 
56570 
56604 
56647 
56686 
56737 
56788 
56809 
56849 
56882 
56940 
57000 
57021 
57055 
57117 
57144 
57159 
57152 
57156 
57166 
57181 
57204 
57227 
57271 
57326 
57401 
57456 
57441 
57453 
57463 
57494 
57534 
57555 
57575 
57607 
57594 
57539 
57488 
57509 
57572 
57605 
57650 
57672 
57647 
57645 
57639 
57630 
57631 
57651 
57698 
57715 
57709 
57660 
57685 
57677 
57665 
57655 
57607 
57583 
57556 
57520 
57514 
57529 
57528 
57505 
57508 
57500 
57456 
57427 
57404 
57385 
57345 
57291 
57206 
57143 
57154 
57190 
57167 
57148 
57114 
57054 
56981 
56968 
56981 
56964 
56944 
56993 
57024 
56999 
57000 
56950 
56882 
56869 
56875 
56855 
56818 
56824 
56790 
56746 
56713 
56661 
56642 
56634 
56661 
56672 
56662 
56619 
56618 
56609 
56640 
56686 
56701 
56666 
56658 
56669 
56689 
56720 
56758 
56715 
56692 
56699 
56693 
56694 
56697 
56750 
56799 
56832 
56876 
56889 
56990 
57033 
57002 
57002 
57040 
57075 
57120 
57200 
57244 
57254 
57311 
57333 
57366 
57383 
57398 
57415 
57425 
57476 
57562 
57619 
57638 
57638 
57676 
57740 
57831 
57869 
57861 
57888 
57872 
57844 
57857 
57910 
57903 
57929 
57959 
57934 
57930 
58008 
58022 
58012 
58048 
58101 
58097 
58084 
58075 
58147 
58219 
58229 
58226 
58239 
58249 
58269 
58328 
58435 
58511 
58551 
58599 
58600 
58607 
58665 
58735 
58745 
58731 
58741 
58757 
58794 
58846 
58887 
58930 
58977 
58988 
59015 
58994 
58997 
59045 
59061 
59047 
59055 
59077 
59135 
59163 
59176 
59200 
59238 
59245 
59254 
59270 
59229 
59217 
59242 
59270 
59252 
59227 
59231 
59217 
59202 
59194 
59189 
59156 
59159 
59188 
59170 
59106 
59066 
59086 
59157 
59185 
59233 
59255 
59214 
59198 
59191 
59152 
59188 
59229 
59185 
59183 
59217 
59219 
59203 
59151 
59110 
59131 
59172 
59205 
59235 
59202 
59166 
59162 
59136 
59091 
59106 
59140 
59100 
59003 
58921 
58840 
58722 
58604 
58548 
58445 
58318 
58227 
58124 
58054 
57958 
57863 
57786 
57694 
57591 
57474 
57368 
57309 
57217 
57075 
56920 
56743 
56610 
56500 
56416 
56366 
56347 
56341 
56300 
56193 
56096 
55989 
55935 
55955 
55975 
55971 
55933 
55940 
55962 
55963 
55913 
55836 
55788 
55784 
55795 
55761 
55732 
55738 
55797 
55837 
55862 
55933 
55984 
56033 
56133 
56119 
56066 
56119 
56161 
56193 
56246 
56295 
56342 
56384 
56360 
56443 
56503 
56601 
56655 
56690 
56776 
56804 
56790 
56835 
56909 
56983 
57097 
57137 
57165 
57187 
57240 
57276 
57322 
57483 
57594 
57665 
57720 
57752 
57810 
57871 
57932 
57997 
58076 
58128 
58169 
58211 
58195 
58211 
58277 
58285 
58335 
58410 
58444 
58448 
58496 
58509 
58520 
58551 
58605 
58614 
58634 
58705 
58765 
58778 
58750 
58762 
58755 
58730 
58704 
58745 
58802 
58838 
58812 
58779 
58771 
58760 
58765 
58751 
58701 
58675 
58642 
58634 
58625 
58573 
58516 
58484 
58498 
58460 
58402 
58389 
58351 
58360 
58393 
58371 
58364 
58330 
58315 
58353 
58345 
58299 
58290 
58325 
58358 
58374 
58410 
58458 
58465 
58451 
58491 
58523 
58572 
58699 
58815 
58815 
58865 
58916 
58994 
59051 
59110 
59206 
59286 
59360 
59416 
59442 
59498 
59587 
59695 
59754 
59786 
59818 
59855 
59894 
59969 
59959 
59961 
60027 
60064 
60084 
60121 
60137 
60201 
60216 
60206 
60203 
60183 
60190 
60193 
60152 
60114 
60101 
60107 
60109 
60082 
60000 
59938 
59882 
59850 
59846 
59806 
59752 
59674 
59628 
59594 
59562 
59438 
59298 
59145 
59026 
58920 
58835 
58725 
58535 
58346 
58192 
58072 
57926 
57851 
57754 
57649 
57518 
57394 
57233 
57108 
57061 
56958 
56840 
56734 
56669 
56600 
56528 
56419 
56292 
56221 
56191 
56161 
56160 
56176 
56105 
56042 
56029 
56028 
56002 
56004 
56040 
56113 
56134 
56114 
56146 
56216 
56203 
56202 
56200 
56271 
56256 
56253 
56281 
56301 
56313 
56321 
56343 
56366 
56379 
56439 
56504 
56548 
56632 
56661 
56696 
56718 
56692 
56695 
56729 
56706 
56703 
56669 
56645 
56654 
56614 
56587 
56560 
56558 
56588 
56553 
56519 
56494 
56443 
56402 
56356 
56330 
56302 
56285 
56299 
56333 
56331 
56362 
56357 
56317 
56342 
56375 
56422 
56436 
56455 
56441 
56419 
56500 
56544 
56559 
56542 
56534 
56545 
56540 
56556 
56631 
56648 
56600 
56563 
56520 
56517 
56538 
56516 
56443 
56356 
56328 
56283 
56298 
56279 
56268 
56199 
56150 
56110 
56098 
56081 
56028 
55962 
55913 
55817 
55754 
55789 
55792 
55789 
55791 
55778 
55743 
55713 
55719 
55752 
55763 
55728 
55765 
55786 
55756 
55755 
55771 
55794 
55804 
55839 
55883 
55977 
56102 
56139 
56147 
56188 
56243 
56266 
56348 
56461 
56514 
56562 
56584 
56627 
56678 
56701 
56704 
56707 
56734 
56728 
56716 
56710 
56791 
56888 
56952 
57025 
57063 
57186 
57292 
57333 
57395 
57499 
57586 
57627 
57718 
57755 
57818 
57932 
58059 
58181 
58195 
58187 
58177 
58172 
58190 
58237 
58268 
58338 
58357 
58290 
58206 
58144 
58113 
58059 
57935 
57825 
57763 
57703 
57613 
57532 
57467 
57407 
57348 
57299 
57193 
57106 
57055 
57015 
56938 
56836 
56744 
56656 
56621 
56614 
56584 
56559 
56519 
56505 
56513 
56516 
56518 
56499 
56526 
56542 
56526 
56512 
56535 
56514 
56476 
56458 
56451 
56456 
56481 
56487 
56482 
56507 
56537 
56533 
56515 
56454 
56367 
56361 
56353 
56327 
56247 
56193 
56166 
56093 
56063 
56051 
56047 
56105 
56127 
56129 
56090 
56042 
56021 
55992 
55965 
55958 
55991 
55930 
55850 
55858 
55897 
55925 
55886 
55850 
55846 
55858 
55856 
55858 
55883 
55825 
55759 
55737 
55715 
55725 
55692 
55623 
55645 
55658 
55631 
55578 
55541 
55544 
55573 
55548 
55454 
55360 
55322 
55279 
55263 
55296 
55366 
55391 
55480 
55555 
55581 
55627 
55658 
55688 
55715 
55731 
55751 
55796 
55794 
55811 
55843 
55875 
55930 
56004 
56105 
56218 
56289 
56293 
56380 
56434 
56407 
56412 
56461 
56555 
56707 
56794 
56845 
56900 
56953 
57054 
57146 
57242 
57335 
57368 
57431 
57516 
57617 
57683 
57696 
57766 
57852 
57865 
57904 
57910 
57893 
57917 
57950 
57936 
57996 
58051 
58077 
58093 
58068 
58037 
58012 
57970 
57826 
57691 
57628 
57596 
57459 
57330 
57209 
57113 
57068 
56990 
56891 
56771 
56613 
56461 
56334 
56247 
56152 
56075 
56059 
56038 
55966 
55876 
55800 
55726 
55645 
55541 
55442 
55366 
55359 
55412 
55475 
55477 
55433 
55389 
55403 
55414 
55410 
55390 
55421 
55468 
55527 
55592 
55630 
55685 
55726 
55748 
55832 
55952 
55995 
56046 
56113 
56221 
56310 
56377 
56447 
56463 
56465 
56524 
56621 
56732 
56796 
56866 
57003 
57152 
57209 
57267 
57368 
57457 
57542 
57615 
57659 
57718 
57759 
57809 
57850 
57911 
57946 
57997 
58074 
58128 
58193 
58238 
58258 
58296 
58322 
58391 
58407 
58408 
58463 
58502 
58504 
58492 
58504 
58534 
58518 
58530 
58530 
58507 
58511 
58522 
58528 
58537 
58553 
58567 
58623 
58616 
58589 
58594 
58652 
58682 
58691 
58705 
58718 
58706 
58716 
58705 
58679 
58656 
58661 
58625 
58589 
58556 
58573 
58651 
58669 
58661 
58657 
58674 
58707 
58740 
58727 
58721 
58678 
58607 
58581 
58599 
58672 
58771 
58779 
58757 
58774 
58778 
58750 
58711 
58666 
58680 
58721 
58687 
58700 
58688 
58630 
58635 
58635 
58589 
58570 
58536 
58496 
58477 
58486 
58488 
58446 
58445 
58458 
58477 
58493 
58462 
58435 
58429 
58468 
58489 
58463 
58448 
58437 
58420 
58370 
58346 
58340 
58282 
58214 
58190 
58133 
58086 
57986 
57936 
57884 
57767 
57686 
57588 
57496 
57406 
57284 
57220 
57183 
57104 
57033 
56926 
56824 
56731 
56681 
56625 
56608 
56570 
56477 
56361 
56268 
56228 
56204 
56171 
56138 
56102 
56074 
56057 
55989 
55901 
55852 
55792 
55734 
55683 
55699 
55717 
55692 
55666 
55682 
55719 
55694 
55696 
55725 
55765 
55784 
55796 
55785 
55825 
55812 
55815 
55862 
55874 
55933 
55969 
56024 
56076 
56068 
56093 
56132 
56187 
56216 
56194 
56194 
56194 
56177 
56252 
56316 
56350 
56345 
56344 
56345 
56340 
56367 
56439 
56520 
56581 
56578 
56525 
56524 
56526 
56587 
56659 
56725 
56750 
56727 
56680 
56652 
56635 
56608 
56623 
56646 
56678 
56726 
56789 
56786 
56742 
56740 
56738 
56747 
56766 
56776 
56726 
56708 
56671 
56611 
56609 
56657 
56682 
56725 
56788 
56803 
56816 
56849 
56917 
56941 
56968 
56989 
56998 
56981 
56979 
57062 
57136 
57127 
57078 
57118 
57176 
57226 
57258 
57268 
57344 
57409 
57457 
57440 
57456 
57477 
57517 
57532 
57561 
57529 
57552 
57584 
57618 
57676 
57672 
57630 
57643 
57720 
57782 
57831 
57879 
57906 
57859 
57844 
57900 
57950 
57951 
57941 
57938 
57968 
58009 
57999 
58015 
58004 
58040 
58044 
58031 
58033 
58044 
58013 
57981 
57983 
57959 
57942 
57949 
57998 
58011 
57924 
57877 
57830 
57770 
57752 
57759 
57710 
57619 
57549 
57456 
57338 
57295 
57197 
57114 
57004 
56902 
56801 
56686 
56559 
56488 
56409 
56321 
56211 
56099 
56011 
55886 
55768 
55746 
55762 
55721 
55690 
55631 
55579 
55594 
55575 
55536 
55478 
55387 
55321 
55283 
55273 
55341 
55388 
55371 
55337 
55331 
55320 
55328 
55339 
55344 
55331 
55359 
55340 
55317 
55365 
55409 
55422 
55486 
55541 
55607 
55658 
55655 
55675 
55715 
55733 
55749 
55792 
55836 
55880 
55946 
56026 
56044 
55999 
56005 
56049 
56099 
56146 
56174 
56185 
56193 
56223 
56257 
56322 
56411 
56469 
56490 
56483 
56515 
56549 
56557 
56587 
56610 
56609 
56636 
56647 
56667 
56683 
56710 
56711 
56722 
56741 
56737 
56753 
56795 
56819 
56856 
56876 
56878 
56849 
56874 
56951 
57032 
57037 
57065 
57115 
57091 
57095 
57147 
57214 
57211 
57187 
57158 
57192 
57266 
57323 
57338 
57359 
57393 
57396 
57429 
57465 
57493 
57513 
57561 
57611 
57634 
57685 
57770 
57811 
57841 
57848 
57855 
57858 
57844 
57866 
57875 
57875 
57927 
57957 
57957 
57968 
57969 
58000 
58046 
58077 
58097 
58082 
58032 
58075 
58120 
58144 
58099 
58025 
57998 
58002 
58021 
58079 
58135 
58208 
58212 
58251 
58298 
58252 
58226 
58223 
58246 
58264 
58216 
58198 
58185 
58159 
58176 
58178 
58201 
58227 
58241 
58258 
58223 
58225 
58220 
58168 
58128 
58110 
58050 
57991 
57959 
57910 
57830 
57743 
57655 
57592 
57574 
57537 
57429 
57336 
57298 
57215 
57142 
57099 
57033 
56938 
56844 
56804 
56746 
56692 
56573 
56484 
56456 
56441 
56376 
56309 
56238 
56160 
56083 
56046 
56039 
55972 
55900 
55876 
55858 
55791 
55721 
55662 
55653 
55647 
55647 
55621 
55595 
55590 
55572 
55573 
55592 
55600 
55631 
55641 
55629 
55665 
55717 
55756 
55822 
55794 
55815 
55844 
55896 
55962 
56000 
56034 
56107 
56200 
56192 
56191 
56150 
56138 
56162 
56192 
56192 
56226 
56251 
56306 
56370 
56433 
56444 
56423 
56472 
56459 
56438 
56488 
56513 
56491 
56517 
56573 
56577 
56542 
56525 
56542 
56605 
56636 
56649 
56647 
56640 
56668 
56705 
56751 
56799 
56786 
56767 
56773 
56806 
56787 
56740 
56715 
56786 
56840 
56840 
56889 
56908 
56858 
56837 
56780 
56768 
56795 
56854 
56893 
56868 
56891 
56904 
56904 
56934 
56974 
57056 
57087 
57088 
57138 
57178 
57146 
57146 
57162 
57103 
57079 
57107 
57113 
57136 
57178 
57239 
57273 
57251 
57240 
57257 
57246 
57239 
57223 
57196 
57157 
57165 
57156 
57156 
57194 
57193 
57213 
57234 
57240 
57226 
57165 
57168 
57173 
57189 
57190 
57154 
57122 
57117 
57104 
57124 
57171 
57226 
57192 
57134 
57101 
57052 
57019 
56979 
56973 
56962 
56959 
56990 
56971 
56915 
56857 
56809 
56791 
56716 
56663 
56650 
56606 
56541 
56506 
56417 
56314 
56190 
56060 
56007 
55898 
55800 
55716 
55663 
55601 
55518 
55482 
55427 
55308 
55233 
55199 
55159 
55093 
55014 
54899 
54827 
54814 
54760 
54707 
54697 
54674 
54641 
54675 
54721 
54696 
54652 
54601 
54577 
54622 
54652 
54672 
54660 
54670 
54688 
54714 
54749 
54816 
54894 
54920 
54927 
54930 
55003 
55070 
55140 
55174 
55238 
55288 
55292 
55310 
55317 
55331 
55385 
55419 
55483 
55530 
55539 
55562 
55568 
55599 
55617 
55637 
55627 
55646 
55636 
55621 
55631 
55653 
55637 
55683 
55740 
55760 
55769 
55797 
55785 
55744 
55765 
55823 
55842 
55849 
55802 
55735 
55726 
55753 
55775 
55825 
55887 
55867 
55859 
55871 
55878 
55904 
55917 
55921 
55961 
55958 
55915 
55954 
56037 
56081 
56111 
56186 
56249 
56294 
56284 
56310 
56333 
56356 
56398 
56421 
56442 
56434 
56416 
56413 
56468 
56494 
56512 
56544 
56566 
56603 
56574 
56572 
56607 
56630 
56621 
56658 
56750 
56756 
56723 
56734 
56738 
56742 
56707 
56737 
56836 
56845 
56806 
56826 
56887 
56870 
56898 
56949 
56958 
56903 
56921 
56889 
56844 
56869 
56892 
56928 
56925 
56877 
56845 
56870 
56857 
56888 
56911 
56917 
56972 
56989 
56935 
56910 
56942 
56968 
57011 
57051 
57079 
57049 
57010 
57030 
57010 
57033 
57069 
57107 
57109 
57109 
57141 
57134 
57106 
57122 
57102 
57084 
57069 
57050 
57008 
56910 
56794 
56744 
56666 
56603 
56526 
56434 
56385 
56352 
56274 
56127 
56011 
55906 
55796 
55783 
55781 
55733 
55652 
55569 
55494 
55418 
55367 
55369 
55334 
55224 
55140 
55122 
55099 
55076 
55040 
54948 
54899 
54876 
54844 
54800 
54748 
54676 
54576 
54510 
54499 
54511 
54490 
54483 
54535 
54579 
54546 
54532 
54604 
54633 
54652 
54673 
54726 
54790 
54843 
54876 
54904 
54938 
55000 
55043 
55109 
55160 
55195 
55211 
55209 
55233 
55270 
55350 
55470 
55511 
55526 
55571 
55623 
55650 
55665 
55685 
55682 
55741 
55784 
55864 
55924 
55951 
55980 
56119 
56214 
56259 
56317 
56390 
56492 
56627 
56695 
56757 
56811 
56848 
56901 
56961 
57050 
57114 
57185 
57256 
57305 
57358 
57389 
57413 
57479 
57547 
57583 
57632 
57718 
57780 
57825 
57864 
57924 
57939 
57931 
57976 
58045 
58096 
58132 
58181 
58214 
58249 
58231 
58202 
58193 
58246 
58302 
58372 
58377 
58354 
58337 
58310 
58311 
58358 
58355 
58358 
58367 
58395 
58469 
58488 
58502 
58469 
58393 
58313 
58271 
58266 
58236 
58219 
58217 
58219 
58217 
58244 
58199 
58150 
58144 
58090 
58072 
58095 
58088 
58097 
58083 
58033 
58012 
57989 
57981 
57935 
57946 
57962 
57911 
57884 
57857 
57833 
57789 
57742 
57742 
57736 
57736 
57706 
57656 
57634 
57588 
57576 
57555 
57538 
57454 
57410 
57309 
57233 
57138 
57067 
56953 
56843 
56757 
56660 
56586 
56514 
56474 
56383 
56292 
56180 
56067 
55961 
55897 
55819 
55685 
55569 
55501 
55448 
55388 
55361 
55330 
55262 
55166 
55093 
55066 
55069 
55030 
54988 
54994 
54967 
54908 
54907 
54891 
54888 
54873 
54842 
54820 
54797 
54843 
54892 
54944 
55014 
55109 
55180 
55176 
55191 
55232 
55253 
55272 
55277 
55275 
55317 
55381 
55407 
55461 
55558 
55628 
55651 
55679 
55708 
55758 
55813 
55855 
55829 
55830 
55861 
55892 
55891 
55884 
55919 
55969 
56017 
56027 
56016 
56052 
55999 
55969 
56017 
56057 
56079 
56072 
56088 
56118 
56102 
56082 
56073 
56064 
56072 
56109 
56122 
56096 
56066 
56025 
56045 
56094 
56157 
56183 
56186 
56141 
56124 
56105 
56090 
56072 
56059 
56050 
56107 
56153 
56172 
56188 
56205 
56180 
56128 
56137 
56145 
56189 
56227 
56276 
56246 
56184 
56156 
56149 
56177 
56148 
56202 
56244 
56240 
56259 
56263 
56284 
56298 
56272 
56288 
56357 
56359 
56371 
56361 
56365 
56358 
56365 
56393 
56476 
56495 
56463 
56505 
56484 
56477 
56445 
56419 
56400 
56421 
56446 
56443 
56432 
56461 
56438 
56463 
56473 
56446 
56429 
56419 
56440 
56460 
56517 
56577 
56627 
56612 
56576 
56591 
56582 
56594 
56607 
56580 
56569 
56577 
56582 
56517 
56381 
56273 
56127 
56079 
56068 
55973 
55868 
55765 
55701 
55645 
55589 
55509 
55471 
55459 
55388 
55276 
55206 
55205 
55167 
55141 
55088 
54981 
54922 
54891 
54859 
54894 
54856 
54836 
54807 
54751 
54740 
54731 
54709 
54724 
54732 
54742 
54759 
54755 
54760 
54744 
54756 
54785 
54815 
54826 
54839 
54845 
54867 
54899 
54903 
54904 
54969 
55097 
55159 
55128 
55136 
55158 
55194 
55191 
55214 
55300 
55367 
55379 
55428 
55486 
55466 
55484 
55509 
55535 
55581 
55577 
55569 
55565 
55618 
55683 
55717 
55783 
55822 
55928 
55968 
55995 
56044 
56075 
56109 
56088 
56079 
56117 
56128 
56117 
56167 
56211 
56230 
56230 
56244 
56293 
56370 
56355 
56377 
56437 
56452 
56456 
56499 
56525 
56494 
56543 
56601 
56615 
56574 
56549 
56587 
56598 
56635 
56668 
56692 
56755 
56786 
56830 
56868 
56969 
57082 
57107 
57056 
56987 
57001 
57070 
57089 
57078 
57071 
57044 
57060 
57133 
57158 
57197 
57217 
57248 
57268 
57269 
57272 
57323 
57338 
57366 
57365 
57354 
57360 
57395 
57436 
57450 
57478 
57504 
57478 
57451 
57470 
57482 
57519 
57528 
57495 
57497 
57511 
57549 
57518 
57505 
57548 
57552 
57577 
57596 
57606 
57624 
57668 
57664 
57622 
57572 
57563 
57522 
57480 
57453 
57387 
57303 
57262 
57221 
57125 
57034 
56977 
56855 
56731 
56679 
56624 
56538 
56439 
56355 
56217 
56069 
55979 
55911 
55797 
55676 
55579 
55456 
55368 
55293 
55274 
55247 
55171 
55123 
55061 
55018 
54925 
54874 
54872 
54868 
54889 
54920 
54883 
54863 
54791 
54734 
54742 
54786 
54821 
54783 
54760 
54754 
54757 
54812 
54851 
54926 
54970 
54980 
55070 
55179 
55194 
55208 
55260 
55288 
55324 
55389 
55410 
55478 
55564 
55663 
55764 
55823 
55819 
55844 
55866 
55882 
55985 
56020 
56040 
56096 
56124 
56158 
56188 
56253 
56294 
56329 
56362 
56408 
56472 
56533 
56561 
56670 
56813 
56880 
56919 
56976 
57068 
57090 
57086 
57072 
57088 
57097 
57148 
57154 
57166 
57219 
57247 
57256 
57291 
57305 
57352 
57396 
57471 
57514 
57521 
57498 
57465 
57459 
57503 
57505 
57510 
57502 
57487 
57499 
57501 
57493 
57484 
57495 
57490 
57524 
57538 
57536 
57527 
57540 
57560 
57604 
57588 
57544 
57588 
57647 
57623 
57582 
57538 
57503 
57493 
57519 
57497 
57503 
57537 
57523 
57524 
57531 
57514 
57528 
57572 
57541 
57568 
57606 
57592 
57580 
57585 
57536 
57499 
57537 
57568 
57645 
57628 
57619 
57687 
57728 
57675 
57650 
57657 
57636 
57615 
57659 
57667 
57693 
57679 
57695 
57768 
57747 
57672 
57620 
57628 
57642 
57583 
57494 
57406 
57341 
57302 
57305 
57271 
57222 
57182 
57157 
57102 
57005 
56892 
56745 
56617 
56550 
56449 
56354 
56262 
56141 
56058 
55960 
55832 
55747 
55685 
55616 
55524 
55485 
55410 
55342 
55284 
55223 
55183 
55144 
55088 
55002 
54950 
54890 
54856 
54852 
54888 
54895 
54880 
54911 
54963 
54929 
54904 
54938 
55006 
55040 
55056 
55078 
55127 
55164 
55208 
55266 
55357 
55462 
55520 
55534 
55530 
55566 
55595 
55647 
55753 
55791 
55815 
55883 
55931 
55956 
56020 
56095 
56153 
56221 
56240 
56281 
56268 
56273 
56270 
56245 
56268 
56261 
56295 
56353 
56410 
56448 
56484 
56499 
56493 
56529 
56603 
56645 
56642 
56610 
56589 
56600 
56641 
56664 
56653 
56632 
56606 
56627 
56688 
56715 
56735 
56818 
56842 
56844 
56862 
56891 
56957 
57010 
57010 
56980 
56953 
56928 
56945 
57038 
57055 
57062 
57109 
57157 
57155 
57173 
57191 
57198 
57219 
57213 
57234 
57230 
57231 
57271 
57280 
57299 
57343 
57368 
57339 
57370 
57449 
57506 
57510 
57492 
57441 
57387 
57413 
57471 
57477 
57470 
57419 
57374 
57360 
57387 
57413 
57370 
57400 
57487 
57557 
57558 
57574 
57533 
57499 
57485 
57443 
57445 
57435 
57385 
57323 
57284 
57278 
57287 
57301 
57361 
57383 
57401 
54406 
54410 
54385 
54400 
54417 
54337 
54291 
54305 
54377 
54389 
54413 
54433 
54436 
54468 
54529 
54619 
54688 
54724 
54747 
54793 
54826 
54851 
54894 
54929 
54961 
55014 
55040 
55072 
55097 
55154 
55176 
55204 
55214 
55282 
55304 
55324 
55380 
55433 
55478 
55510 
55526 
55562 
55555 
55570 
55589 
55608 
55650 
55730 
55762 
55823 
55890 
55890 
55891 
55907 
55909 
55930 
55917 
55894 
55930 
55986 
56041 
56095 
56114 
56148 
56204 
56215 
56258 
56352 
56332 
56369 
56464 
56524 
56539 
56578 
56647 
56649 
56649 
56660 
56676 
56659 
56642 
56639 
56661 
56725 
56753 
56761 
56775 
56793 
56827 
56897 
56960 
56998 
56995 
57000 
56990 
56980 
56960 
56966 
56975 
57016 
57063 
57081 
57078 
57051 
57071 
57111 
57158 
57219 
57245 
57242 
57325 
57351 
57386 
57394 
57364 
57359 
57368 
57355 
57325 
55779 
55725 
55702 
55710 
55696 
55646 
55554 
55595 
55619 
55585 
55520 
55491 
55531 
55540 
55520 
55533 
55504 
55495 
55509 
55537 
55595 
55635 
55683 
55763 
55798 
55787 
55787 
55824 
55899 
55944 
56004 
56072 
56125 
56214 
56264 
56256 
56269 
56320 
56373 
56455 
56547 
56635 
56654 
56681 
56701 
56695 
56699 
56741 
56787 
56794 
56787 
56796 
56791 
56829 
56834 
56841 
56896 
56930 
56956 
57000 
57030 
57035 
57040 
57057 
57091 
57099 
57129 
57198 
57198 
57139 
57123 
57110 
57148 
57228 
57264 
57272 
57290 
57310 
57309 
57312 
57284 
57247 
57292 
57324 
57386 
57459 
57478 
57468 
57481 
57561 
57605 
57644 
57707 
57744 
57743 
57720 
57752 
57768 
57824 
57839 
57806 
57792 
57861 
57901 
57899 
57964 
57999 
58053 
58075 
58084 
58112 
58118 
58123 
58208 
58285 
58266 
58188 
58212 
58290 
58260 
58185 
58175 
58144 
58146 
58197 
58186 
58132 
58107 
58114 
58130 
58124 
58114 
58081 
58071 
58078 
58068 
58057 
58106 
58164 
58135 
58173 
58285 
58324 
58322 
58290 
58263 
58314 
58301 
58223 
58146 
58086 
58045 
58027 
58056 
58047 
58068 
58082 
58049 
58035 
58022 
57991 
57953 
57905 
57852 
57783 
57725 
57662 
57603 
57536 
57504 
57466 
57409 
57270 
57166 
57122 
57045 
56952 
56925 
56880 
56764 
56657 
56583 
56523 
56430 
56316 
56161 
56054 
56014 
55933 
55830 
55782 
55787 
55777 
55752 
55728 
55701 
55639 
55617 
55647 
55623 
55607 
55599 
55609 
55660 
55714 
55756 
55814 
55887 
55924 
55918 
55887 
55921 
55975 
56040 
56071 
56134 
56231 
56287 
56348 
56382 
56431 
56500 
56537 
56588 
56644 
56737 
56791 
56809 
56849 
56868 
56884 
56860 
56823 
56835 
56866 
56889 
56885 
56889 
56883 
54581 
54547 
54534 
54540 
54546 
54520 
54471 
54441 
54468 
54507 
54486 
54506 
54532 
54573 
54717 
54806 
54846 
54900 
54944 
54956 
54965 
55015 
55079 
55141 
55143 
55133 
55124 
55080 
55058 
55086 
55136 
55231 
55344 
55379 
55400 
55424 
55439 
55371 
55337 
55311 
55302 
55281 
55303 
55353 
55436 
55510 
55563 
55625 
55686 
55724 
55740 
55772 
55804 
55844 
55857 
55865 
55840 
55827 
55823 
55893 
55910 
55929 
55958 
55974 
56005 
56036 
56082 
56157 
56167 
56173 
56205 
56257 
56319 
56362 
56391 
56418 
56493 
56472 
56470 
56543 
56564 
56564 
56634 
56678 
56732 
56753 
56782 
56826 
56834 
56876 
56965 
57026 
57066 
57082 
57105 
57158 
57131 
57099 
57149 
57210 
57253 
57320 
57339 
57366 
57414 
57447 
57500 
57523 
57562 
57620 
57634 
57688 
57738 
57769 
57776 
57762 
57766 
57779 
57762 
57669 
57641 
57564 
57466 
57386 
57295 
57210 
57108 
56988 
56872 
56724 
56571 
56455 
56379 
56247 
56111 
56029 
55982 
55840 
55738 
55609 
55514 
55409 
55307 
55216 
55125 
55116 
55092 
55109 
55065 
54998 
54967 
54895 
54843 
54841 
54831 
54801 
54730 
54720 
54711 
54656 
54569 
54527 
54501 
54506 
54462 
54464 
54465 
54490 
54555 
54586 
54602 
54631 
54662 
54719 
54806 
54855 
54845 
54813 
54839 
54833 
54795 
54801 
54832 
54847 
54833 
54824 
54879 
54965 
55028 
55082 
55145 
55161 
55130 
55151 
55210 
55264 
55300 
55341 
55386 
55423 
55458 
55470 
55541 
55607 
55613 
55625 
55695 
55756 
55759 
55843 
55906 
55910 
55910 
55935 
56004 
56045 
56076 
56145 
56212 
56265 
56330 
56380 
56360 
56396 
56489 
56541 
56545 
56604 
56685 
56705 
56689 
56705 
56736 
56781 
56814 
56828 
56856 
56926 
56995 
57032 
57096 
57097 
57112 
57134 
57119 
57114 
57187 
57236 
57208 
57214 
57259 
57297 
57324 
57370 
57441 
57498 
57548 
57660 
57702 
57686 
57740 
57791 
57807 
57872 
57906 
57940 
57995 
58062 
58092 
58145 
58238 
58333 
58402 
58449 
58510 
58541 
58586 
58680 
58765 
58843 
58884 
58914 
58955 
59026 
59063 
59059 
59064 
59073 
59095 
59152 
59215 
59225 
59231 
59287 
59301 
59273 
59284 
59323 
59336 
59338 
59374 
59420 
59433 
59436 
59458 
59488 
59456 
59460 
59467 
59397 
59347 
59331 
59279 
59198 
59134 
59016 
58953 
58898 
58807 
58696 
58496 
58308 
58175 
58061 
57939 
57861 
57819 
57771 
57698 
57662 
57622 
57516 
57467 
57411 
57309 
57206 
57087 
56955 
56842 
56717 
56593 
56537 
56436 
56336 
56206 
56081 
56023 
55961 
55872 
55803 
55742 
55708 
55669 
55607 
55541 
55497 
55452 
55404 
55364 
55329 
55294 
55262 
55271 
55320 
55357 
55364 
55320 
55268 
55261 
55245 
55156 
55110 
55165 
55214 
55254 
55255 
55307 
55323 
55343 
55403 
55427 
55461 
55529 
55558 
55627 
55702 
55723 
55748 
55754 
55771 
55849 
55870 
55865 
55869 
55893 
55879 
55877 
55948 
56024 
56064 
56093 
56064 
56023 
56040 
56109 
56188 
56270 
56286 
56316 
56350 
56354 
56358 
56403 
56394 
56367 
56357 
56393 
56419 
56418 
56418 
56448 
56507 
56536 
56536 
56570 
56615 
56613 
56583 
56602 
56618 
56678 
56749 
56802 
56819 
56873 
56874 
56878 
56900 
56967 
56977 
56972 
57009 
57082 
57112 
57183 
57230 
57222 
57210 
57215 
57275 
57271 
57286 
57303 
57349 
57359 
57341 
57425 
57457 
57425 
57414 
57431 
57484 
57509 
57553 
57625 
57643 
57635 
57649 
57591 
57539 
57577 
57651 
57694 
57733 
57780 
57822 
57881 
57915 
57901 
57896 
57907 
57986 
57951 
57945 
57974 
58007 
58052 
58076 
58084 
58082 
58124 
58146 
58100 
58089 
58153 
58171 
58151 
58121 
58125 
58157 
58183 
58214 
58220 
58198 
58161 
58150 
58209 
58232 
58213 
58184 
58233 
58280 
58245 
58254 
58272 
58318 
58353 
58362 
58339 
58368 
58390 
58354 
58328 
58380 
58393 
58382 
58401 
58407 
58375 
58332 
58293 
58271 
58233 
58213 
58178 
58119 
58076 
58020 
57986 
57933 
57892 
57855 
57743 
57644 
57538 
57475 
57376 
57309 
57235 
57177 
57068 
56947 
56867 
56793 
56758 
56696 
56599 
56471 
56392 
56354 
56358 
56342 
56279 
56231 
56143 
56116 
56168 
56220 
56225 
56189 
56176 
56190 
56199 
56145 
56128 
56153 
56174 
56207 
56214 
56216 
56196 
56227 
56296 
56389 
56429 
56482 
56567 
56605 
56647 
56696 
56703 
56752 
56793 
56822 
56877 
56918 
56915 
56945 
56987 
57017 
57041 
57098 
57184 
57242 
57259 
57336 
57395 
57430 
57406 
57397 
57421 
57458 
57470 
57438 
57399 
57392 
57423 
57452 
57443 
57410 
57413 
57441 
57464 
57490 
57499 
57511 
57525 
57560 
57608 
57621 
57575 
57553 
57569 
57589 
57619 
57606 
57584 
57587 
57599 
57614 
57604 
57613 
57635 
57627 
57629 
57701 
57775 
57855 
57872 
57861 
57885 
57864 
57849 
57873 
57884 
57938 
57968 
57951 
57947 
57972 
57988 
58009 
58053 
58083 
58059 
58061 
58088 
58105 
58119 
58144 
58206 
58224 
58195 
58215 
58261 
58235 
58255 
58276 
58290 
58277 
58302 
58286 
58241 
58266 
58295 
58274 
58258 
58275 
58271 
58364 
58435 
58389 
58376 
58393 
58400 
58418 
58421 
58445 
58434 
58424 
58453 
58541 
58599 
58614 
58613 
58594 
58592 
58617 
58624 
58644 
58644 
58638 
58682 
58750 
58770 
58704 
58707 
58786 
58815 
58823 
58810 
58828 
58850 
58851 
58840 
58800 
58835 
58854 
58838 
58862 
58860 
58812 
58799 
58836 
58854 
58901 
58944 
58950 
58924 
58851 
58755 
58689 
58681 
58675 
58659 
58707 
58705 
58619 
58556 
58555 
58553 
58545 
58494 
58427 
58422 
58414 
58354 
58325 
58280 
58232 
58156 
58070 
58013 
57971 
57916 
57835 
57735 
57663 
57640 
57575 
57454 
57292 
57122 
57052 
56950 
56823 
56741 
56664 
56620 
56594 
56558 
56573 
56563 
56513 
56455 
56420 
56426 
56392 
56369 
56335 
56325 
56293 
56295 
56310 
56329 
56285 
56243 
56266 
56287 
56300 
56307 
56358 
56365 
56319 
56278 
56297 
56357 
56449 
56491 
56512 
56556 
56568 
56525 
56511 
56527 
56600 
56632 
56619 
56642 
56710 
56714 
56708 
56674 
56696 
56789 
56826 
56821 
56846 
56872 
56891 
56926 
56989 
56991 
56993 
57006 
57031 
57068 
57080 
57091 
57107 
57145 
57126 
57113 
57224 
57271 
57240 
57220 
57219 
57328 
57314 
57313 
57343 
57351 
57382 
57403 
57439 
57504 
57545 
57587 
57593 
57595 
57621 
57630 
57668 
57728 
57733 
57758 
57810 
57800 
57781 
57781 
57781 
57835 
57936 
57967 
57975 
57998 
57998 
57997 
58011 
57999 
58046 
58075 
58052 
58032 
58046 
58058 
58064 
58109 
58128 
58174 
58193 
58202 
58239 
58264 
58217 
58161 
58161 
58215 
58257 
58280 
58290 
58237 
58202 
58195 
58197 
58209 
58215 
58189 
58179 
58159 
58129 
58161 
58210 
58204 
58234 
58255 
58238 
58222 
58196 
58173 
58169 
58244 
58334 
58393 
58403 
58407 
58404 
58437 
58462 
58456 
58450 
58491 
58480 
58471 
58459 
58443 
58442 
58449 
58532 
58541 
58544 
58562 
58566 
58554 
58521 
58515 
58512 
58526 
58533 
58527 
58533 
58493 
58513 
58504 
58515 
58497 
58490 
58472 
58484 
58509 
58508 
58506 
58534 
58576 
58566 
58529 
58501 
58500 
58476 
58502 
58537 
58571 
58577 
58565 
58490 
58408 
58403 
58396 
58393 
58393 
58389 
58373 
58352 
58322 
58297 
58247 
58166 
58123 
58087 
58044 
58052 
58024 
57933 
57845 
57877 
57879 
57849 
57778 
57677 
57655 
57653 
57663 
57685 
57638 
57598 
57592 
57607 
57603 
57534 
57477 
57448 
57408 
57398 
57408 
57401 
57364 
57323 
57304 
57304 
57287 
57252 
57203 
57213 
57207 
57145 
57080 
57030 
56967 
56934 
56915 
56910 
56916 
56878 
56836 
56878 
56830 
56819 
56899 
56931 
56936 
56916 
56844 
56829 
56795 
56771 
56790 
56818 
56814 
56794 
56774 
56741 
56715 
56720 
56717 
56780 
56786 
56774 
56748 
56813 
56878 
56899 
56908 
56962 
57048 
57046 
57075 
57103 
57152 
57194 
57231 
57264 
57296 
57267 
57295 
57304 
57342 
57406 
57460 
57499 
57556 
57554 
57571 
57642 
57720 
57736 
57749 
57820 
57917 
57916 
57885 
57922 
57908 
57940 
57932 
57908 
57976 
58032 
58049 
58067 
58047 
58082 
58087 
58099 
58078 
58084 
58152 
58204 
58174 
58156 
58180 
58181 
58199 
58245 
58236 
58216 
58165 
58161 
58151 
58163 
58205 
58242 
58253 
58268 
58285 
58277 
58267 
58275 
58254 
58220 
58197 
58171 
58147 
58112 
58145 
58173 
58165 
58206 
58272 
58274 
58308 
58357 
58371 
58373 
58377 
58366 
58344 
58306 
58317 
58297 
58320 
58373 
58341 
58348 
58376 
58398 
58424 
58445 
58437 
58436 
58458 
58452 
58472 
58487 
58500 
58522 
58499 
58455 
58441 
58453 
58497 
58489 
58459 
58485 
58500 
58517 
58467 
58432 
58452 
58436 
58381 
58396 
58438 
58496 
58442 
58368 
58353 
58331 
58338 
58338 
58293 
58240 
58269 
58322 
58423 
58410 
58374 
58389 
58365 
58331 
58327 
58322 
58302 
58286 
58288 
58278 
58300 
58317 
58343 
58353 
58299 
58263 
58292 
58343 
58371 
58322 
58306 
58373 
58372 
58377 
58374 
58397 
58431 
58513 
58554 
58576 
58544 
58517 
58545 
58532 
58554 
58580 
58600 
58560 
58571 
58654 
58733 
58754 
58751 
58763 
58777 
58744 
58726 
58729 
58721 
58742 
58760 
58803 
58781 
58744 
58707 
58664 
58652 
58662 
58629 
58637 
58621 
58596 
58597 
58602 
58591 
58551 
58547 
58568 
58597 
58612 
58584 
58604 
58623 
58605 
58607 
58571 
58502 
58432 
58410 
58394 
58423 
58552 
58593 
58610 
58568 
58573 
58554 
58487 
58477 
58555 
58603 
58602 
58560 
58549 
58557 
58584 
58650 
58680 
58669 
58682 
58672 
58691 
58698 
58643 
58612 
58629 
58640 
58594 
58581 
58594 
58626 
58659 
58651 
58653 
58680 
58674 
58619 
58614 
58600 
58567 
58541 
58598 
58619 
58626 
58609 
58551 
58539 
58576 
58563 
58543 
58558 
58537 
58521 
58496 
58478 
58463 
58458 
58463 
58394 
58364 
58313 
58304 
58362 
58454 
58446 
58422 
58400 
58340 
58282 
58272 
58251 
58264 
58263 
58225 
58188 
58172 
58166 
58161 
58152 
58167 
58179 
58139 
58125 
58075 
58065 
58097 
58046 
58026 
58033 
58075 
58086 
58019 
58014 
58045 
58038 
58006 
57977 
57982 
58001 
57948 
57924 
57933 
57924 
57948 
57902 
57848 
57822 
57779 
57788 
57788 
57835 
57841 
57795 
57737 
57743 
57756 
57769 
57787 
57790 
57797 
57770 
57777 
57774 
57717 
57652 
57637 
57631 
57648 
57609 
57566 
57588 
57615 
57595 
57596 
57615 
57616 
57595 
57580 
57581 
57637 
57642 
57614 
57647 
57688 
57698 
57620 
57563 
57580 
57601 
57616 
57676 
57676 
57678 
57695 
57657 
57643 
57672 
57668 
57675 
57656 
57623 
57659 
57667 
57671 
57642 
57645 
57645 
57668 
57712 
57747 
57730 
57702 
57692 
57669 
57621 
57646 
57578 
57528 
57497 
57490 
57552 
57543 
57541 
57551 
57571 
57583 
57617 
57657 
57661 
57650 
57576 
57558 
57582 
57560 
57536 
57520 
57541 
57550 
57555 
57583 
57610 
57601 
57551 
57534 
57608 
57654 
57644 
57643 
57661 
57676 
57663 
57698 
57724 
57768 
57811 
57840 
57835 
57820 
57801 
57824 
57823 
57842 
57807 
57748 
57758 
57767 
57743 
57711 
57729 
57763 
57760 
57738 
57739 
57772 
57760 
57766 
57794 
57852 
57923 
57941 
57897 
57915 
57924 
57898 
57812 
57814 
57812 
57827 
57883 
57871 
57841 
57819 
57790 
57798 
57783 
57803 
57839 
57875 
57877 
57857 
57901 
57916 
57914 
57907 
57905 
57895 
57878 
57812 
57799 
57774 
57751 
57754 
57724 
57762 
57760 
57744 
57704 
57702 
57721 
57723 
57750 
57700 
57645 
57678 
57715 
57715 
57694 
57700 
57670 
57620 
57633 
57678 
57676 
57668 
57633 
57666 
57678 
57636 
57605 
57626 
57628 
57678 
57706 
57655 
57597 
57583 
57590 
57629 
57636 
57635 
57620 
57586 
57606 
57659 
57655 
57632 
57610 
57587 
57578 
57552 
57543 
57536 
57595 
57616 
57632 
57654 
57625 
57615 
57610 
57578 
57583 
57564 
57574 
57589 
57584 
57555 
57525 
57556 
57549 
57525 
57572 
57629 
57606 
57586 
57587 
57522 
57452 
57475 
57521 
57533 
57516 
57501 
57516 
57478 
57494 
57529 
57515 
57494 
57457 
57413 
57438 
57467 
57423 
57388 
57394 
57401 
57394 
57397 
57405 
57375 
57362 
57365 
57372 
57395 
57387 
57408 
57457 
57473 
57463 
57490 
57523 
57484 
57471 
57524 
57608 
57578 
57504 
57442 
57410 
57408 
57389 
57362 
57369 
57398 
57394 
57384 
57422 
57422 
57447 
57462 
57458 
57408 
57387 
57404 
57434 
57429 
57369 
57383 
57426 
57460 
57466 
57472 
57491 
57479 
57466 
57474 
57492 
57534 
57545 
57499 
57504 
57529 
57477 
57424 
57400 
57397 
57437 
57498 
57516 
57513 
57484 
57450 
57438 
57493 
57511 
57506 
57551 
57574 
57530 
57533 
57565 
57579 
57559 
57583 
57634 
57562 
57442 
57445 
57454 
57475 
57522 
57526 
57519 
57542 
57555 
57525 
57525 
57528 
57533 
57591 
57651 
57645 
57647 
57652 
57645 
57648 
57603 
57569 
57564 
57538 
57527 
57534 
57511 
57499 
57460 
57473 
57489 
57447 
57425 
57414 
57427 
57405 
57367 
57353 
57349 
57305 
57287 
57271 
57211 
57189 
57200 
57187 
57234 
57255 
57295 
57304 
57300 
57290 
57251 
57207 
57240 
57267 
57280 
57262 
57213 
57223 
57280 
57329 
57291 
57220 
57218 
57225 
57179 
57116 
57124 
57171 
57197 
57191 
57210 
57219 
57211 
57230 
57218 
57165 
57168 
57175 
57179 
57147 
57113 
57099 
57063 
57000 
57004 
57010 
57007 
56992 
57028 
57050 
57063 
57079 
57070 
57060 
57066 
57092 
57048 
57029 
57039 
57016 
57024 
57020 
57021 
57029 
57025 
57071 
57116 
57090 
56989 
56943 
56937 
56930 
56941 
56936 
56946 
56914 
56949 
56977 
56980 
56947 
56928 
56928 
56924 
56928 
56932 
56917 
56923 
56955 
56965 
56962 
56994 
56979 
56989 
57010 
56974 
56966 
57007 
57020 
57017 
57026 
57049 
57072 
57027 
56988 
57012 
57020 
57025 
57065 
57049 
57062 
57100 
57153 
57166 
57180 
57210 
57285 
57316 
57262 
57250 
57247 
57292 
57275 
57224 
57218 
57246 
57307 
57325 
57336 
57341 
57292 
57279 
57248 
57229 
57248 
57285 
57272 
57222 
57230 
57296 
57287 
57263 
57317 
57373 
57366 
57320 
57312 
57339 
57322 
57305 
57300 
57283 
57282 
57293 
57318 
57333 
57369 
57398 
57432 
57431 
57435 
57427 
57432 
57464 
57463 
57469 
57510 
57473 
57400 
57362 
57341 
57345 
57358 
57350 
57304 
57267 
57258 
57278 
57300 
57281 
57256 
57236 
57239 
57229 
57200 
57185 
57172 
57188 
57167 
57085 
57061 
57089 
57117 
57141 
57181 
57175 
57137 
57126 
57150 
57175 
57175 
57171 
57151 
57120 
57075 
57082 
57130 
57122 
57146 
57134 
57097 
57127 
57105 
57085 
57074 
57046 
57049 
57021 
56966 
56862 
56865 
56936 
56938 
56939 
56947 
56949 
56948 
56891 
56869 
56896 
56929 
56944 
56895 
56888 
56897 
56890 
56869 
56891 
56931 
56934 
56983 
56992 
56974 
56996 
56994 
56963 
56937 
56922 
56907 
56873 
56852 
56931 
57009 
57042 
57021 
56963 
56934 
56937 
56940 
56943 
56990 
57010 
56982 
56955 
56925 
56901 
56865 
56916 
56948 
56949 
56924 
56941 
56934 
56865 
56860 
56867 
56891 
56892 
56856 
56887 
56887 
56857 
56891 
56899 
56861 
56852 
56844 
56817 
56858 
56879 
56812 
56782 
56778 
56747 
56713 
56710 
56715 
56687 
56652 
56686 
56742 
56819 
56852 
56798 
56753 
56741 
56727 
56703 
56708 
56751 
56790 
56792 
56774 
56802 
56827 
56823 
56761 
56750 
56808 
56854 
56865 
56863 
56906 
56918 
56912 
56858 
56821 
56830 
56914 
56974 
57004 
57025 
56985 
56929 
56888 
56892 
56906 
56957 
57031 
57032 
57024 
57080 
57085 
57039 
57048 
57043 
57062 
57106 
57078 
57047 
57062 
57077 
57085 
57134 
57162 
57170 
57185 
57197 
57232 
57280 
57256 
57250 
57238 
57230 
57238 
57197 
57209 
57237 
57240 
57207 
57197 
57233 
57249 
57290 
57292 
57256 
57241 
57258 
57301 
57315 
57273 
57265 
57270 
57269 
57280 
57278 
57292 
57298 
57271 
57249 
57272 
57341 
57373 
57363 
57317 
57247 
57228 
57259 
57249 
57222 
57201 
57223 
57202 
57198 
57190 
57098 
57036 
57041 
57038 
57040 
57029 
57052 
57066 
57059 
56988 
56913 
56915 
56848 
56810 
56821 
56800 
56739 
56734 
56739 
56744 
56710 
56662 
56663 
56697 
56672 
56649 
56638 
56657 
56657 
56659 
56671 
56684 
56676 
56647 
56626 
56607 
56562 
56560 
56597 
56681 
56713 
56656 
56636 
56595 
56601 
56634 
56639 
56583 
56563 
56562 
56562 
56559 
56585 
56562 
56527 
56535 
56600 
56615 
56610 
56646 
56687 
56689 
56734 
56768 
56810 
56836 
56829 
56756 
56719 
56769 
56833 
56850 
56837 
56800 
56736 
56709 
56708 
56771 
56827 
56877 
56864 
56811 
56792 
56798 
56843 
56884 
56958 
56991 
56994 
57010 
57004 
56976 
56988 
57072 
57143 
57202 
57231 
57261 
57202 
57150 
57149 
57160 
57164 
57159 
57173 
57181 
57143 
57182 
57241 
57282 
57305 
57313 
57329 
57355 
57315 
57339 
57302 
57238 
57253 
57320 
57359 
57385 
57451 
57454 
57410 
57385 
57392 
57419 
57406 
57413 
57477 
57463 
57419 
57411 
57423 
57425 
57482 
57486 
57488 
57499 
57432 
57395 
57359 
57309 
57344 
57416 
57458 
57502 
57518 
57520 
57510 
57553 
57534 
57525 
57561 
57546 
57496 
57436 
57371 
57294 
57267 
57246 
57218 
57206 
57245 
57260 
57179 
57126 
57101 
57017 
56979 
56957 
56949 
56902 
56912 
56948 
56897 
56850 
56782 
56749 
56742 
56707 
56645 
56642 
56639 
56558 
56506 
56491 
56520 
56556 
56547 
56521 
56502 
56479 
56468 
56486 
56507 
56524 
56404 
56294 
56258 
56235 
56273 
56295 
56285 
56282 
56255 
56191 
56178 
56204 
56208 
56235 
56276 
56291 
56236 
56210 
56175 
56187 
56200 
56229 
56250 
56315 
56344 
56350 
56334 
56342 
56366 
56367 
56370 
56357 
56399 
56460 
56463 
56467 
56451 
56408 
56419 
56462 
56471 
56507 
56591 
56597 
56570 
56594 
56639 
56608 
56602 
56616 
56671 
56775 
56785 
56759 
56765 
56797 
56846 
56872 
56853 
56892 
56944 
56930 
56944 
56971 
56986 
57032 
57067 
57094 
57125 
57150 
57186 
57210 
57236 
57252 
57293 
57399 
57454 
57430 
57437 
57453 
57494 
57492 
57487 
57493 
57512 
57549 
57611 
57658 
57688 
57665 
57651 
57675 
57672 
57729 
57683 
57628 
57625 
57654 
57714 
57744 
57723 
57771 
57830 
57834 
57838 
57837 
57841 
57856 
57893 
57904 
57937 
57983 
58001 
58011 
58016 
58026 
58012 
58039 
58043 
58108 
58163 
58184 
58193 
58146 
58110 
58084 
58037 
58002 
57960 
57935 
57917 
57881 
57832 
57810 
57809 
57800 
57802 
57745 
57718 
57699 
57733 
57739 
57706 
57629 
57549 
57508 
57467 
57430 
57388 
57374 
57347 
57326 
57325 
57317 
57274 
57218 
57176 
57192 
57180 
57194 
57185 
57178 
57190 
57180 
57125 
57091 
57113 
57146 
57119 
57085 
57108 
57166 
57193 
57219 
57205 
57149 
57145 
57177 
57226 
57283 
57255 
57180 
57221 
57313 
57370 
57410 
57452 
57403 
57343 
57353 
57362 
57327 
57325 
57330 
57342 
57391 
57461 
57514 
57481 
57445 
57440 
57434 
57439 
57455 
57437 
57415 
57476 
57512 
57526 
57579 
57586 
57601 
57639 
57647 
57693 
57747 
57757 
57779 
57772 
57788 
57835 
57844 
57848 
57839 
57863 
57915 
57919 
57873 
57828 
57836 
57838 
57866 
57903 
57970 
58081 
58137 
58105 
58069 
58067 
58100 
58119 
58144 
58149 
58149 
58214 
58256 
58255 
58222 
58240 
58273 
58247 
58246 
58281 
58319 
58322 
58310 
58320 
58324 
58335 
58340 
58315 
58280 
58280 
58249 
58184 
58178 
58167 
58162 
58200 
58211 
58157 
58170 
58205 
58205 
58149 
58160 
58183 
58172 
58139 
58115 
58153 
58180 
58151 
58159 
58203 
58255 
58288 
58278 
58260 
58270 
58291 
58247 
58220 
58266 
58284 
58224 
58219 
58174 
58133 
58104 
58079 
58060 
57981 
57939 
58018 
58015 
57936 
57858 
57774 
57696 
57660 
57620 
57599 
57601 
57616 
57595 
57535 
57567 
57563 
57569 
57551 
57505 
57501 
57494 
57437 
57416 
57404 
57365 
57347 
57404 
57432 
57412 
57384 
57384 
57372 
57373 
57366 
57427 
57413 
57365 
57340 
57311 
57342 
57362 
57384 
57400 
57447 
57425 
57394 
57374 
57382 
57414 
57421 
57423 
57481 
57532 
57513 
57493 
57476 
57461 
57497 
57532 
57499 
57432 
57452 
57507 
57540 
57521 
57533 
57522 
57531 
57522 
57555 
57607 
57635 
57646 
57644 
57663 
57674 
57661 
57668 
57685 
57720 
57764 
57813 
57834 
57817 
57830 
57843 
57842 
57848 
57872 
57894 
57929 
57948 
57961 
57976 
57968 
58010 
58070 
58017 
57989 
58000 
58023 
58048 
58103 
58166 
58194 
58281 
58267 
58230 
58269 
58315 
58331 
58349 
58437 
58509 
58505 
58572 
58636 
58614 
58597 
58644 
58644 
58663 
58627 
58597 
58661 
58704 
58680 
58665 
58665 
58689 
58684 
58638 
58595 
58610 
58668 
58726 
58739 
58732 
58741 
58793 
58839 
58781 
58743 
58752 
58756 
58714 
58682 
58658 
58665 
58723 
58815 
58780 
58739 
58738 
58718 
58726 
58684 
58637 
58601 
58556 
58505 
58493 
58482 
58462 
58444 
58417 
58361 
58294 
58282 
58234 
58156 
58096 
58070 
58012 
57924 
57906 
57916 
57886 
57815 
57823 
57832 
57774 
57670 
57644 
57661 
57633 
57609 
57612 
57598 
57559 
57484 
57440 
57413 
57383 
57356 
57400 
57422 
57424 
57427 
57422 
57391 
57403 
57406 
57383 
57347 
57338 
57341 
57335 
57345 
57347 
57322 
57282 
57300 
57308 
57344 
57332 
57364 
57387 
57389 
57393 
57429 
57416 
57409 
57415 
57392 
57396 
57413 
57374 
57346 
57358 
57382 
57414 
57418 
57403 
57391 
57418 
57499 
57552 
57588 
57574 
57585 
57597 
57566 
57524 
57498 
57467 
57504 
57527 
57530 
57561 
57628 
57656 
57679 
57706 
57750 
57787 
57829 
57872 
57924 
57956 
57956 
57905 
57864 
57866 
57876 
57874 
57867 
57875 
57863 
57889 
57920 
57901 
57910 
57933 
57960 
57997 
58024 
58035 
58043 
58083 
58100 
58077 
58101 
58076 
58083 
58146 
58169 
58144 
58155 
58207 
58254 
58287 
58302 
58281 
58301 
58351 
58395 
58422 
58489 
58506 
58465 
58483 
58498 
58509 
58548 
58605 
58648 
58667 
58664 
58689 
58750 
58788 
58793 
58775 
58806 
58797 
58818 
58815 
58819 
58850 
58883 
58917 
58935 
58970 
58972 
58943 
58947 
58926 
58883 
58869 
58859 
58834 
58811 
58794 
58784 
58748 
58731 
58756 
58714 
58627 
58568 
58518 
58467 
58400 
58325 
58281 
58213 
58218 
58226 
58205 
58162 
58131 
58104 
58087 
58060 
57991 
57922 
57972 
57980 
58001 
58070 
58076 
58036 
57957 
57875 
57853 
57868 
57917 
57984 
58046 
58055 
58071 
58078 
58064 
58040 
58024 
58013 
58026 
58107 
58182 
58205 
58192 
58185 
58162 
58198 
58252 
58264 
58291 
58362 
58401 
58446 
58501 
58529 
58531 
58530 
58564 
58607 
58615 
58619 
58642 
58697 
58756 
58774 
58790 
58831 
58871 
58856 
58839 
58855 
58875 
58882 
58846 
58875 
58867 
58888 
58890 
58905 
58864 
58847 
58853 
58861 
58840 
58905 
58957 
58905 
58894 
58902 
58917 
58894 
58921 
58949 
58977 
59030 
59051 
59036 
58986 
58958 
58970 
58999 
59002 
58995 
59058 
59082 
59121 
59146 
59167 
59265 
59296 
59285 
59353 
59375 
59398 
59437 
59448 
59443 
59435 
59433 
59443 
59486 
59471 
59488 
59501 
59562 
59571 
59507 
59490 
59543 
59607 
59673 
59673 
59651 
59629 
59604 
59616 
59602 
59569 
59589 
59658 
59741 
59771 
59710 
59666 
59657 
59697 
59686 
59672 
59728 
59796 
59823 
59799 
59776 
59765 
59787 
59824 
59822 
59808 
59820 
59807 
59808 
59793 
59757 
59736 
59766 
59799 
59814 
59831 
59854 
59860 
59825 
59780 
59741 
59729 
59725 
59704 
59661 
59564 
59485 
59449 
59403 
59340 
59330 
59302 
59205 
59174 
59159 
59128 
59119 
59099 
59050 
59032 
58987 
58890 
58813 
58753 
58709 
58668 
58657 
58620 
58548 
58537 
58566 
58552 
58581 
58568 
58539 
58499 
58488 
58484 
58459 
58461 
58495 
58553 
58507 
58481 
58465 
58499 
58503 
58480 
58457 
58463 
58483 
58512 
58557 
58515 
58487 
58518 
58541 
58565 
58556 
58552 
58642 
58704 
58683 
58727 
58736 
58767 
58798 
58827 
58905 
58956 
58956 
58948 
58987 
59000 
59001 
59012 
59020 
59069 
59091 
59082 
59108 
59149 
59185 
59162 
59144 
59128 
59173 
59226 
59234 
59268 
59289 
59327 
59332 
59322 
59339 
59393 
59486 
59506 
59486 
59473 
59496 
59543 
59589 
59602 
59585 
59609 
59622 
59620 
59616 
59654 
59676 
59693 
59725 
59771 
59782 
59783 
59833 
59852 
59891 
59907 
59866 
59835 
59865 
59920 
59879 
59870 
59880 
59921 
59921 
59915 
59958 
60013 
59987 
59960 
59987 
60008 
60006 
60014 
59992 
60006 
60077 
60172 
60207 
60233 
60230 
60234 
60286 
60305 
60278 
60285 
60315 
60331 
60340 
60342 
60342 
60309 
60283 
60323 
60340 
60347 
60334 
60358 
60378 
60375 
60404 
60400 
60378 
60384 
60414 
60423 
60394 
60379 
60359 
60402 
60445 
60401 
60353 
60326 
60332 
60361 
60325 
60307 
60290 
60324 
60364 
60373 
60335 
60305 
60334 
60313 
60284 
60240 
60218 
60183 
60139 
60100 
60051 
59982 
59972 
59979 
59948 
59893 
59827 
59769 
59730 
59710 
59643 
59526 
59450 
59433 
59370 
59338 
59291 
59275 
59252 
59208 
59156 
59102 
59071 
59059 
59064 
59046 
59008 
59018 
58986 
58965 
59016 
59062 
58997 
58900 
58858 
58883 
58915 
58910 
58944 
58972 
58987 
58980 
59002 
59009 
58982 
59011 
59034 
59075 
59098 
59086 
59100 
59084 
59072 
59082 
59096 
59075 
59110 
59167 
59210 
59202 
59199 
59217 
59252 
59225 
59198 
59199 
59183 
59196 
59174 
59221 
59252 
59264 
59262 
59202 
59185 
59219 
59299 
59340 
59368 
59379 
59366 
59374 
59382 
59415 
59449 
59464 
59481 
59508 
59508 
59508 
59539 
59595 
59609 
59614 
59587 
59589 
59602 
59630 
59653 
59679 
59707 
59753 
59827 
59798 
59772 
59806 
59873 
59923 
59910 
59900 
59895 
59897 
59902 
59933 
59929 
59970 
59981 
59940 
59893 
59908 
59940 
59984 
60019 
60063 
60087 
60087 
60108 
60116 
60115 
60077 
60056 
60008 
59965 
59929 
59908 
59960 
59984 
59962 
60023 
60072 
60069 
60094 
60075 
60018 
59961 
59903 
59868 
59888 
59854 
59794 
59830 
59818 
59798 
59818 
59855 
59846 
59848 
59848 
59855 
59830 
59820 
59815 
59762 
59660 
59574 
59527 
59425 
59382 
59395 
59363 
59308 
59237 
59200 
59181 
59099 
59045 
59029 
58976 
58939 
58882 
58830 
58805 
58766 
58704 
58658 
58612 
58614 
58618 
58608 
58655 
58699 
58703 
58733 
58689 
58653 
58663 
58656 
58662 
58647 
58602 
58614 
58639 
58665 
58691 
58699 
58735 
58742 
58751 
58791 
58839 
58835 
58836 
58890 
58901 
58895 
58905 
58965 
58998 
58993 
59004 
59074 
59142 
59078 
59054 
59103 
59103 
59142 
59193 
59192 
59222 
59217 
59212 
59196 
59221 
59299 
59324 
59305 
59300 
59331 
59354 
59348 
59325 
59300 
59303 
59347 
59366 
59353 
59342 
59387 
59428 
59426 
59458 
59447 
59415 
59439 
59443 
59462 
59518 
59558 
59585 
59609 
59590 
59629 
59653 
59661 
59722 
59753 
59756 
59767 
59791 
59809 
59829 
59846 
59871 
59907 
59996 
60091 
60145 
60183 
60219 
60233 
60238 
60308 
60351 
60389 
60445 
60478 
60510 
60550 
60534 
60498 
60540 
60599 
60650 
60682 
60715 
60774 
60844 
60914 
60909 
60916 
60973 
60999 
60948 
60959 
61016 
61057 
61086 
61159 
61219 
61219 
61220 
61253 
61319 
61350 
61349 
61314 
61314 
61333 
61379 
61384 
61431 
61476 
61422 
61355 
61354 
61397 
61444 
61467 
61430 
61382 
61357 
61378 
61355 
61369 
61416 
61411 
61396 
61358 
61327 
61326 
61375 
61382 
61350 
61307 
61256 
61194 
61162 
61131 
61055 
60971 
60873 
60818 
60773 
60713 
60656 
60609 
60571 
60482 
60337 
60226 
60183 
60144 
60050 
59994 
59945 
59884 
59784 
59718 
59692 
59714 
59728 
59683 
59662 
59621 
59555 
59494 
59442 
59420 
59437 
59431 
59403 
59375 
59312 
59308 
59276 
59283 
59317 
59381 
59380 
59362 
59363 
59416 
59436 
59421 
59456 
59472 
59483 
59532 
59550 
59585 
59593 
59623 
59627 
59601 
59618 
59612 
59645 
59687 
59717 
59761 
59821 
59853 
59888 
59872 
59860 
59902 
59943 
59923 
59961 
60034 
60116 
60148 
60174 
60205 
60233 
60231 
60286 
60319 
60334 
60312 
60292 
60291 
60305 
60336 
60352 
60356 
60341 
60348 
60344 
60333 
60331 
60293 
60269 
60308 
60367 
60402 
60432 
60466 
60468 
60482 
60479 
60474 
60459 
60468 
60467 
60463 
60520 
60537 
60559 
60537 
60535 
60492 
60465 
60492 
60538 
60565 
60550 
60560 
60553 
59204 
59188 
59224 
59263 
59307 
59312 
59302 
59281 
59305 
59343 
59373 
59427 
59488 
59513 
59520 
59514 
59488 
59496 
59551 
59602 
59664 
59730 
59771 
59782 
59765 
59839 
59876 
59919 
59889 
59864 
59872 
59901 
59937 
59938 
59983 
60058 
60093 
60101 
60100 
60137 
60172 
60207 
60244 
60220 
60203 
60212 
60218 
60198 
60135 
60108 
60106 
60133 
60164 
60171 
60148 
60141 
60148 
60135 
60104 
60063 
60076 
60073 
60055 
60043 
60065 
60038 
59990 
59935 
59893 
59833 
59810 
59846 
59841 
59826 
59832 
59831 
59866 
59852 
59829 
59825 
59842 
59894 
59936 
59925 
59959 
60002 
60012 
60021 
60007 
60022 
60007 
59951 
59924 
59960 
59985 
60033 
60093 
60095 
60092 
60115 
60094 
60126 
60157 
60170 
60173 
60208 
60237 
60269 
60336 
60332 
60310 
60317 
60312 
60314 
60347 
60335 
60296 
60372 
60469 
60527 
59957 
59932 
59948 
59973 
59933 
59928 
59951 
59926 
59932 
59976 
60009 
60005 
60000 
59997 
59996 
59991 
60018 
60051 
60075 
60072 
60105 
60137 
60136 
60156 
60153 
60139 
60112 
60139 
60143 
60130 
60167 
60187 
60148 
60084 
60083 
60074 
60048 
60035 
60023 
60014 
60022 
60029 
60032 
60043 
60045 
60025 
60031 
60081 
60136 
60140 
60129 
60056 
59999 
59961 
59989 
60005 
60049 
60090 
60108 
60059 
60017 
60100 
60139 
60119 
60143 
60189 
60232 
60234 
60197 
60256 
60309 
60287 
60250 
60248 
60228 
60247 
60279 
60335 
60374 
60358 
60299 
60263 
60284 
60319 
60357 
60416 
60437 
60399 
60381 
60384 
60374 
60370 
60386 
60395 
60491 
60560 
60617 
60638 
60604 
60593 
60647 
60613 
60598 
60673 
60763 
60794 
60786 
60783 
60792 
60787 
60816 
60814 
60876 
60955 
61000 
61017 
60983 
60990 
60998 
61112 
61099 
61111 
61139 
61150 
61188 
61232 
61269 
61328 
61292 
61295 
61277 
61279 
61309 
61312 
61356 
61385 
61391 
61400 
61381 
61376 
61382 
61401 
61381 
61338 
61295 
61259 
61206 
61144 
61105 
61079 
61065 
61005 
60874 
60780 
60757 
60736 
60703 
60607 
60538 
60501 
60446 
60408 
60354 
60303 
60296 
60233 
60141 
60071 
59999 
59951 
59890 
59835 
59779 
59762 
59746 
59705 
59647 
59584 
59567 
59531 
59458 
59376 
59345 
59352 
59340 
59353 
59412 
59433 
59371 
59307 
59248 
59246 
59256 
59245 
59256 
59234 
59189 
59162 
59197 
59228 
59266 
59233 
59211 
59209 
59200 
59192 
59223 
59204 
59197 
59208 
59257 
59297 
59289 
59298 
59318 
59313 
59358 
59409 
59410 
59430 
59486 
59507 
59517 
59577 
59643 
59699 
59720 
59730 
59724 
59708 
59738 
59755 
59771 
59780 
59845 
59883 
59942 
59975 
59994 
60004 
60063 
60135 
60221 
60266 
60307 
60347 
60407 
60439 
60504 
60563 
60586 
60658 
60747 
60880 
60991 
61063 
61079 
61100 
61200 
61334 
61415 
61455 
61519 
61589 
61713 
61792 
61817 
61846 
61998 
62094 
62127 
62178 
62206 
62264 
62334 
62440 
62569 
62619 
62644 
62715 
62743 
62764 
62808 
62830 
62883 
62925 
62971 
63034 
63117 
63149 
63139 
63152 
63079 
63038 
63097 
63093 
63050 
62983 
62964 
63002 
63049 
63058 
63017 
63006 
62960 
62916 
62885 
62839 
62814 
62834 
62853 
62864 
62840 
62809 
62775 
62746 
62683 
62634 
62634 
62641 
62554 
62486 
62456 
62426 
62393 
62344 
62312 
62276 
62222 
62156 
62089 
62049 
61969 
61892 
61785 
61655 
61605 
61576 
61563 
61516 
61452 
61375 
61280 
61211 
61147 
61069 
60986 
60878 
60815 
60757 
60694 
60583 
60446 
60382 
60276 
60149 
60075 
59996 
59859 
59812 
59799 
59791 
59740 
59666 
59632 
59601 
59534 
59494 
59436 
59363 
59295 
59277 
59235 
59162 
59107 
59101 
59099 
59110 
59137 
59210 
59227 
59273 
59308 
59303 
59312 
59339 
59373 
59439 
59515 
59572 
59685 
59761 
59834 
59899 
59942 
60012 
60137 
60230 
60304 
60399 
60513 
60638 
60769 
60825 
60883 
60939 
60978 
61059 
61150 
61211 
61254 
61240 
61282 
61370 
61447 
61501 
61514 
61534 
61585 
61634 
61646 
61677 
61737 
61793 
61794 
61762 
61741 
61740 
61704 
61707 
61749 
61806 
61808 
61786 
61728 
61731 
61741 
61685 
61638 
61606 
61578 
61564 
61541 
61499 
61440 
61390 
61353 
61331 
61311 
61288 
61214 
61156 
61092 
61057 
61014 
60892 
60787 
60707 
60659 
60650 
60600 
60530 
60528 
60529 
60482 
60452 
60413 
60374 
60324 
60246 
60182 
60103 
59986 
59926 
59893 
59865 
59795 
59737 
59672 
59560 
59505 
59473 
59422 
59382 
59317 
59285 
59293 
59279 
59199 
59110 
59065 
59034 
59041 
59028 
58974 
58954 
59004 
59001 
58975 
58969 
58939 
58935 
58962 
58910 
58848 
58857 
58880 
58856 
58808 
58806 
58824 
58812 
58787 
58766 
58760 
58777 
58788 
58737 
58695 
58704 
58644 
58650 
58689 
58723 
58770 
58761 
58729 
58734 
58736 
58741 
58762 
58703 
58581 
58562 
58568 
58513 
58429 
58299 
58193 
58133 
58044 
57941 
57851 
57716 
57567 
57400 
57234 
57068 
56946 
56822 
56724 
56649 
56590 
56523 
56423 
56306 
56229 
56167 
56096 
55983 
55899 
55852 
55819 
55780 
55747 
55777 
55798 
55754 
55694 
55705 
55720 
55746 
55804 
55852 
55893 
55968 
56005 
56065 
56146 
56182 
56179 
56217 
56308 
56424 
56590 
56718 
56813 
56971 
57165 
57262 
57324 
57347 
57411 
57545 
57664 
57709 
57787 
57899 
57959 
58014 
58093 
58227 
58338 
58397 
58432 
58442 
58489 
58521 
58574 
58643 
58714 
58779 
58814 
58825 
58861 
58868 
58896 
58896 
58854 
58798 
58773 
58744 
58703 
58639 
58560 
58522 
58505 
58493 
58439 
58431 
58437 
58383 
58291 
58251 
58221 
58153 
58120 
58091 
58085 
58094 
58081 
58109 
58122 
58084 
58053 
58019 
58007 
58000 
57946 
57944 
57996 
58041 
58072 
58032 
58005 
57983 
57937 
57903 
57895 
57936 
58008 
58054 
58107 
58113 
58143 
58156 
58228 
58367 
58436 
58451 
58455 
58487 
58529 
58594 
58663 
58672 
58723 
58772 
58771 
58817 
58870 
58949 
59011 
59089 
59176 
59260 
59343 
59411 
59420 
59440 
59464 
59489 
59518 
59458 
59406 
59439 
59514 
59559 
59601 
59575 
59533 
59491 
59480 
59468 
59500 
59561 
59578 
59581 
59567 
59615 
59656 
59654 
59605 
59577 
59564 
59553 
59558 
59585 
59578 
59614 
59638 
59628 
59564 
59574 
59593 
59568 
59562 
59591 
59635 
59607 
59520 
59456 
59410 
59336 
59338 
59351 
59352 
59338 
59345 
59342 
59395 
59423 
59373 
59324 
59293 
59230 
59190 
59083 
58986 
58929 
58879 
58840 
58744 
58599 
58438 
58320 
58198 
58115 
58041 
57949 
57818 
57717 
57591 
57448 
57305 
57124 
56981 
56807 
56664 
56555 
56440 
56291 
56140 
55999 
55850 
55747 
55659 
55526 
55419 
55348 
55297 
55223 
55161 
55133 
55072 
54996 
54982 
54928 
54909 
54901 
54941 
55028 
55010 
54968 
54956 
54979 
54974 
54997 
55046 
55059 
55096 
55176 
55227 
55242 
55246 
55295 
55360 
55459 
55578 
55642 
55667 
55733 
55798 
55834 
55857 
55914 
56015 
56066 
56097 
56166 
56212 
56224 
56276 
56341 
56398 
56491 
56593 
56694 
56775 
56850 
56942 
57008 
57046 
57071 
57107 
57154 
57160 
57168 
57173 
57187 
57226 
57230 
57211 
57195 
57240 
57226 
57253 
57268 
57292 
57304 
57322 
57320 
57303 
57285 
57271 
57262 
57280 
57265 
57223 
57239 
57256 
57243 
57217 
57225 
57284 
57298 
57276 
57255 
57278 
57324 
57279 
57297 
57328 
57306 
57287 
57266 
57209 
57198 
57251 
57328 
57366 
57378 
57385 
57403 
57443 
57500 
57557 
57536 
57482 
57459 
57420 
57445 
57452 
57476 
57542 
57566 
57550 
57527 
57485 
57453 
57433 
57493 
57536 
57586 
57605 
57611 
57622 
57626 
57625 
57634 
57619 
57594 
57603 
57621 
57667 
57692 
57650 
57626 
57668 
57720 
57751 
57768 
57775 
57782 
57776 
57837 
57892 
57883 
57862 
57801 
57796 
57782 
57772 
57794 
57812 
57777 
57740 
57691 
57659 
57657 
57733 
57751 
57718 
57632 
57561 
57535 
57546 
57547 
57521 
57518 
57550 
57578 
57540 
57455 
57402 
57387 
57397 
57368 
57335 
57293 
57236 
57170 
57097 
57083 
57065 
57051 
57009 
56968 
56941 
56914 
56867 
56905 
56883 
56867 
56813 
56735 
56633 
56567 
56559 
56512 
56507 
56455 
56342 
56246 
56166 
56091 
56049 
55959 
55862 
55822 
55769 
55705 
55580 
55452 
55385 
55308 
55237 
55133 
55004 
54905 
54787 
54664 
54585 
54529 
54471 
54420 
54414 
54390 
54363 
54329 
54301 
54292 
54274 
54222 
54179 
54164 
54160 
54218 
54243 
54201 
54177 
54169 
54189 
54246 
54260 
54231 
54218 
54244 
54314 
54402 
54405 
54374 
54394 
54407 
54392 
54362 
54406 
54464 
54538 
54591 
54642 
54665 
54690 
54681 
54647 
54644 
54659 
54713 
54801 
54849 
54856 
54868 
54889 
54914 
54934 
54995 
55065 
55057 
55062 
55093 
55126 
55219 
55279 
55278 
55324 
55426 
55483 
55554 
55552 
55526 
55543 
55541 
55534 
55589 
55636 
55679 
55701 
55750 
55781 
55864 
55919 
55933 
55914 
55919 
55968 
55989 
56032 
56075 
56076 
56065 
56087 
56095 
56115 
56151 
56176 
56201 
56227 
56341 
56379 
56382 
56418 
56419 
56414 
56410 
56440 
56484 
56534 
56587 
56615 
56641 
56705 
56761 
56794 
56837 
56846 
56819 
56809 
56812 
56822 
56827 
56829 
56863 
56867 
56905 
56933 
56977 
57019 
57042 
57076 
57089 
57083 
57019 
56984 
56962 
56966 
57008 
56989 
56980 
57004 
56977 
56946 
56940 
56940 
56964 
56998 
57046 
57060 
57085 
57149 
57140 
57103 
57129 
57121 
57096 
57108 
57132 
57189 
57284 
57334 
57331 
57281 
57248 
57198 
57197 
57179 
57168 
57180 
57185 
57204 
57288 
57294 
57328 
57384 
57388 
57365 
57339 
57301 
57283 
57236 
57211 
57215 
57192 
57179 
57143 
57102 
57070 
57018 
57028 
57015 
56990 
56997 
56937 
56853 
56786 
56717 
56657 
56596 
56496 
56344 
56225 
56130 
56057 
55975 
55879 
55797 
55715 
55639 
55551 
55491 
55428 
55336 
55276 
55194 
55124 
55073 
55018 
54980 
54969 
54956 
54966 
54985 
54948 
54890 
54926 
54969 
54969 
54911 
54886 
54923 
54999 
55057 
55078 
55108 
55155 
55221 
55261 
55274 
55293 
55345 
55403 
55465 
55477 
55504 
55562 
55654 
55716 
55760 
55827 
55825 
55838 
55894 
55964 
55987 
56061 
56127 
56192 
56230 
56232 
56243 
56250 
56247 
56298 
56301 
56297 
56347 
56348 
56352 
56410 
56456 
56475 
56485 
56542 
56547 
56478 
56489 
56557 
56582 
56601 
56635 
56625 
56659 
56709 
56672 
56627 
56649 
56668 
56653 
56663 
56697 
56704 
56646 
56659 
56722 
56783 
56796 
56791 
56822 
56880 
56928 
56931 
56996 
57066 
57100 
57159 
57239 
57331 
57345 
57341 
57340 
57349 
57355 
57349 
57329 
57352 
57446 
57495 
57496 
57518 
57545 
57546 
57566 
57600 
57630 
57608 
57624 
57664 
57675 
57665 
57623 
57633 
57578 
57517 
57561 
57658 
57739 
57772 
57748 
57699 
57642 
57601 
57611 
57631 
57602 
57590 
57584 
57574 
57595 
57565 
57506 
57499 
57482 
57487 
57472 
57420 
57399 
57400 
57394 
57415 
57398 
57390 
57381 
57373 
57415 
57432 
57390 
57380 
57382 
57383 
57384 
57371 
57370 
57378 
57370 
57317 
57269 
57250 
57227 
57196 
57199 
57192 
57172 
57177 
57184 
57192 
57187 
57147 
57109 
57080 
57054 
57039 
57003 
56952 
56903 
56846 
56826 
56781 
56748 
56719 
56640 
56530 
56466 
56469 
56395 
56253 
56138 
56031 
55960 
55873 
55779 
55736 
55660 
55535 
55479 
55454 
55458 
55365 
55235 
55168 
55077 
54947 
54878 
54828 
54784 
54756 
54705 
54626 
54568 
54558 
54565 
54569 
54538 
54477 
54483 
54473 
54443 
54428 
54446 
54448 
54450 
54454 
54424 
54410 
54459 
54534 
54585 
54607 
54664 
54750 
54778 
54726 
54663 
54627 
54589 
54575 
54538 
54483 
54452 
54443 
54420 
54366 
54306 
54301 
54326 
54395 
54418 
54357 
54329 
54339 
54378 
54388 
54401 
54401 
54388 
54419 
54421 
54405 
54455 
54510 
54503 
54503 
54498 
54556 
54686 
54727 
54750 
54769 
54812 
54892 
54955 
54974 
55051 
55114 
55106 
55126 
55208 
55238 
55194 
55201 
55305 
55332 
55311 
55304 
55338 
55325 
55334 
55393 
55480 
55562 
55572 
55599 
55651 
55652 
55649 
55654 
55678 
55677 
55694 
55783 
55843 
55919 
55938 
55952 
56014 
56080 
56109 
56063 
56043 
56060 
56164 
56270 
56296 
56350 
56414 
56446 
56415 
56354 
56305 
56310 
56339 
56336 
56358 
56330 
56321 
56351 
56384 
56401 
56391 
56418 
56494 
56514 
56470 
56474 
56539 
56511 
56490 
56510 
56525 
56503 
56488 
56502 
56545 
56535 
56484 
56458 
56420 
56388 
56450 
56512 
56503 
56474 
56493 
56505 
56574 
56614 
56559 
56565 
56576 
56593 
56609 
56631 
56691 
56747 
56774 
56816 
56847 
56842 
56863 
56889 
56865 
56840 
56818 
56755 
56739 
56736 
56738 
56732 
56736 
56728 
56706 
56738 
56810 
56854 
56896 
56945 
56978 
56913 
56862 
56922 
56967 
57009 
57016 
57011 
56974 
56907 
56840 
56833 
56809 
56767 
56712 
56713 
56686 
56597 
56572 
56545 
56525 
56457 
56403 
56338 
56314 
56264 
56229 
56217 
56132 
56077 
56026 
55984 
55991 
55990 
55943 
55885 
55889 
55884 
55846 
55803 
55729 
55750 
55760 
55726 
55687 
55682 
55729 
55772 
55764 
55766 
55761 
55720 
55717 
55768 
55780 
55755 
55732 
55755 
55789 
55829 
55849 
55849 
55848 
55831 
55830 
55873 
55871 
55847 
55807 
55814 
55840 
55814 
55821 
55827 
55843 
55866 
55898 
55933 
55958 
55962 
55972 
55950 
55993 
56051 
56033 
55996 
55976 
55995 
56038 
56051 
56021 
56015 
56056 
56090 
55995 
55958 
55980 
55977 
55967 
55942 
55936 
55953 
55989 
55995 
56007 
55987 
55920 
55848 
55812 
55850 
55898 
55922 
55924 
55951 
55988 
55988 
56004 
56059 
56079 
56054 
56041 
56009 
56022 
56074 
56100 
56089 
56089 
56113 
56150 
56207 
56214 
56217 
56166 
56186 
56213 
56225 
56267 
56340 
56361 
56379 
56394 
56352 
56333 
56373 
56419 
56431 
56440 
56482 
56504 
56493 
56518 
56540 
56541 
56545 
56581 
56618 
56628 
56634 
56658 
56676 
56651 
56643 
56671 
56705 
56725 
56805 
56810 
56798 
56811 
56791 
56769 
56797 
56804 
56794 
56853 
56935 
56958 
56959 
56939 
56903 
56876 
56838 
56837 
56840 
56813 
56807 
56844 
56850 
56827 
56796 
56786 
56788 
56809 
56831 
56824 
56800 
56742 
56706 
56677 
56665 
56681 
56673 
56718 
56748 
56733 
56748 
56752 
56703 
56654 
56593 
56545 
56521 
56490 
56441 
56368 
56341 
56362 
56362 
56321 
56297 
56254 
56216 
56205 
56155 
56070 
55990 
55949 
55944 
55946 
55865 
55798 
55768 
55721 
55699 
55699 
55603 
55527 
55514 
55532 
55537 
55490 
55451 
55462 
55455 
55391 
55379 
55413 
55399 
55375 
55366 
55385 
55418 
55392 
55384 
55357 
55339 
55355 
55348 
55362 
55387 
55368 
55382 
55396 
55433 
55415 
55421 
55474 
55507 
55517 
55529 
55557 
55543 
55590 
55611 
55615 
55711 
55776 
55785 
55808 
55825 
55823 
55803 
55856 
55910 
55924 
55949 
55986 
55971 
55955 
56021 
56091 
56125 
56108 
56097 
56151 
56193 
56201 
56221 
56264 
56327 
56347 
56416 
56459 
56445 
56462 
56504 
56545 
56544 
56554 
56545 
56614 
56655 
56701 
56737 
56753 
56760 
56784 
56811 
56807 
56820 
56830 
56811 
56812 
56830 
56884 
56973 
56973 
56961 
56915 
56900 
56947 
56935 
56971 
57002 
57002 
57003 
57028 
57051 
57089 
57126 
57043 
57007 
57032 
57069 
57100 
57108 
57066 
57062 
57027 
57037 
57063 
57048 
57012 
56963 
56977 
57033 
57064 
57029 
57018 
57013 
57031 
57077 
57132 
57158 
57167 
57201 
57197 
57244 
57222 
57162 
57147 
57190 
57230 
57271 
57245 
57203 
57198 
57172 
57188 
57245 
57299 
57272 
57282 
57336 
57342 
57319 
57246 
57193 
57215 
57225 
57175 
57164 
57196 
57181 
57208 
57219 
57227 
57235 
57219 
57198 
57208 
57217 
57214 
57196 
57183 
57192 
57193 
57205 
57190 
57174 
57151 
57088 
57040 
57005 
56935 
56889 
56871 
56838 
56788 
56794 
56796 
56732 
56661 
56670 
56676 
56602 
56547 
56505 
56470 
56472 
56439 
56412 
56402 
56355 
56318 
56299 
56243 
56208 
56178 
56132 
56096 
56063 
56021 
56034 
56101 
56141 
56103 
56133 
56158 
56181 
56199 
56211 
56219 
56209 
56246 
56310 
56329 
56338 
56343 
56389 
56398 
56394 
56443 
56434 
56438 
56431 
56450 
56442 
56446 
56477 
56469 
56487 
56533 
56532 
56533 
56532 
56581 
56632 
56625 
56682 
56711 
56733 
56757 
56727 
56716 
56778 
56821 
56750 
56673 
56631 
56624 
56632 
56656 
56653 
56651 
56647 
56680 
56657 
56640 
56703 
56716 
56731 
56824 
56868 
56857 
56852 
56830 
56791 
56811 
56876 
56876 
56862 
56813 
56794 
56802 
56836 
56857 
56836 
56829 
56896 
56900 
56938 
56981 
57006 
56984 
56956 
56950 
56955 
57008 
57090 
57146 
57167 
57128 
57125 
57161 
57174 
57190 
57244 
57246 
57186 
57152 
57189 
57237 
57261 
57288 
57269 
57311 
57358 
57384 
57408 
57504 
57555 
57580 
57582 
57608 
57574 
57564 
57555 
57545 
57580 
57608 
57661 
57662 
57668 
57644 
57652 
57704 
57710 
57752 
57794 
57842 
57854 
57852 
57851 
57812 
57750 
57768 
57777 
57759 
57774 
57849 
57878 
57880 
57849 
57844 
57852 
57851 
57854 
57859 
57879 
57919 
57945 
57958 
57964 
57979 
57974 
57945 
57990 
58052 
58062 
58056 
58026 
58018 
57993 
57964 
57954 
57977 
58006 
57972 
57961 
57930 
57890 
57806 
57731 
57709 
57653 
57599 
57556 
57492 
57515 
57556 
57521 
57520 
57577 
57558 
57541 
57539 
57546 
57604 
57632 
57622 
57568 
57555 
57611 
57597 
57535 
57511 
57512 
57502 
57465 
57442 
57457 
57451 
57431 
57412 
57455 
57444 
57416 
57374 
57387 
57446 
57491 
57486 
57437 
57395 
57360 
57306 
57344 
57409 
57462 
57523 
57565 
57561 
57563 
57555 
57512 
57520 
57562 
57634 
57664 
57642 
57658 
57656 
57644 
57664 
57689 
57706 
57662 
57681 
57743 
57771 
57742 
57683 
57714 
57737 
57723 
57741 
57761 
57791 
57851 
57902 
57895 
57893 
57897 
57936 
57946 
57961 
58039 
58066 
58031 
57996 
58011 
58043 
58078 
58126 
58188 
58220 
58238 
58237 
58235 
58249 
58243 
58255 
58314 
58392 
58387 
58339 
58360 
58416 
58427 
58401 
58407 
58380 
58405 
58421 
58410 
58442 
58513 
58539 
58507 
58511 
58527 
58553 
58508 
58515 
58463 
58500 
58562 
58551 
58561 
58633 
58670 
58697 
58690 
58651 
58627 
58589 
58585 
58621 
58670 
58658 
58606 
58573 
58539 
58503 
58527 
58548 
58531 
58489 
58482 
58501 
58515 
58541 
58542 
58537 
58544 
58503 
58505 
58516 
58528 
58553 
58521 
58474 
58431 
58440 
58475 
58541 
58572 
58573 
58575 
58517 
58475 
58441 
58418 
58450 
58488 
58531 
58514 
58453 
58434 
58466 
58459 
58445 
58388 
58401 
58449 
58481 
58502 
58526 
58522 
58502 
58492 
58485 
58464 
58441 
58404 
58413 
58431 
58442 
58411 
58396 
58360 
58345 
58359 
58374 
58384 
58340 
58362 
58380 
58356 
58326 
58341 
58342 
58292 
58282 
58304 
58317 
58302 
58286 
58292 
58287 
58309 
58305 
58239 
58228 
58222 
58209 
58215 
58232 
58208 
58146 
58144 
58136 
58091 
58104 
58122 
58145 
58136 
58109 
58105 
58106 
58121 
58132 
58145 
58143 
58165 
58167 
58145 
58119 
58075 
58103 
58158 
58156 
58146 
58163 
58148 
58161 
58156 
58157 
58184 
58174 
58155 
58173 
58241 
58289 
58317 
58313 
58335 
58337 
58343 
58356 
58362 
58365 
58333 
58311 
58308 
58298 
58310 
58249 
58225 
58264 
58321 
58338 
58298 
58222 
58219 
58283 
58341 
58333 
58313 
58290 
58308 
58289 
58280 
58276 
58280 
58251 
58230 
58234 
58232 
58235 
58223 
58218 
58220 
58195 
58183 
58151 
58145 
58149 
58101 
58068 
58116 
58149 
58169 
58130 
58083 
58071 
58026 
57983 
58014 
58042 
58026 
57975 
57982 
58032 
58013 
58022 
58035 
58054 
58078 
58122 
58119 
58099 
58111 
58106 
58074 
58031 
57995 
57968 
57974 
57980 
57958 
57923 
57876 
57851 
57860 
57853 
57834 
57850 
57910 
57992 
57983 
57910 
57864 
57835 
57844 
57855 
57856 
57853 
57880 
57878 
57848 
57808 
57809 
57821 
57854 
57854 
57883 
57908 
57859 
57799 
57792 
57779 
57745 
57691 
57674 
57687 
57753 
57759 
57705 
57704 
57706 
57701 
57683 
57712 
57739 
57733 
57718 
57724 
57733 
57770 
57752 
57736 
57743 
57778 
57829 
57840 
57803 
57779 
57738 
57732 
57728 
57815 
57860 
57900 
57894 
57876 
57840 
57831 
57860 
57930 
58033 
58061 
58035 
58047 
58019 
57992 
58021 
58025 
58018 
58026 
57981 
57949 
57987 
58005 
58034 
58091 
58079 
58065 
58097 
58105 
58119 
58103 
58073 
58007 
57989 
58013 
58039 
58060 
58051 
58026 
58050 
58085 
58144 
58189 
58166 
58144 
58136 
58084 
58086 
58106 
58103 
58129 
58181 
58194 
58196 
58171 
58177 
58180 
58203 
58175 
58190 
58173 
58142 
58175 
58204 
58200 
58201 
58204 
58161 
58126 
58186 
58229 
58230 
58232 
58207 
58173 
58176 
58150 
58092 
58067 
58072 
58069 
58054 
58061 
58048 
58039 
58037 
57997 
57988 
57982 
58036 
58081 
58091 
58059 
58051 
58060 
58026 
58025 
58030 
57988 
57973 
57977 
57937 
57918 
57930 
57933 
57918 
57877 
57901 
57942 
57926 
57895 
57900 
57899 
57898 
57898 
57894 
57873 
57887 
57882 
57862 
57898 
57926 
57947 
57943 
57904 
57921 
57950 
57938 
57901 
57935 
57974 
57983 
57992 
57969 
57924 
57884 
57900 
57905 
57938 
57965 
57926 
57907 
57954 
57983 
57979 
57972 
57910 
57897 
57882 
57884 
57928 
58004 
57993 
58004 
58015 
57995 
58022 
58069 
58079 
58045 
58002 
58008 
57982 
57933 
57983 
57971 
57934 
57984 
58017 
58011 
57973 
57943 
57933 
57941 
57967 
57971 
58011 
57996 
57952 
57941 
57946 
57914 
57873 
57824 
57849 
57821 
57774 
57773 
57789 
57794 
57769 
57756 
57749 
57748 
57767 
57782 
57728 
57739 
57803 
57804 
57798 
57792 
57761 
57765 
57790 
57772 
57708 
57745 
57844 
57845 
57862 
57856 
57870 
57892 
57838 
57776 
57775 
57795 
57739 
57700 
57749 
57783 
57748 
57718 
57700 
57760 
57855 
57895 
57894 
57878 
57877 
57867 
57914 
57927 
57992 
58013 
58047 
58071 
58069 
58065 
58036 
58029 
58064 
58080 
58046 
57989 
58011 
58043 
58025 
57999 
57926 
57843 
57837 
57795 
57792 
57815 
57750 
57703 
57680 
57658 
57703 
57713 
57681 
57669 
57643 
57625 
57584 
57604 
57625 
57631 
57664 
57675 
57655 
57666 
57701 
57700 
57645 
57579 
57597 
57651 
57668 
57686 
57665 
57581 
57559 
57573 
57600 
57618 
57642 
57637 
57607 
57566 
57577 
57589 
57560 
57570 
57606 
57582 
57549 
57489 
57454 
57434 
57460 
57487 
57565 
57544 
57521 
57541 
57554 
57630 
57637 
57574 
57570 
57576 
57590 
57586 
57615 
57659 
57674 
57728 
57704 
57727 
57691 
57671 
57679 
57674 
57655 
57654 
57666 
57699 
57717 
57675 
57665 
57644 
57652 
57628 
57560 
57568 
57550 
57571 
57576 
57577 
57590 
57587 
57591 
57609 
57564 
57515 
57504 
57546 
57572 
57570 
57589 
57543 
57474 
57446 
57440 
57473 
57506 
57519 
57511 
57499 
57520 
57562 
57597 
57620 
57647 
57694 
57666 
57589 
57511 
57484 
57471 
57456 
57401 
57454 
57517 
57504 
57420 
57364 
57366 
57357 
57356 
57329 
57297 
57337 
57376 
57379 
57376 
57346 
57330 
57274 
57217 
57211 
57235 
57249 
57313 
57345 
57362 
57404 
57401 
57393 
57416 
57412 
57435 
57457 
57447 
57458 
57480 
57481 
57474 
57468 
57465 
57483 
57515 
57475 
57444 
57410 
57406 
57458 
57477 
57428 
57391 
57364 
57380 
57416 
57402 
57413 
57379 
57325 
57305 
57347 
57377 
57356 
57361 
57412 
57432 
57395 
57351 
57316 
57336 
57355 
57334 
57325 
57319 
57256 
57192 
57184 
57162 
57196 
57227 
57196 
57187 
57216 
57240 
57253 
57230 
57251 
57251 
57198 
57155 
57116 
57064 
57045 
57034 
57070 
57081 
57085 
57077 
57039 
56970 
56932 
56960 
56950 
56946 
56964 
56952 
56893 
56835 
56859 
56870 
56815 
56783 
56793 
56826 
56835 
56827 
56814 
56872 
56874 
56849 
56854 
56909 
56999 
57021 
56975 
56989 
56983 
57014 
57021 
56994 
57014 
57099 
57145 
57187 
57191 
57208 
57207 
57197 
57175 
57217 
57257 
57219 
57215 
57245 
57240 
57204 
57236 
57277 
57360 
57400 
57393 
57370 
57406 
57429 
57436 
57413 
57388 
57412 
57467 
57514 
57535 
57487 
57442 
57412 
57420 
57494 
57577 
57593 
57595 
57622 
57613 
57644 
57649 
57658 
57657 
57763 
57787 
57798 
57823 
57812 
57775 
57746 
57739 
57740 
57790 
57829 
57807 
57820 
57850 
57874 
57874 
57877 
57868 
57900 
57971 
57990 
57975 
57984 
57978 
57992 
58068 
58102 
58079 
58053 
58087 
58111 
58154 
58173 
58202 
58198 
58157 
58108 
58083 
58066 
58075 
58066 
58073 
58135 
58220 
58260 
58273 
58275 
58294 
58279 
58274 
58292 
58292 
58280 
58296 
58291 
58265 
58219 
58244 
58273 
58309 
58306 
58314 
58340 
58358 
58305 
58253 
58266 
58331 
58333 
58354 
58319 
58262 
58264 
58219 
58199 
58213 
58198 
58170 
58136 
58155 
58168 
58165 
57276 
57339 
57364 
57373 
57406 
57406 
57444 
57443 
57446 
57477 
57512 
57532 
57519 
57529 
57565 
57636 
57659 
57694 
57688 
57666 
57698 
57753 
57786 
57774 
57776 
57792 
57789 
57757 
57735 
57734 
57760 
57749 
57733 
57770 
57862 
57950 
58023 
58022 
58028 
58011 
57958 
57957 
58003 
58002 
58059 
58060 
58106 
58151 
58163 
58181 
58153 
58196 
58263 
58283 
58285 
58327 
58376 
58353 
58368 
58394 
58405 
58419 
58398 
58362 
58352 
58337 
58353 
58345 
58342 
58389 
58398 
58381 
58356 
58343 
58346 
58344 
58344 
58326 
58274 
58273 
58263 
58254 
58222 
58224 
58214 
58238 
58310 
58358 
58380 
58343 
58339 
58331 
58318 
58337 
58317 
58270 
58277 
58263 
58266 
58271 
58244 
58195 
58159 
58135 
58159 
58180 
58189 
58185 
58111 
58041 
58047 
58027 
57980 
57995 
58053 
58078 
58075 
58059 
58050 
57530 
57520 
57503 
57479 
57469 
57456 
57469 
57440 
57433 
57449 
57428 
57394 
57343 
57293 
57262 
57242 
57251 
57295 
57353 
57302 
57254 
57233 
57254 
57259 
57209 
57212 
57226 
57269 
57315 
57303 
57297 
57297 
57297 
57286 
57326 
57325 
57296 
57258 
57253 
57290 
57337 
57391 
57459 
57509 
57531 
57537 
57535 
57539 
57607 
57607 
57561 
57560 
57571 
57582 
57563 
57539 
57562 
57580 
57594 
57666 
57734 
57766 
57757 
57707 
57674 
57718 
57737 
57769 
57832 
57827 
57832 
57820 
57787 
57816 
57884 
57929 
57953 
57965 
57946 
57975 
57962 
57969 
57973 
57974 
58018 
58047 
58032 
58011 
58011 
58040 
58065 
58069 
58072 
58115 
58152 
58174 
58204 
58184 
58141 
58103 
58084 
58093 
58109 
58141 
58196 
58199 
58181 
58223 
58260 
58255 
58297 
58381 
58438 
58443 
58384 
58303 
58309 
58319 
58337 
58344 
58506 
58489 
58495 
58515 
58521 
58545 
58523 
58503 
58474 
58474 
58436 
58427 
58482 
58523 
58561 
58587 
58588 
58582 
58572 
58574 
58588 
58541 
58493 
58474 
58526 
58574 
58571 
58579 
58561 
58556 
58566 
58574 
58530 
58484 
58473 
58429 
58397 
58408 
58420 
58377 
58304 
58228 
58199 
58159 
58105 
58059 
58033 
58034 
58043 
57986 
57924 
57881 
57878 
57834 
57760 
57695 
57655 
57622 
57582 
57590 
57618 
57586 
57574 
57537 
57472 
57430 
57469 
57432 
57363 
57370 
57352 
57329 
57291 
57304 
57319 
57310 
57261 
57252 
57299 
57338 
57322 
57333 
57410 
57430 
57419 
57402 
57407 
57402 
57365 
57360 
57342 
57339 
57319 
57292 
57322 
57339 
57378 
57405 
57423 
57517 
57529 
57475 
57463 
57441 
57449 
57480 
57473 
57456 
57447 
57446 
57477 
57471 
57455 
57450 
57474 
57516 
57558 
57533 
57540 
57986 
58001 
58011 
58027 
58022 
58055 
58095 
58098 
58095 
58070 
58093 
58152 
58188 
58229 
58314 
58382 
58393 
58417 
58430 
58458 
58480 
58467 
58494 
58579 
58602 
58572 
58581 
58574 
58596 
58642 
58655 
58763 
58831 
58867 
58905 
58883 
58881 
58894 
58860 
58826 
58813 
58814 
58859 
58925 
58949 
58975 
58988 
59023 
59057 
59091 
59125 
59103 
59018 
59004 
59027 
59055 
59085 
59109 
59129 
59130 
59169 
59213 
59213 
59197 
59280 
59284 
59230 
59223 
59232 
59261 
59329 
59334 
59306 
59331 
59362 
59375 
59351 
59379 
59426 
59433 
59466 
59475 
59447 
59425 
59423 
59470 
59498 
59471 
59476 
59460 
59488 
59474 
59422 
59399 
59357 
59325 
59293 
59287 
59274 
59218 
59165 
59112 
59132 
59118 
59083 
59039 
58978 
58915 
58891 
58909 
58899 
58841 
58753 
58726 
58730 
58702 
58637 
58575 
58458 
58101 
58049 
58022 
58013 
58006 
58047 
58071 
58056 
58093 
58092 
58082 
58088 
58115 
58131 
58154 
58202 
58230 
58213 
58229 
58263 
58244 
58263 
58273 
58321 
58402 
58447 
58459 
58469 
58540 
58567 
58554 
58547 
58551 
58574 
58563 
58626 
58680 
58675 
58652 
58682 
58711 
58740 
58772 
58760 
58772 
58759 
58718 
58690 
58710 
58752 
58795 
58843 
58870 
58926 
58964 
58960 
58913 
58974 
59052 
59036 
59054 
59111 
59194 
59244 
59248 
59308 
59347 
59340 
59335 
59344 
59358 
59349 
59364 
59384 
59392 
59394 
59422 
59475 
59496 
59529 
59547 
59572 
59593 
59624 
59672 
59691 
59701 
59685 
59656 
59686 
59721 
59731 
59725 
59740 
59784 
59760 
59733 
59747 
59725 
59766 
59816 
59789 
59776 
59796 
59816 
59850 
59879 
59861 
59859 
59965 
60007 
59945 
59858 
59877 
59906 
59888 
59905 
59866 
59494 
59513 
59493 
59413 
59401 
59368 
59287 
59238 
59228 
59213 
59234 
59235 
59175 
59137 
59121 
59090 
59046 
59050 
59069 
59051 
59015 
58991 
58991 
58978 
58946 
58931 
58914 
58898 
58903 
58871 
58867 
58880 
58862 
58873 
58913 
58929 
58930 
58982 
58989 
59037 
59083 
59101 
59119 
59129 
59118 
59086 
59120 
59180 
59193 
59211 
59233 
59267 
59295 
59304 
59356 
59414 
59508 
59530 
59526 
59529 
59544 
59582 
59653 
59697 
59715 
59749 
59778 
59765 
59739 
59761 
59783 
59812 
59798 
59760 
59719 
59726 
59743 
59724 
59730 
59777 
59878 
59946 
59958 
60000 
60004 
59993 
60014 
60039 
60073 
60085 
60087 
60087 
60095 
60118 
60106 
60091 
60174 
60194 
60227 
60275 
60297 
60288 
60309 
60321 
60331 
60335 
60302 
60253 
60234 
60222 
60260 
60307 
60334 
60285 
60280 
60303 
60286 
60243 
60218 
60214 
60180 
60129 
60097 
60097 
60107 
60118 
60144 
60155 
60158 
60212 
60228 
60217 
60231 
60214 
60189 
60134 
60143 
60151 
60100 
60119 
60125 
60107 
60096 
60130 
60201 
60202 
60226 
60220 
60202 
60190 
60196 
60201 
60162 
60175 
60240 
60280 
60307 
60327 
60341 
60355 
60315 
60297 
60313 
60361 
60389 
60430 
60455 
60451 
60449 
60443 
60400 
60346 
60385 
60429 
60442 
60430 
60426 
60410 
60437 
60419 
60321 
60257 
60210 
60167 
60164 
60142 
60129 
60097 
60031 
59995 
60005 
59956 
59866 
59808 
59737 
59680 
59635 
59655 
59659 
59636 
59630 
59585 
59512 
59429 
59340 
59271 
59251 
59247 
59233 
59233 
59212 
59186 
59190 
59153 
59121 
59130 
59165 
59199 
59222 
59264 
59286 
59283 
59287 
59317 
59332 
59297 
59303 
59299 
59285 
59267 
59287 
59307 
59340 
59355 
59414 
59454 
59529 
59534 
59515 
59531 
59555 
59568 
59585 
59585 
59634 
59674 
59706 
59710 
59683 
59727 
59781 
59825 
59825 
59867 
59896 
59908 
59941 
59951 
59975 
60061 
60111 
60093 
60048 
60050 
60047 
60043 
60097 
60165 
60169 
60158 
60100 
60059 
60039 
59995 
59973 
60017 
60084 
60048 
60020 
60047 
60044 
60025 
60046 
60087 
60105 
60145 
60211 
60256 
60251 
60192 
60185 
60184 
60200 
60197 
60197 
60233 
60233 
60223 
60254 
60236 
60201 
60220 
60238 
60243 
60248 
60264 
60316 
60346 
60351 
60355 
60383 
60444 
60462 
60481 
60483 
60469 
60472 
60509 
60544 
60573 
60560 
60579 
60602 
60627 
60662 
60632 
60569 
60558 
60574 
60550 
60535 
60526 
60492 
60471 
60430 
60389 
60364 
60326 
60347 
60369 
60344 
60343 
60412 
60462 
60434 
60426 
60418 
60392 
60419 
60408 
60371 
60354 
60351 
60344 
60313 
60315 
60311 
60271 
60257 
60326 
60308 
60326 
60322 
60257 
60211 
60159 
60110 
60110 
60047 
59937 
59857 
59795 
59677 
59626 
59597 
59568 
59581 
59590 
59564 
59537 
59484 
59425 
59428 
59471 
59517 
59492 
59490 
59536 
59583 
59570 
59585 
59630 
59689 
59697 
59697 
59668 
59660 
59664 
59647 
59615 
59601 
59540 
59518 
59518 
59493 
59490 
59497 
59471 
59448 
59442 
59440 
59454 
59448 
59484 
59495 
59531 
59560 
59579 
59609 
59655 
59695 
59687 
59689 
59693 
59689 
59720 
59751 
59776 
59821 
59835 
59791 
59760 
59775 
59739 
59692 
59706 
59695 
59610 
59581 
59627 
59683 
59683 
59660 
59657 
59678 
59717 
59718 
59731 
59725 
59705 
59727 
59729 
59740 
59751 
59773 
59844 
59855 
59858 
59875 
59897 
59915 
59988 
60013 
59990 
59990 
59990 
59958 
59940 
59964 
59976 
59938 
59945 
59914 
59909 
59940 
59932 
59955 
59983 
60016 
60042 
60027 
59966 
59949 
59973 
60008 
60032 
60011 
59977 
59942 
59929 
59966 
60005 
60030 
60047 
60091 
60079 
60033 
60010 
60015 
60006 
59987 
60020 
59995 
59967 
59947 
59938 
59949 
59969 
59948 
59945 
59933 
59901 
59882 
59886 
59905 
59863 
59877 
59904 
59882 
59862 
59846 
59843 
59801 
59760 
59737 
59644 
59594 
59573 
59523 
59496 
59458 
59401 
59364 
59344 
59316 
59279 
59233 
59169 
59151 
59118 
59079 
59038 
59053 
59083 
59057 
58992 
58986 
58995 
58979 
58967 
58953 
58957 
58962 
58963 
58961 
58959 
58972 
58996 
59018 
59028 
59053 
59058 
59055 
59093 
59098 
59128 
59151 
59183 
59224 
59203 
59207 
59233 
59249 
59226 
59208 
59240 
59303 
59349 
59433 
59481 
59483 
59542 
59593 
59586 
59612 
59626 
59656 
59704 
59752 
59776 
59776 
59793 
59851 
59908 
59935 
59990 
59998 
60000 
59995 
59997 
60055 
60079 
60060 
60036 
60049 
60094 
60094 
60097 
60078 
60076 
60147 
60216 
60260 
60305 
60344 
60325 
60317 
60276 
60238 
60262 
60334 
60371 
60400 
60410 
60423 
60449 
60437 
60406 
60417 
60397 
60378 
60395 
60399 
60413 
60416 
60416 
60396 
60376 
60356 
60352 
60359 
60325 
60342 
60441 
60490 
60495 
60504 
60523 
60547 
60543 
60493 
60557 
60624 
60623 
60653 
60634 
60609 
60663 
60681 
60682 
60670 
60694 
60653 
60624 
60674 
60680 
60709 
60788 
60809 
60788 
60792 
60792 
60758 
60751 
60681 
60675 
60647 
60638 
60648 
60657 
60724 
60746 
60707 
60643 
60656 
60667 
60698 
60717 
60767 
60784 
60774 
60740 
60691 
60619 
60565 
60521 
60513 
60454 
60380 
60321 
60235 
60180 
60225 
60182 
60117 
60061 
59979 
59948 
59916 
59847 
59780 
59732 
59707 
59655 
59635 
59577 
59507 
59489 
59472 
59410 
59315 
59272 
59283 
59293 
59283 
59229 
59255 
59260 
59313 
59338 
59336 
59358 
59391 
59393 
59394 
59388 
59399 
59482 
59530 
59516 
59525 
59546 
59563 
59526 
59499 
59472 
59467 
59499 
59547 
59589 
59602 
59630 
59680 
59723 
59745 
59824 
59912 
59940 
59945 
59928 
59921 
59925 
59957 
59991 
60023 
60045 
60065 
60085 
60142 
60165 
60202 
60274 
60321 
60338 
60325 
60311 
60348 
60397 
60482 
60536 
60514 
60521 
60531 
60600 
60659 
60691 
60716 
60768 
60793 
60801 
60819 
60849 
60854 
60850 
60848 
60879 
60922 
60919 
60899 
60957 
61020 
61005 
60999 
61004 
61057 
61065 
61053 
61043 
61012 
61007 
61009 
60999 
60968 
60964 
60950 
60924 
60892 
60848 
60900 
60936 
60911 
60886 
60871 
60840 
60810 
60814 
60848 
60824 
60752 
60768 
60849 
60878 
60929 
60933 
60880 
60863 
60874 
60920 
60978 
60999 
61014 
61003 
60975 
60966 
60976 
60968 
60932 
60944 
60967 
60975 
60918 
60897 
60819 
60768 
60760 
60781 
60765 
60719 
60734 
60732 
60673 
60637 
60623 
60625 
60617 
60618 
60567 
60494 
60422 
60376 
60323 
60340 
60366 
60351 
60368 
60340 
60327 
60333 
60383 
60369 
60321 
60365 
60385 
60335 
60317 
60333 
60285 
60251 
60238 
60221 
60183 
60175 
60183 
60116 
60035 
60019 
60006 
59968 
59889 
59812 
59763 
59726 
59700 
59679 
59667 
59684 
59651 
59608 
59550 
59545 
59526 
59534 
59573 
59556 
59566 
59560 
59520 
59506 
59532 
59571 
59568 
59601 
59672 
59712 
59718 
59702 
59693 
59683 
59691 
59730 
59762 
59753 
59756 
59785 
59761 
59744 
59781 
59866 
59849 
59845 
59861 
59869 
59922 
59945 
60024 
60102 
60093 
60097 
60056 
60002 
60053 
60104 
60076 
60112 
60152 
60136 
60106 
60113 
60136 
60142 
60144 
60194 
60186 
60189 
60228 
60236 
60215 
60175 
60148 
60146 
60129 
60134 
60160 
60174 
60131 
60139 
60112 
60031 
59962 
59952 
59941 
59923 
59871 
59845 
59808 
59814 
59834 
59822 
59809 
59808 
59771 
59802 
59834 
59852 
59869 
59889 
59874 
59869 
59915 
59916 
59897 
59931 
59958 
59955 
59944 
59921 
59910 
59910 
59911 
59891 
59870 
59862 
59864 
59864 
59885 
59944 
59969 
59987 
59995 
60026 
60031 
60020 
60016 
60050 
60031 
60002 
59993 
59982 
59979 
60018 
60011 
59967 
59923 
59942 
59936 
59906 
59854 
59822 
59800 
59738 
59732 
59767 
59770 
59730 
59702 
59715 
59719 
59755 
59746 
59690 
59678 
59673 
59641 
59655 
59649 
59626 
59604 
59558 
59514 
59542 
59549 
59523 
59442 
59370 
59339 
59289 
59284 
59276 
59216 
59168 
59142 
59107 
59060 
59047 
58947 
58847 
58841 
58852 
58798 
58750 
58668 
58598 
58576 
58532 
58463 
58470 
58458 
58421 
58436 
58375 
58351 
58350 
58342 
58362 
58376 
58383 
58376 
58367 
58366 
58345 
58359 
58398 
58414 
58438 
58485 
58516 
58521 
58559 
58554 
58545 
58591 
58633 
58639 
58622 
58616 
58571 
58530 
58572 
58599 
58663 
58664 
58615 
58611 
58645 
58672 
58706 
58726 
58745 
58791 
58833 
58839 
58854 
58916 
58939 
58977 
58986 
58982 
58995 
58986 
59014 
59057 
59068 
59057 
59115 
59110 
59092 
59099 
59121 
59136 
59139 
59160 
59185 
59204 
59231 
59271 
59284 
59324 
59347 
59290 
59291 
59296 
59296 
59321 
59323 
59372 
59363 
59324 
59350 
59414 
59477 
59528 
59584 
59650 
59733 
59773 
59745 
59759 
59781 
59806 
59817 
59816 
59821 
59846 
59905 
59945 
59954 
59998 
59999 
59985 
60026 
60076 
60126 
60126 
60111 
60087 
60055 
60055 
60054 
60045 
60044 
60051 
60070 
60103 
60126 
60131 
60125 
60093 
60097 
60173 
60265 
60249 
60246 
60273 
60264 
60289 
60338 
60377 
60391 
60415 
60488 
60524 
60496 
60475 
60479 
60486 
60513 
60500 
60501 
60498 
60499 
60472 
60424 
60416 
60405 
60358 
60339 
60332 
60286 
60280 
60243 
60201 
60196 
60209 
60222 
60198 
60185 
60166 
60150 
60124 
60069 
60049 
60038 
60003 
59944 
59966 
59946 
59933 
59899 
59857 
59836 
59841 
59811 
59770 
59771 
59828 
59866 
59812 
59748 
59700 
59700 
59724 
59738 
59763 
59768 
59766 
59764 
59768 
59792 
59817 
59886 
59923 
59922 
59925 
59960 
60030 
60046 
60077 
60081 
60059 
60091 
60145 
60201 
60246 
60313 
60349 
60349 
60371 
60438 
60489 
60541 
60538 
60533 
60498 
60519 
60551 
60632 
60696 
60715 
60778 
60841 
60849 
60875 
60921 
60933 
60921 
60909 
60910 
60998 
61083 
61120 
61137 
61128 
61098 
61118 
61107 
61127 
61140 
61124 
61126 
61127 
61133 
61094 
61060 
61099 
61152 
61179 
61186 
61203 
61208 
61175 
61160 
61153 
61098 
61098 
61107 
61144 
61130 
61113 
61114 
61118 
61131 
61131 
61088 
61072 
61116 
61105 
61045 
60973 
60958 
60984 
60966 
60946 
60940 
60911 
60917 
60929 
60936 
60916 
60902 
60867 
60835 
60776 
60790 
60790 
60798 
60809 
60793 
60747 
60708 
60698 
60709 
60708 
60734 
60772 
60752 
60758 
60788 
60788 
60835 
60872 
60901 
60894 
60893 
60901 
60927 
60953 
60929 
60868 
60789 
60702 
60667 
60650 
60613 
60623 
60583 
60501 
60421 
60352 
60264 
60209 
60199 
60188 
60181 
60093 
60089 
60078 
60021 
59999 
59950 
59911 
59882 
59888 
59884 
59832 
59763 
59701 
59693 
59670 
59646 
59583 
59565 
59527 
59476 
59427 
59404 
59417 
59463 
59422 
59377 
59365 
59330 
59333 
59392 
59429 
59420 
59422 
59463 
59516 
59571 
59593 
59596 
59640 
59679 
59718 
59769 
59778 
59809 
59812 
59767 
59741 
59780 
59876 
59970 
59989 
60017 
60032 
60076 
60118 
60087 
60067 
60140 
60240 
60324 
60307 
60285 
60283 
60298 
60291 
60280 
60286 
60305 
60353 
60469 
60532 
60516 
60556 
60578 
60577 
60605 
60634 
60706 
60768 
60757 
60739 
60675 
60685 
60782 
60812 
60819 
60807 
60814 
60815 
60839 
60874 
60880 
60875 
60847 
60894 
60869 
60776 
60763 
60761 
60766 
60818 
60884 
60902 
60911 
60955 
61001 
60997 
60981 
60981 
61028 
61106 
61172 
61199 
61262 
61278 
61249 
61217 
61249 
61263 
61265 
61273 
61316 
61366 
61344 
61309 
61294 
61295 
61307 
61393 
61456 
61501 
61519 
61453 
61411 
61410 
61401 
61380 
61384 
61349 
61310 
61251 
61229 
61270 
61294 
61297 
61267 
61278 
61317 
61328 
61283 
61209 
61169 
61146 
61100 
61054 
61036 
61026 
60947 
60848 
60804 
60766 
60688 
60609 
60578 
60500 
60373 
60280 
60244 
60227 
60184 
60137 
60123 
60073 
60042 
60017 
59963 
59901 
59846 
59812 
59752 
59676 
59631 
59584 
59566 
59556 
59492 
59443 
59423 
59402 
59390 
59402 
59391 
59366 
59380 
59400 
59398 
59410 
59436 
59428 
59399 
59394 
59385 
59403 
59455 
59433 
59443 
59501 
59542 
59531 
59521 
59524 
59545 
59602 
59612 
59624 
59664 
59699 
59689 
59725 
59778 
59804 
59846 
59802 
59789 
59843 
59858 
59835 
59806 
59830 
59866 
59919 
59947 
59946 
59949 
59974 
59977 
59961 
60026 
60073 
60070 
60120 
60114 
60102 
60144 
60177 
60188 
60181 
60244 
60282 
60277 
60294 
60240 
60242 
60249 
60260 
60316 
60368 
60437 
60438 
60405 
60399 
60417 
60449 
60487 
60495 
60549 
60619 
60635 
60646 
60695 
60721 
60758 
60746 
60701 
60689 
60761 
60777 
60723 
60667 
60677 
60715 
60727 
60718 
60772 
60852 
60910 
60924 
60872 
60837 
60851 
60893 
60985 
61025 
61028 
61025 
61032 
61002 
60938 
60918 
60953 
60957 
60991 
61045 
61098 
61156 
61176 
61192 
61245 
61282 
61300 
61317 
61303 
61276 
61290 
61286 
61320 
61314 
61338 
61416 
61378 
61326 
61362 
61402 
61414 
61365 
61310 
61287 
61304 
61366 
61351 
61281 
61229 
61143 
61080 
61076 
61033 
60951 
60854 
60786 
60720 
60651 
60577 
60524 
60475 
60404 
60299 
60256 
60229 
60165 
60114 
60070 
60042 
60030 
60033 
60039 
60006 
59961 
59923 
59903 
59842 
59784 
59803 
59786 
59805 
59868 
59875 
59872 
59846 
59851 
59835 
59781 
59775 
59802 
59864 
59987 
60034 
60025 
60071 
60103 
60100 
60105 
60109 
60161 
60208 
60267 
60357 
60426 
60463 
60456 
60462 
60466 
60502 
60537 
60598 
60602 
60581 
60624 
60682 
60703 
60738 
60754 
60745 
60781 
60830 
60860 
60870 
60858 
60861 
60916 
60928 
60928 
60947 
60949 
60904 
60928 
60916 
60879 
60860 
60873 
60919 
60940 
60950 
60937 
60917 
60870 
60862 
60862 
60869 
60863 
60828 
60807 
60815 
60830 
60862 
60895 
60933 
60966 
60941 
60898 
60939 
60975 
61015 
61013 
61011 
61003 
61018 
61028 
61026 
61064 
61118 
61178 
61217 
61214 
61215 
61213 
61247 
61294 
61303 
61304 
61359 
61440 
61537 
61583 
61567 
61566 
61611 
61635 
61689 
61740 
61749 
61779 
61771 
61862 
61950 
61974 
62016 
62043 
62052 
62081 
62102 
62133 
62213 
62304 
62312 
62328 
62386 
62414 
62487 
62559 
62538 
62524 
62524 
62514 
62549 
62561 
62537 
62577 
62603 
62584 
62593 
62551 
62489 
62501 
62488 
62477 
62471 
62460 
62560 
62581 
62550 
62558 
62557 
62532 
62521 
62537 
62542 
62578 
62518 
62468 
62420 
62361 
62331 
62272 
62176 
62119 
62076 
62048 
62022 
61940 
61849 
61794 
61750 
61763 
61727 
61655 
61575 
61502 
61445 
61405 
61381 
61368 
61344 
61294 
61209 
61120 
61048 
61007 
61045 
61078 
61036 
61021 
61011 
60949 
60896 
60896 
60864 
60857 
60862 
60890 
60967 
60975 
60925 
60909 
60929 
60973 
60955 
60968 
61016 
61103 
61144 
61192 
61238 
61309 
61339 
61344 
61327 
61335 
61355 
61417 
61454 
61524 
61606 
61673 
61712 
61703 
61721 
61726 
61763 
61824 
61909 
61970 
61975 
62033 
62096 
62114 
62139 
62162 
62186 
62257 
62321 
62341 
62323 
62329 
62342 
62362 
62392 
62462 
62490 
62473 
62525 
62541 
62542 
62529 
62561 
62588 
62562 
62585 
62567 
62518 
62500 
62536 
62563 
62529 
62502 
62518 
62518 
62532 
62559 
62526 
62495 
62487 
62498 
62512 
62526 
62485 
62443 
62444 
62456 
62456 
62465 
62504 
62488 
62438 
62434 
62397 
62402 
62419 
62398 
62372 
62338 
62276 
62268 
62270 
62203 
62181 
62166 
62166 
62137 
62121 
62101 
62066 
62047 
61987 
61956 
61963 
61938 
61905 
61940 
61971 
61923 
61855 
61844 
61856 
61834 
61819 
61829 
61830 
61855 
61858 
61860 
61812 
61756 
61772 
61799 
61767 
61751 
61757 
61743 
61752 
61741 
61707 
61681 
61682 
61718 
61689 
61662 
61632 
61572 
61536 
61521 
61531 
61562 
61552 
61538 
61520 
61496 
61494 
61532 
61516 
61478 
61437 
61413 
61366 
61279 
61203 
61154 
61030 
60924 
60871 
60832 
60749 
60674 
60578 
60502 
60412 
60282 
60154 
60054 
59959 
59833 
59743 
59651 
59574 
59490 
59412 
59349 
59290 
59234 
59162 
59119 
59130 
59116 
59099 
59075 
59049 
59032 
59027 
58975 
58962 
58994 
59009 
59029 
59094 
59151 
59091 
59081 
59137 
59172 
59228 
59235 
59306 
59417 
59524 
59526 
59599 
59645 
59682 
59754 
59804 
59854 
59947 
60008 
60021 
60033 
60055 
60104 
60148 
60170 
60185 
60202 
60211 
60230 
60270 
60284 
60286 
60296 
60369 
60379 
60371 
60398 
60385 
60313 
60286 
60291 
60284 
60262 
60203 
60103 
60079 
60112 
60086 
60053 
60080 
60112 
60154 
60166 
60128 
60090 
60152 
60181 
60178 
60218 
60203 
60167 
60171 
60217 
60246 
60298 
60299 
60289 
60312 
60323 
60345 
60385 
60405 
60455 
60511 
60459 
60455 
60464 
60491 
60547 
60579 
60615 
60708 
60743 
60742 
60721 
60723 
60765 
60818 
60852 
60885 
60855 
60840 
60846 
60894 
60951 
60973 
61010 
61079 
61144 
61200 
61247 
61235 
61230 
61223 
61189 
61181 
61232 
61257 
61271 
61308 
61329 
61298 
61262 
61235 
61246 
61242 
61231 
61276 
61244 
61235 
61212 
61201 
61216 
61175 
61160 
61145 
61151 
61123 
61063 
60989 
60945 
60914 
60948 
60983 
61006 
61022 
61037 
61030 
61002 
60984 
60945 
60950 
60982 
60979 
60980 
60954 
60934 
60907 
60897 
60908 
60914 
60916 
60928 
60884 
60835 
60803 
60860 
60874 
60845 
60816 
60799 
60785 
60757 
60710 
60636 
60515 
60413 
60371 
60345 
60298 
60256 
60183 
60084 
59960 
59812 
59712 
59635 
59544 
59415 
59286 
59183 
59096 
59025 
58890 
58807 
58770 
58699 
58639 
58588 
58492 
58426 
58386 
58308 
58192 
58150 
58063 
57924 
57854 
57840 
57786 
57709 
57654 
57598 
57566 
57592 
57576 
57563 
57596 
57577 
57524 
57525 
57539 
57554 
57634 
57674 
57640 
57595 
57624 
57621 
57565 
57544 
57487 
57453 
57473 
57481 
57472 
57436 
57402 
57347 
57267 
57232 
57216 
57152 
57114 
57066 
57064 
57089 
57098 
57113 
57093 
57089 
57094 
57090 
57094 
57054 
57055 
57092 
57144 
57170 
57178 
57221 
57276 
57341 
57420 
57457 
57471 
57498 
57543 
57587 
57644 
57660 
57671 
57690 
57715 
57715 
57735 
57802 
57850 
57913 
58025 
58107 
58154 
58241 
58388 
58543 
58627 
58679 
58742 
58781 
58811 
58870 
58857 
58892 
58907 
58889 
58912 
58938 
58969 
58975 
58955 
58918 
58841 
58759 
58718 
58669 
58623 
58580 
58512 
58471 
58439 
58367 
58238 
58168 
58107 
58074 
58051 
58025 
57961 
57896 
57809 
57751 
57651 
57575 
57490 
57438 
57490 
57527 
57506 
57450 
57451 
57483 
57523 
57541 
57564 
57621 
57645 
57631 
57666 
57689 
57718 
57778 
57820 
57844 
57901 
57954 
57954 
57972 
58027 
58072 
58175 
58245 
58299 
58358 
58397 
58394 
58410 
58496 
58540 
58498 
58502 
58524 
58521 
58524 
58547 
58562 
58557 
58578 
58581 
58581 
58561 
58511 
58453 
58385 
58342 
58305 
58240 
58206 
58133 
58088 
58042 
58077 
58083 
58038 
58023 
58114 
58231 
58321 
58399 
58465 
58532 
58566 
58631 
58710 
58759 
58777 
58792 
58799 
58813 
58881 
58966 
59054 
59050 
59029 
59037 
59078 
59085 
59090 
59077 
59064 
59029 
59000 
58973 
58979 
58980 
58965 
58901 
58815 
58819 
58840 
58899 
58899 
58868 
58827 
58798 
58747 
58712 
58691 
58638 
58649 
58667 
58659 
58666 
58642 
58581 
58548 
58566 
58566 
58485 
58376 
58297 
58235 
58177 
58147 
58089 
58024 
57961 
57873 
57799 
57796 
57757 
57717 
57659 
57586 
57516 
57467 
57468 
57440 
57391 
57389 
57289 
57231 
57244 
57209 
57156 
57147 
57101 
57002 
56939 
56932 
56850 
56762 
56724 
56722 
56695 
56690 
56665 
56645 
56645 
56633 
56668 
56689 
56693 
56693 
56666 
56646 
56656 
56706 
56677 
56634 
56660 
56673 
56680 
56692 
56696 
56712 
56766 
56746 
56734 
56808 
56867 
56894 
56889 
56891 
56927 
56986 
57007 
57008 
56999 
57011 
56990 
56916 
56870 
56911 
56864 
56836 
56839 
56845 
56846 
56904 
56915 
56865 
56861 
56819 
56759 
56735 
56728 
56733 
56717 
56746 
56769 
56776 
56726 
56747 
56732 
56665 
56717 
56756 
56757 
56789 
56740 
56755 
56776 
56768 
56746 
56668 
56593 
56555 
56511 
56473 
56392 
56335 
56258 
56225 
56190 
56129 
56067 
55989 
55905 
55791 
55707 
55664 
55670 
55655 
55593 
55500 
55477 
55453 
55418 
55352 
55277 
55220 
55146 
55099 
55037 
54984 
54975 
55006 
55050 
55008 
55005 
54995 
54959 
54910 
54879 
54868 
54863 
54840 
54797 
54751 
54698 
54719 
54767 
54791 
54804 
54793 
54760 
54667 
54609 
54647 
54655 
54598 
54585 
54545 
54511 
54487 
54482 
54444 
54408 
54373 
54330 
54367 
54377 
54352 
54298 
54264 
54215 
54193 
54163 
54129 
54065 
54032 
54030 
54015 
53949 
53914 
53849 
53832 
53863 
53864 
53851 
53869 
53871 
53828 
53776 
53774 
53787 
53788 
53799 
53800 
53803 
53849 
53886 
53904 
53898 
53887 
53864 
53852 
53916 
53969 
54042 
54078 
54097 
54133 
54190 
54219 
54269 
54345 
54441 
54479 
54557 
54626 
54747 
54878 
55027 
55131 
55178 
55227 
55293 
55371 
55448 
55501 
55595 
55692 
55772 
55841 
55907 
55978 
56024 
56076 
56131 
56185 
56267 
56339 
56435 
56481 
56539 
56576 
56592 
56633 
56665 
56698 
56725 
56759 
56800 
56860 
56888 
56890 
56907 
56930 
56920 
56888 
56876 
56869 
56912 
56922 
56906 
56911 
56910 
56897 
56925 
56968 
56946 
56929 
56918 
56938 
56937 
56965 
56939 
56939 
56940 
56953 
56989 
57006 
56950 
56862 
56794 
56761 
56785 
56740 
56662 
56643 
56584 
56501 
56414 
56332 
56303 
56269 
56177 
56025 
55914 
55883 
55809 
55718 
55615 
55483 
55444 
55373 
55280 
55159 
55108 
55074 
54979 
54928 
54967 
54984 
54996 
54996 
54978 
54970 
54972 
54990 
54983 
54975 
54963 
54945 
54932 
54927 
54987 
55013 
55012 
55052 
55175 
55290 
55343 
55420 
55484 
55518 
55549 
55602 
55657 
55715 
55832 
55869 
55934 
55990 
56045 
56075 
56087 
56120 
56105 
56070 
56103 
56126 
56112 
56135 
56156 
56201 
56244 
56239 
56266 
56267 
56249 
56286 
56323 
56302 
56307 
56308 
56341 
56336 
56290 
56247 
56217 
56212 
56233 
56217 
56147 
56151 
56157 
56157 
56119 
56061 
56052 
56055 
56038 
55982 
55938 
55940 
56018 
56079 
56107 
56089 
56095 
56066 
56076 
56080 
56127 
56157 
56169 
56197 
56209 
56236 
56280 
56354 
56396 
56381 
56404 
56458 
56471 
56411 
56364 
56365 
56440 
56483 
56465 
56486 
56503 
56497 
56503 
56525 
56566 
56617 
56590 
56587 
56576 
56503 
56479 
56432 
56379 
56347 
56325 
56346 
56447 
56462 
56400 
56321 
56311 
56332 
56311 
56289 
56290 
56264 
56204 
56185 
56159 
56214 
56242 
56225 
56223 
56237 
56259 
56258 
56268 
56285 
56258 
56245 
56273 
56287 
56268 
56259 
56276 
56201 
56138 
56105 
56065 
56106 
56137 
56149 
56152 
56195 
56264 
56257 
56182 
56145 
56132 
56097 
56052 
56001 
55957 
55917 
55843 
55783 
55742 
55710 
55658 
55570 
55501 
55438 
55420 
55399 
55345 
55310 
55344 
55310 
55229 
55170 
55089 
54992 
54893 
54843 
54788 
54757 
54707 
54706 
54694 
54648 
54639 
54671 
54663 
54578 
54512 
54519 
54503 
54462 
54470 
54473 
54499 
54535 
54581 
54620 
54633 
54615 
54584 
54611 
54677 
54707 
54785 
54835 
54847 
54854 
54850 
54874 
54933 
54943 
55001 
55057 
55090 
55109 
55144 
55134 
55106 
55141 
55157 
55162 
55220 
55229 
55213 
55249 
55253 
55268 
55313 
55341 
55360 
55351 
55421 
55494 
55554 
55515 
55481 
55515 
55549 
55549 
55555 
55609 
55658 
55736 
55761 
55735 
55774 
55843 
55867 
55877 
55937 
55978 
56024 
56029 
56060 
56091 
56087 
56086 
56127 
56178 
56206 
56171 
56192 
56266 
56278 
56288 
56312 
56311 
56358 
56434 
56508 
56505 
56505 
56518 
56550 
56578 
56617 
56636 
56715 
56757 
56762 
56786 
56809 
56856 
56959 
57039 
57107 
57113 
57117 
57104 
57102 
57103 
57130 
57140 
57103 
57117 
57211 
57220 
57186 
57181 
57230 
57276 
57262 
57305 
57441 
57474 
57463 
57463 
57460 
57521 
57557 
57554 
57561 
57622 
57649 
57656 
57674 
57683 
57643 
57638 
57656 
57665 
57567 
57551 
57551 
57507 
57454 
57393 
57356 
57359 
57380 
57413 
57427 
57437 
57432 
57418 
57358 
57294 
57203 
57112 
57031 
56981 
56908 
56867 
56787 
56722 
56647 
56556 
56447 
56382 
56319 
56196 
56026 
55898 
55797 
55742 
55711 
55602 
55535 
55464 
55431 
55367 
55300 
55273 
55272 
55267 
55212 
55149 
55141 
55128 
55151 
55101 
55050 
55000 
54970 
55006 
55012 
54982 
54983 
55005 
55024 
54998 
54972 
55006 
55071 
55211 
55265 
55284 
55275 
55285 
55335 
55368 
55378 
55446 
55537 
55623 
55700 
55719 
55779 
55834 
55896 
55928 
55944 
55940 
55967 
56009 
56018 
56124 
56197 
56243 
56306 
56335 
56336 
56356 
56421 
56462 
56442 
56459 
56477 
56483 
56483 
56494 
56488 
56516 
56557 
56518 
56490 
56521 
56534 
56546 
56602 
56682 
56751 
56759 
56717 
56712 
56713 
56778 
56904 
56975 
56973 
57026 
57094 
57140 
57214 
57279 
57350 
57352 
57351 
57396 
57434 
57453 
57482 
57531 
57566 
57566 
57599 
57582 
57636 
57726 
57755 
57729 
57761 
57851 
57880 
57872 
57843 
57899 
57976 
58016 
58004 
58014 
58059 
58095 
58118 
58161 
58207 
58217 
58211 
58207 
58232 
58245 
58263 
58275 
58274 
58290 
58292 
58269 
58288 
58350 
58351 
58330 
58328 
58310 
58264 
58217 
58205 
58223 
58285 
58331 
58245 
58151 
58095 
58069 
58101 
58120 
58081 
58033 
58009 
57955 
58002 
58026 
58024 
57972 
57913 
57895 
57884 
57867 
57820 
57788 
57763 
57781 
57834 
57813 
57790 
57803 
57802 
57747 
57666 
57622 
57599 
57573 
57507 
57516 
57545 
57464 
57348 
57272 
57191 
57106 
56998 
56899 
56805 
56696 
56571 
56492 
56405 
56268 
56165 
56085 
55998 
55891 
55802 
55724 
55616 
55546 
55446 
55407 
55366 
55267 
55243 
55191 
55150 
55115 
55093 
55068 
55064 
55086 
55116 
55108 
55081 
55107 
55112 
55099 
55095 
55124 
55106 
55089 
55138 
55141 
55197 
55228 
55232 
55274 
55363 
55407 
55446 
55537 
55646 
55690 
55748 
55774 
55802 
55859 
55882 
55931 
55980 
56013 
56019 
56040 
56027 
56009 
56040 
56017 
56044 
56142 
56215 
56258 
56313 
56358 
56340 
56340 
56366 
56404 
56414 
56426 
56436 
56519 
56573 
56601 
56574 
56528 
56549 
56537 
56573 
56644 
56648 
56639 
56646 
56655 
56640 
56603 
56598 
56631 
56711 
56769 
56786 
56862 
56943 
56960 
56957 
57001 
57065 
57104 
57097 
57138 
57199 
57209 
57233 
57255 
57308 
57387 
57412 
57424 
57441 
57486 
57541 
57611 
57609 
57589 
57595 
57612 
57655 
57715 
57711 
57712 
57738 
57791 
57816 
57813 
57827 
57788 
57782 
57811 
57854 
57871 
57903 
57900 
57859 
57849 
57870 
57867 
57866 
57798 
57754 
57765 
57816 
57822 
57811 
57813 
57817 
57787 
57753 
57668 
57602 
57603 
57555 
57547 
57554 
57548 
57554 
57519 
57461 
57438 
57450 
57461 
57446 
57428 
57326 
57264 
57208 
57186 
57139 
57154 
57161 
57114 
57172 
57222 
57209 
57164 
57156 
57185 
57218 
57177 
57139 
57121 
57086 
57087 
57086 
57081 
57104 
57059 
56973 
56917 
56892 
56861 
56846 
56790 
56744 
56739 
56719 
56635 
56537 
56461 
56393 
56346 
56247 
56130 
56059 
55984 
55897 
55831 
55702 
55582 
55460 
55356 
55277 
55137 
55090 
55091 
55031 
54986 
54887 
54874 
54868 
54810 
54754 
54703 
54668 
54654 
54653 
54652 
54737 
54770 
54800 
54780 
54777 
54829 
54860 
54888 
54966 
55073 
55161 
55221 
55291 
55362 
55402 
55449 
55540 
55602 
55666 
55729 
55784 
55840 
55908 
55958 
56011 
56119 
56243 
56318 
56369 
56416 
56487 
56598 
56712 
56762 
56786 
56787 
56822 
56854 
56917 
56956 
56951 
56998 
57060 
57129 
57141 
57126 
57115 
57145 
57193 
57232 
57258 
57233 
57205 
57192 
57277 
57302 
57291 
57279 
57258 
57219 
57183 
57165 
57178 
57235 
57271 
57202 
57173 
57195 
57183 
57157 
57135 
57108 
57036 
56949 
56871 
56824 
56782 
56699 
56596 
56557 
56486 
56349 
56260 
56272 
56257 
56236 
56202 
56080 
55994 
55907 
55869 
55846 
55798 
55780 
55750 
55735 
55734 
55751 
55740 
55739 
55745 
55714 
55692 
55683 
55698 
55690 
55699 
55667 
55616 
55605 
55627 
55601 
55581 
55628 
55630 
55601 
55538 
55531 
55538 
55510 
55489 
55521 
55540 
55545 
55538 
55567 
55583 
55593 
55612 
55598 
55610 
55598 
55544 
55506 
55476 
55455 
55441 
55435 
55413 
55394 
55388 
55384 
55389 
55379 
55360 
55315 
55275 
55302 
55287 
55256 
55249 
55234 
55229 
55208 
55180 
55214 
55223 
54389 
54386 
54416 
54411 
54394 
54390 
54383 
54347 
54257 
54222 
54223 
54214 
54157 
54179 
54222 
54243 
54226 
54269 
54276 
54236 
54270 
54351 
54377 
54391 
54437 
54430 
54449 
54447 
54491 
54506 
54567 
54658 
54721 
54746 
54753 
54740 
54791 
54799 
54835 
54877 
54896 
54901 
54938 
55021 
55156 
55217 
55254 
55289 
55284 
55284 
55282 
55309 
55371 
55377 
55340 
55317 
55299 
55333 
55384 
55427 
55423 
55422 
55483 
55541 
55597 
55644 
55665 
55702 
55733 
55788 
55845 
55846 
55805 
55804 
55879 
55938 
55969 
55974 
55999 
56027 
56037 
56029 
56054 
56068 
56101 
56149 
56180 
56221 
56251 
56274 
56345 
56443 
56500 
56550 
56610 
56621 
56612 
56629 
56668 
56728 
56789 
56817 
56892 
56978 
56997 
56997 
57052 
57106 
57074 
57039 
57095 
57166 
57218 
57212 
57209 
57224 
57206 
57226 
57226 
57812 
57832 
57826 
57805 
57762 
57782 
57804 
57811 
57847 
57862 
57900 
57908 
57914 
57947 
57955 
57908 
57925 
57929 
57968 
57992 
58021 
58085 
58135 
58153 
58186 
58191 
58190 
58177 
58158 
58110 
58118 
58156 
58219 
58260 
58220 
58142 
58102 
58107 
58151 
58198 
58238 
58262 
58256 
58269 
58287 
58268 
58250 
58238 
58228 
58194 
58155 
58195 
58206 
58181 
58101 
58056 
58004 
57906 
57809 
57729 
57691 
57650 
57607 
57581 
57601 
57563 
57535 
57489 
57476 
57426 
57368 
57355 
57373 
57333 
57292 
57218 
57141 
57088 
57077 
56991 
56899 
56822 
56802 
56764 
56718 
56733 
56800 
56762 
56737 
56765 
56779 
56815 
56835 
56853 
56927 
56979 
56938 
56929 
56988 
57067 
57142 
57193 
57170 
57159 
57180 
57193 
57190 
57202 
57177 
57128 
57130 
57145 
57169 
57202 
57241 
57315 
57344 
57315 
57297 
57722 
57762 
57740 
57758 
57827 
57879 
57906 
57962 
57981 
58003 
58005 
58002 
57992 
57993 
58068 
58097 
58071 
58095 
58099 
58067 
58108 
58145 
58148 
58165 
58201 
58233 
58256 
58281 
58324 
58357 
58379 
58391 
58420 
58438 
58479 
58482 
58469 
58491 
58517 
58587 
58676 
58651 
58647 
58703 
58718 
58776 
58806 
58767 
58741 
58762 
58764 
58758 
58778 
58775 
58749 
58788 
58797 
58796 
58755 
58715 
58722 
58673 
58618 
58600 
58590 
58552 
58598 
58562 
58498 
58462 
58463 
58382 
58295 
58238 
58238 
58247 
58160 
58043 
58034 
58013 
57962 
57913 
57846 
57803 
57790 
57756 
57705 
57626 
57594 
57604 
57599 
57583 
57554 
57544 
57584 
57604 
57609 
57600 
57570 
57521 
57527 
57541 
57502 
57474 
57437 
57382 
57350 
57370 
57369 
57379 
57423 
57441 
57453 
57446 
57422 
57425 
57408 
57438 
57492 
57563 
57508 
57471 
57447 
57407 
57436 
57520 
57548 
57534 
57548 
57539 
57524 
57540 
57590 
57623 
57618 
57628 
57615 
57602 
57636 
57694 
57748 
57751 
57705 
57721 
57754 
57807 
57879 
57912 
57904 
57921 
57985 
58015 
58055 
58063 
58067 
58099 
58133 
58144 
58141 
58150 
58155 
58168 
58161 
58211 
58233 
58305 
58405 
58436 
58416 
58409 
58446 
58524 
58569 
58582 
58572 
58610 
58688 
58766 
58781 
58829 
58892 
58954 
58948 
58927 
58983 
59058 
59096 
59108 
59163 
59196 
59167 
59211 
59261 
59252 
59218 
59173 
59169 
59147 
59165 
59174 
59136 
59150 
59186 
59176 
59168 
59189 
59162 
59098 
59062 
59070 
59107 
59184 
59194 
59192 
59161 
59158 
59212 
59311 
59348 
59333 
59323 
59321 
59365 
59337 
59330 
59343 
59338 
59314 
59347 
59378 
59362 
59361 
59326 
59290 
59264 
59267 
59278 
59266 
59262 
59269 
59273 
59251 
59240 
59283 
59330 
59306 
59281 
59265 
59250 
59290 
59290 
59270 
59288 
59325 
59293 
59236 
59250 
59271 
59299 
59334 
59400 
59420 
59340 
59286 
59288 
59299 
59285 
59259 
59252 
59256 
59292 
59377 
59442 
59439 
59468 
59478 
59425 
59396 
59416 
59400 
59431 
59475 
59536 
59562 
59554 
59556 
59568 
59592 
59594 
59621 
59610 
59607 
59610 
59570 
59599 
59681 
59737 
59684 
59675 
59684 
59701 
59699 
59681 
59659 
59642 
59639 
59621 
59666 
59667 
59637 
59649 
59705 
59776 
59828 
59839 
59781 
59727 
59755 
59802 
59803 
59754 
59734 
59738 
59742 
59723 
59756 
59796 
59850 
59867 
59856 
59909 
59965 
59929 
59891 
59886 
59879 
59901 
59906 
59888 
59909 
59942 
59933 
59953 
59949 
59949 
59949 
59959 
59972 
59987 
59973 
59932 
59927 
59939 
59982 
59987 
59965 
59998 
60026 
60034 
60065 
60060 
60045 
60062 
60045 
60050 
60101 
60114 
60095 
60055 
60008 
59998 
60029 
60042 
60030 
60074 
60092 
60077 
60078 
60093 
60091 
60096 
60098 
60090 
60099 
60100 
60110 
60096 
60080 
60066 
60055 
60010 
59976 
59925 
59907 
59872 
59848 
59880 
59925 
59919 
59879 
59853 
59837 
59852 
59938 
59944 
59902 
59872 
59827 
59801 
59776 
59745 
59697 
59639 
59586 
59623 
59618 
59575 
59604 
59629 
59605 
59557 
59496 
59454 
59412 
59424 
59495 
59505 
59426 
59400 
59381 
59377 
59394 
59396 
59430 
59468 
59500 
59516 
59500 
59517 
59490 
59426 
59423 
59424 
59398 
59364 
59303 
59268 
59231 
59296 
59368 
59343 
59289 
59267 
59278 
59325 
59306 
59305 
59352 
59356 
59366 
59355 
59354 
59340 
59269 
59235 
59243 
59217 
59220 
59186 
59198 
59174 
59147 
59153 
59140 
59130 
59137 
59134 
59131 
59135 
59148 
59153 
59151 
59144 
59160 
59139 
59114 
59091 
59063 
59021 
59000 
59040 
59062 
58977 
58902 
58903 
58927 
58922 
58917 
58911 
58908 
58930 
58914 
58889 
58867 
58884 
58848 
58787 
58759 
58742 
58729 
58759 
58851 
58863 
58868 
58871 
58839 
58832 
58829 
58813 
58785 
58807 
58874 
58864 
58821 
58837 
58853 
58899 
58924 
58919 
58931 
58945 
58863 
58850 
58928 
58913 
58898 
58886 
58897 
58917 
58906 
58886 
58868 
58916 
58946 
58945 
58918 
58905 
58917 
58928 
58937 
58910 
58909 
58972 
59008 
58996 
59027 
59030 
58996 
59025 
59064 
59108 
59147 
59135 
59144 
59163 
59165 
59161 
59172 
59191 
59215 
59192 
59175 
59167 
59200 
59211 
59170 
59173 
59192 
59152 
59153 
59187 
59243 
59224 
59221 
59166 
59173 
59220 
59264 
59252 
59235 
59298 
59261 
59177 
59123 
59132 
59125 
59097 
59087 
59094 
59087 
59058 
59080 
59089 
59063 
59078 
59039 
58979 
58964 
58999 
59044 
59071 
59088 
59069 
59061 
59056 
59032 
58998 
58950 
58930 
58998 
59001 
58964 
58915 
58943 
58941 
58948 
58942 
58921 
58892 
58903 
58936 
58904 
58899 
58920 
58902 
58900 
58950 
58958 
58930 
58913 
58964 
59008 
59028 
59040 
59033 
58996 
59008 
59007 
58990 
58988 
59040 
59026 
59004 
59049 
59098 
59087 
59085 
59150 
59232 
59215 
59154 
59121 
59123 
59104 
59112 
59132 
59096 
59074 
59140 
59172 
59194 
59232 
59222 
59183 
59132 
59084 
59067 
59085 
59105 
59049 
59063 
59037 
59042 
59085 
59089 
59035 
59015 
59028 
59064 
59072 
59052 
59061 
59079 
59138 
59229 
59191 
59137 
59113 
59087 
59042 
59015 
59054 
59136 
59200 
59220 
59201 
59170 
59160 
59138 
59121 
59140 
59160 
59174 
59230 
59307 
59319 
59271 
59211 
59243 
59276 
59286 
59292 
59295 
59325 
59290 
59261 
59287 
59306 
59322 
59379 
59450 
59502 
59518 
59525 
59483 
59441 
59438 
59435 
59401 
59392 
59406 
59400 
59378 
59386 
59389 
59368 
59397 
59397 
59348 
59291 
59331 
59404 
59410 
59401 
59413 
59353 
59307 
59301 
59305 
59291 
59298 
59275 
59272 
59298 
59284 
59282 
59339 
59374 
59302 
59249 
59260 
59303 
59353 
59331 
59297 
59316 
59362 
59342 
59308 
59286 
59271 
59290 
59277 
59306 
59353 
59312 
59251 
59230 
59251 
59269 
59296 
59411 
59442 
59421 
59434 
59421 
59376 
59365 
59315 
59317 
59314 
59305 
59323 
59331 
59339 
59338 
59324 
59301 
59300 
59303 
59280 
59302 
59377 
59387 
59320 
59306 
59331 
59334 
59356 
59393 
59383 
59362 
59376 
59389 
59389 
59380 
59389 
59378 
59335 
59307 
59318 
59317 
59275 
59260 
59224 
59228 
59278 
59242 
59221 
59224 
59219 
59245 
59254 
59245 
59243 
59231 
59173 
59147 
59148 
59191 
59245 
59267 
59294 
59348 
59384 
59410 
59397 
59374 
59379 
59376 
59379 
59399 
59389 
59409 
59398 
59361 
59365 
59404 
59406 
59369 
59379 
59372 
59325 
59342 
59402 
59443 
59499 
59509 
59511 
59499 
59487 
59476 
59499 
59573 
59603 
59608 
59583 
59545 
59546 
59561 
59563 
59538 
59570 
59614 
59601 
59621 
59636 
59569 
59564 
59591 
59571 
59586 
59586 
59599 
59607 
59544 
59566 
59577 
59588 
59583 
59594 
59588 
59564 
59549 
59530 
59515 
59562 
59540 
59537 
59564 
59567 
59563 
59555 
59581 
59564 
59581 
59623 
59636 
59627 
59609 
59590 
59611 
59662 
59716 
59779 
59775 
59716 
59713 
59757 
59803 
59790 
59754 
59745 
59701 
59684 
59691 
59716 
59727 
59716 
59704 
59688 
59668 
59713 
59770 
59748 
59702 
59704 
59710 
59695 
59663 
59730 
59773 
59716 
59706 
59708 
59732 
59751 
59764 
59770 
59745 
59703 
59686 
59657 
59652 
59662 
59661 
59685 
59688 
59611 
59623 
59635 
59595 
59570 
59549 
59537 
59512 
59509 
59539 
59514 
59504 
59552 
59588 
59547 
59543 
59537 
59551 
59547 
59551 
59575 
59576 
59578 
59570 
59582 
59602 
59622 
59632 
59613 
59591 
59595 
59624 
59639 
59602 
59619 
59619 
59628 
59617 
59620 
59620 
59626 
59648 
59654 
59663 
59637 
59609 
59590 
59579 
59606 
59634 
59653 
59653 
59610 
59598 
59578 
59545 
59527 
59482 
59463 
59496 
59472 
59409 
59417 
59463 
59460 
59387 
59328 
59285 
59287 
59315 
59283 
59207 
59189 
59232 
59233 
59222 
59224 
59191 
59178 
59163 
59146 
59147 
59148 
59189 
59248 
59304 
59303 
59245 
59209 
59222 
59235 
59248 
59250 
59227 
59204 
59207 
59250 
59289 
59307 
59304 
59288 
59290 
59306 
59309 
59316 
59332 
59354 
59320 
59286 
59287 
59301 
59362 
59431 
59459 
59486 
59479 
59468 
59487 
59508 
59546 
59556 
59585 
59612 
59592 
59612 
59666 
59668 
59654 
59624 
59605 
59619 
59639 
59677 
59686 
59668 
59629 
59655 
59676 
59712 
59692 
59612 
59569 
59563 
59600 
59666 
59756 
59798 
59740 
59665 
59650 
59678 
59693 
59720 
59733 
59719 
59666 
59607 
59615 
59650 
59664 
59679 
59712 
59686 
59674 
59688 
59682 
59730 
59743 
59705 
59686 
59694 
59677 
59668 
59666 
59641 
59615 
59654 
59714 
59678 
59683 
59684 
59721 
59732 
59740 
59708 
59698 
59760 
59736 
59700 
59706 
59707 
59698 
59698 
59689 
59714 
59763 
59821 
59809 
59799 
59789 
59786 
59761 
59693 
59711 
59754 
59778 
59807 
59806 
59770 
59746 
59770 
59778 
59786 
59781 
59797 
59787 
59779 
59711 
59714 
59769 
59798 
59803 
59790 
59753 
59748 
59777 
59815 
59826 
59786 
59723 
59715 
59701 
59680 
59720 
59789 
59815 
59815 
59786 
59724 
59706 
59724 
59690 
59692 
59687 
59643 
59610 
59580 
59530 
59476 
59465 
59527 
59566 
59528 
59522 
59500 
59479 
59449 
59433 
59421 
59440 
59492 
59519 
59574 
59568 
59561 
59575 
59592 
59538 
59479 
59454 
59438 
59395 
59369 
59383 
59361 
59302 
59327 
59331 
59272 
59265 
59222 
59218 
59214 
59192 
59096 
59083 
59110 
59098 
59083 
59100 
59131 
59136 
59096 
59077 
59052 
59043 
59045 
59026 
59017 
59052 
59089 
59063 
59041 
59034 
58997 
59005 
58995 
58989 
58993 
59007 
59068 
59047 
58999 
59024 
59048 
59034 
58996 
58989 
58976 
58951 
59021 
59059 
58975 
58894 
58872 
58909 
58920 
58930 
58919 
58934 
58965 
58931 
58903 
58915 
58921 
58960 
59009 
59035 
59063 
59111 
59075 
59100 
59126 
59150 
59115 
59062 
58998 
58991 
59026 
59078 
59024 
58968 
59005 
59016 
59032 
59062 
59100 
59095 
59150 
59162 
59164 
59229 
59274 
59287 
59332 
59356 
59354 
59322 
59275 
59232 
59237 
59281 
59291 
59274 
59246 
59296 
59353 
59349 
59353 
59332 
59308 
59275 
59253 
59272 
59284 
59239 
59208 
59260 
59342 
59403 
59409 
59381 
59372 
59358 
59307 
59305 
59363 
59386 
59387 
59353 
59350 
59282 
59226 
59284 
59367 
59365 
59335 
59327 
59312 
59313 
59306 
59308 
59360 
59384 
59465 
59494 
59464 
59448 
59424 
59408 
59414 
59406 
59405 
59400 
59383 
59359 
59347 
59310 
59301 
59324 
59349 
59378 
59409 
59393 
59341 
59353 
59342 
59326 
59330 
59361 
59336 
59288 
59245 
59224 
59200 
59170 
59198 
59214 
59188 
59154 
59160 
59201 
59184 
59145 
59148 
59131 
59141 
59141 
59063 
59043 
59046 
59071 
59085 
59089 
59057 
59011 
58993 
59003 
59013 
58993 
58930 
58937 
58966 
58953 
58923 
58904 
58879 
58874 
58855 
58833 
58827 
58816 
58799 
58840 
58863 
58873 
58843 
58826 
58842 
58852 
58841 
58811 
58819 
58797 
58758 
58756 
58769 
58749 
58702 
58669 
58652 
58670 
58659 
58658 
58671 
58626 
58582 
58620 
58659 
58681 
58681 
58644 
58648 
58668 
58684 
58691 
58713 
58757 
58797 
58827 
58850 
58829 
58769 
58732 
58742 
58750 
58769 
58786 
58730 
58680 
58671 
58673 
58677 
58670 
58627 
58638 
58607 
58601 
58635 
58661 
58763 
58806 
58798 
58800 
58838 
58834 
58847 
58885 
58962 
58953 
58926 
58914 
58864 
58846 
58909 
58935 
58903 
58938 
59002 
59034 
59042 
59047 
59040 
59047 
59052 
59073 
59095 
59153 
59176 
59172 
59183 
59192 
59162 
59128 
59165 
59168 
59183 
59215 
59240 
59226 
59186 
59169 
59164 
59187 
59232 
59256 
59284 
59314 
59310 
59322 
59304 
59297 
59284 
59296 
59290 
59262 
59275 
59308 
59294 
59318 
59313 
59272 
59253 
59254 
59270 
59257 
59263 
59304 
59263 
59224 
59237 
59259 
59266 
59257 
59283 
59273 
59273 
59259 
59309 
59347 
59405 
59405 
59439 
59485 
59489 
59479 
59479 
59499 
59528 
59535 
59550 
59550 
59556 
59541 
59549 
59551 
59558 
59568 
59599 
59576 
59566 
59567 
59558 
59559 
59580 
59620 
59626 
59624 
59606 
59570 
59539 
59502 
59472 
59436 
59409 
59450 
59472 
59496 
59544 
59539 
59531 
59538 
59504 
59468 
59440 
59446 
59403 
59315 
59305 
59292 
59239 
59214 
59214 
59229 
59250 
59277 
59264 
59236 
59224 
59239 
59241 
59272 
59306 
59332 
59295 
59274 
59317 
59331 
59291 
59284 
59287 
59277 
59247 
59220 
59193 
59160 
59157 
59104 
59106 
59122 
59135 
59166 
59184 
59172 
59123 
59127 
59150 
59100 
59098 
59112 
59114 
59121 
59116 
59118 
59112 
59098 
59079 
59056 
58984 
58959 
58930 
58922 
58966 
58972 
58971 
58930 
58888 
58912 
58909 
58864 
58876 
58858 
58833 
58832 
58791 
58740 
58728 
58700 
58677 
58707 
58702 
58703 
58687 
58699 
58702 
58674 
58664 
58671 
58676 
58718 
58727 
58706 
58664 
58618 
58605 
58596 
58590 
58599 
58600 
58629 
58642 
58661 
58648 
58677 
58670 
58637 
58669 
58729 
58736 
58756 
58767 
58799 
58796 
58828 
58870 
58848 
58828 
58852 
58921 
58895 
58899 
58960 
58956 
58997 
59011 
58994 
58969 
58997 
59023 
59040 
59068 
59077 
59098 
59093 
59097 
59117 
59112 
59142 
59170 
59178 
59184 
59222 
59244 
59280 
59314 
59330 
59358 
59356 
59373 
59393 
59445 
59463 
59432 
59430 
59516 
59512 
59475 
59454 
59435 
59461 
59499 
59536 
59600 
59651 
59654 
59654 
59663 
59600 
59584 
59633 
59675 
59719 
59736 
59708 
59707 
59737 
59739 
59713 
59746 
59749 
59732 
59737 
59815 
59883 
59887 
59858 
59896 
59911 
59953 
59994 
59984 
60020 
59988 
59965 
59929 
59938 
59933 
59892 
59906 
59940 
59952 
59947 
59925 
59986 
59999 
59957 
59942 
59954 
59997 
60006 
60018 
59999 
59925 
59912 
59905 
59890 
59887 
59910 
59939 
59925 
59940 
59950 
59904 
59906 
59902 
59861 
59846 
59871 
59936 
59919 
59854 
59857 
59855 
59862 
59856 
59844 
59875 
59863 
59856 
59865 
59883 
59873 
59858 
59840 
59871 
59861 
59871 
59855 
59851 
59848 
59814 
59793 
59786 
59780 
59782 
59799 
59796 
59771 
59741 
59742 
59748 
59761 
59743 
59680 
59595 
59542 
59521 
59455 
59375 
59349 
59341 
59366 
59340 
59332 
59319 
59281 
59248 
59210 
59165 
59098 
59058 
59042 
59042 
59023 
59004 
58999 
58997 
59007 
58983 
59010 
59007 
59008 
59022 
58947 
58897 
58849 
58825 
58840 
58836 
58817 
58814 
58825 
58892 
58935 
58943 
58894 
58853 
58890 
59001 
59052 
59058 
59099 
59119 
59122 
59124 
59096 
59079 
59030 
58961 
58930 
58924 
58946 
58987 
59031 
59051 
59043 
59056 
59044 
59047 
59047 
59071 
59125 
59141 
59147 
59138 
59120 
59127 
59135 
59130 
59108 
59147 
59229 
59200 
59188 
59219 
59263 
59286 
59266 
59248 
59276 
59348 
59368 
59345 
59297 
59294 
59314 
59352 
59308 
59293 
59296 
59296 
59303 
59324 
59361 
59366 
59420 
59450 
59506 
59524 
59527 
59521 
59481 
59432 
59438 
59499 
59571 
59556 
59546 
59570 
59596 
59623 
59665 
59662 
59675 
59718 
59748 
59723 
59708 
59743 
59763 
59722 
59727 
59737 
59763 
59830 
59853 
59868 
59850 
59771 
59743 
59740 
59775 
59798 
59775 
59804 
59862 
59885 
59937 
59931 
59906 
59897 
59809 
59834 
59873 
59937 
59961 
59974 
60008 
60024 
60023 
59984 
59948 
59986 
60024 
60019 
60020 
60037 
60032 
60024 
60031 
60005 
59948 
59883 
59823 
59834 
59883 
59915 
59908 
59876 
59858 
59911 
59909 
59846 
59883 
59874 
59839 
59832 
59803 
59800 
59793 
59778 
59797 
59799 
59767 
59708 
59644 
59617 
59603 
59564 
59505 
59485 
59427 
59329 
59243 
59173 
