-9893.709110463753,-9918.184270642314,-9921.045293932593,-9994.381367490456,-10086.895237790972,-9995.07427156857,-9930.701247537285,-10002.45034723882,-10044.628089025986,-9977.438745193333,-9842.165987749815,-9897.643017487886,-9999.611675692997,-9996.21421053579,-9840.75782784913,-9781.816277720485,-9852.738362877175,-9887.115345849437,-9805.307961143013,-9806.358493132413,-9977.863428337983,-10041.901176202438,-9870.530351463598,-9720.572497912945,-9753.250748306602,-9794.243847637636,-9666.883607731295,-9277.449164086482,-8620.03965616699,-8353.65156574864,-8330.539861981853,-8190.61794169163,-8091.152678865515,-8021.705808842875,-7774.517866911634,-7482.022938969486,-7289.8649918872115,-7051.930672160468,-6742.0907905210015,-6528.072837361436,-6415.509452284509,-6304.488337575,-6163.7394027399305,-5961.143190997028,-5775.735470740256,-5662.523885074125,-5658.209998394251,-5732.194272541317,-5661.2721873846285,-5556.777782056068,-5562.946863525733,-5586.863230092911,-5541.109209192898,-5652.845579724977,-5658.858198983455,-5683.623931839935,-5868.025823596218,-5918.920745720952,-5963.80304858721,-5930.253080159793,-5916.372646853048,-5918.473710831847,-5877.525314989724,-5986.624179676078,-5936.109237207083,-5885.638998227,-6022.2752120822925,-6057.233340410393,-6045.565729804723,-6184.437118105545,-6219.75287434493,-6183.096013438227,-6230.369952961201,-6213.427330664079,-6353.796285843407,-6418.504586041521,-6573.737451283629,-6784.112070096979,-7081.725547519392,-7493.57879085288,-7855.498237073212,-8080.64735897152,-8406.245220451978,-8595.005702377046,-8532.174948713178,-8439.772837134939,-8505.486965833541,-8930.326572695563,-9129.257098347796,-9209.34339873116,-9269.469591315936,-9163.142342942041,-9043.046419983677,-8922.19053771383,-8965.44116323485,-9253.152817863562,-9642.207281852638,-9984.837172608039,-10338.33001116872,-10705.390358613773,-11056.625670984467,-11113.086177478574,-11057.475037273769,-11191.11611737205,-11369.415982892035,-11391.007768035863,-11298.560952968712,-11397.914457072551,-11730.977801201083,-11867.34579412291,-11776.105973256348,-11860.081477174936,-12014.24145868319,-11940.883033380871,-11696.824335673373,-11565.284319553892,-11856.751067251094,-11990.414499093831,-11785.203133249657,-11719.846632462339,-12094.998311400213,-12716.063882835375,-13114.081396351028,-13034.397427367858,-13254.182130596893,-13627.545669978343,-13530.941430442504,-13324.791291331208,-13573.901483285605,-13992.19202902222,-13899.253475577054,-13604.344559233734,-13854.818207599905,-14554.651326495568,-14829.354265851292,-14512.518288197314,-14579.685280285512,-15258.239538459724,-15446.642392473506,-14584.110925687663,-13646.164673109613,-13771.401497292698,-14107.147050755866,-13629.959658379516,-13158.874292239463,-13713.37636868672,-14505.790413116267,-14507.891477095065,-14238.508252919704,-14770.390363978191,-16070.479580221127,-16420.351436180048,-15658.76044735437,-15480.795858001216,-16631.217793371416,-17304.09470845398,-16525.337579886625,-16003.871381744311,-16978.340384762334,-17900.9756923885,-17315.09176672599,-16608.374310538093,-30843.77567097851,-30618.6265490802,-29813.114382399846,-30231.337872903096,-31431.000701308338,-31428.36319546261,-30544.48581272195,-30676.182291052617,-31878.482625303583,-32152.045625692088,-31299.99712705578,-31168.74768361422,-32315.347470682562,-32854.762119622486,-32085.169206281807,-31716.745402424982,-32737.951903099052,-33517.87132237808,-32880.24310830153,-32304.90920602193,-33132.68371017977,-34097.60851831538,-33658.44144325751,-32956.596667360864,-33598.94109951748,-34730.34170035621,-34504.43261914642,-33591.453265124954,-31675.75230309395,-26283.68452592904,-21258.990020631554,-18253.507405937602,-18157.596070479878,-19086.802790975904,-19501.271188410665,-18761.227281239902,-18762.210757995934,-20032.505098879945,-20772.616061284072,-20267.466636594134,-20163.888652788242,-21461.63093586337,-22516.856791598417,-22115.553571647833,-21666.596432518534,-22557.536966507076,-23590.947519653742,-23217.58398027229,-22525.68573065826,-23138.347046178227,-24254.816681720815,-24032.95326625744,-23119.437470369037,-23314.545847719415,-24298.849618297772,-24126.942351692003,-22990.557311839737,-22751.438349656863,-23587.661813218812,-23567.835815886952,-22386.657880146253,-21859.603745890112,-22624.323978939534,-22901.06092704069,-21902.563798733212,-21265.427323034684,-22029.231134561436,-22661.76315090217,-21926.882496700586,-21193.700575077604,-21841.32001892567,-22704.812610723093,-22207.329834381322,-21380.42704825724,-21855.781597588255,-22891.404973435998,-22663.81951139206,-21774.667116959947,-22012.69084366451,-23109.49094408643,-23128.40051989562,-22199.864351733253,-22156.09963608976,-23212.64424474767,-23452.634924964303,-22516.946198576235,-22178.652546245165,-23081.171283861553,-23477.84769270989,-22556.352324050942,-21921.093394886662,-22623.899295794883,-23182.469389733003,-22356.080693731394,-21492.58810193397,-21987.925110808028,-22694.77667746266,-21989.288567219803,-20903.61963553663,-21125.818327166835,-21967.316802420235,-21574.373134895937,-20490.112363113447,-20514.20754363627,-21435.97113322868,-21327.40871040925,-20276.92142449873,-20106.712890471565,-21081.584224889782,-21283.39812557675,-20272.428723863213,-19811.379290983594,-20632.537678782664,-20993.361889524687,-20017.752947539444,-19311.99661636312,-19998.016357185406,-20612.488164006256,-19832.63579996059,-18957.65441151314,-19451.203280830774,-20231.99441814356,-19655.31941119664,-18659.39273350152,-18925.311437286313,-19788.28993896126,-19371.899291503345,-18182.764134736557,-18039.802377200413,-18786.551807707765,-18500.874161824486,-17242.78387341307,-16854.981107113494,-17646.277564320277,-17723.011103035344,-16630.23431661538,-16130.918697228277,-16981.60373945281,-17464.580233643082,-16632.827118972196,-16043.143396752286,-16849.77315065541,-17620.21543028539,-17007.71057697661,-16309.710301126279,-16988.666890700686,-17967.472132143037,-17586.844275813615,-16760.99202167893,-17180.53426510504,-18278.80958066101,-18171.163579364253,-17322.244324951687,-17545.493548571296,-18729.75602504683,-18925.445547753043,-18107.125831499798,-18096.64286335026,-19244.38258938582,-19676.955899829376,-18887.067602523282,-18613.236381201314,-19658.31454495365,-20336.667637427767,-19672.75377187178,-19195.47697251761,-20092.810105420365,-20960.169549008555,-20409.08728946296,-19694.77024016026,-20333.35957924838,-21343.814890839447,-21031.248096376432,-20236.28595307898,-20653.70478078184,-21747.68856140239,-21655.19704284633,-20792.486762104843,-20952.212327982466,-22065.910347212597,-22205.429936102624,-21320.144393461276,-21214.800621843413,-22284.957442874605,-22681.34327904502,-21848.316114940182,-21489.21298852122,-22436.748139470594,-23050.70585616897,-22327.693978273153,-21757.41157024045,-22539.432053498276,-23361.30569711992,-22816.727795210816,-22085.155199188615,-22681.2538720672,-23669.60330839197,-23342.418473055182,-22511.872352584884,-22891.114400758077,-24001.347899597633,-23966.657992203,-23133.116737975688,-23296.820914366355,-24453.92602132869,-24679.723343816204,-23845.556240744143,-23754.361123366492,-24861.91241287141,-25351.192098998083,-24608.86831389288,-24308.684385858105,-25319.854953271744,-26033.702615940885,-25384.65266044768,-24841.57232541708,-25668.27394584107,-26559.14742459624,-26059.58593602013,-25327.432194642093,-25910.052765614128,-26926.006606341198,-26657.092768799397,-25857.97320103326,-26250.514537157364,-27391.548739856335,-27386.22902467597,-26542.87535463278,-26684.294841801508,-27846.339684288465,-28101.19427456788,-27268.12240697413,-27149.07701600516,-28249.431043795474,-28756.07803536392,-28002.757191986704,-27658.13799597478,-28650.667208512692,-29393.035697106803,-28777.200433874183,-28242.12202335859,-29084.201643967826,-30045.706635201772,-29632.95932209007,-28959.836537818497,-29595.65426059416,-30699.383401797226,-30503.470361646458,-29725.517895879497,-30112.20307495631,-31278.584155867597,-31317.632653431017,-30484.47137885945,-30598.33116511478,-31755.033940676924,-32037.448231869726,-31211.32775680158,-31065.14734806387,-32161.74628278569,-32698.61283285771,-31953.13745178431,-31573.67188616656,-32542.910580982043,-33303.11576165149,-32691.4155711431,-32113.84649441797,-32897.78922769895,-33836.51779133294,-33399.80940816515,-32662.693579518032,-33219.542589133096,-34279.23879375921,-34054.49200326109,-33211.18303670681,-33510.919929852476,-34622.38277463708,-34631.45758288593,-33737.566618629295,-33767.428549221586,-34874.935135237596,-35151.560324616476,-34305.59150047201,-34109.410239387784,-35175.20847025019,-35722.35682277165,-34978.78133997695,-34572.60543973511,-35521.235826162796,-36303.94921349874,-35712.34324125567,-35113.27178636453,-35868.827804187276,-36824.208417440466,-36414.41153459687,-35667.93032502298,-36204.036915783516,-37290.488158522625,-37115.49635118203,-36285.84430048994,-36574.94176327488,-37713.025535705754,-37776.929173103475,-36911.02259290488,-36942.18092467558,-38074.98968541499,-38403.62738414137,-37575.7187695168,-37356.89519129934,-38407.69540163224,-38969.61825723866,-38225.30516687693,-37773.41994922399,-38679.1796897864,-39461.96013235571,-38857.27838960629,-38208.27313760199,-38917.44928567997,-39864.15742208451,-39451.29835025053,-38665.187497757375,-39159.04929149739,-40248.54037148242,-40097.2637650089,-39266.002388716035,-39549.131935731406,-40726.465371425795,-40860.46407943536,-40034.857694489685,-40073.34739844172,-41231.078354248806,-41607.01234424262,-40801.611936284535,-40566.96332299272,-41622.1221234944,-42235.878674492684,-41525.942567103215,-41070.25755289287,-41979.14653767902,-42805.356419724994,-42246.45104962004,-41609.85101578844,-42329.66659422715,-43330.89063535818,-42970.93814264991,-42190.63874371514,-42667.62497039139,-43763.64275975737,-43634.71789773916,-42787.51972764966,-43026.14695145452,-44188.32590440821,-44334.6627753571,-43492.73961695905,-43488.448082023635,-44631.7845144015,-45039.167408843925,-44249.27911153783,-43994.245707302776,-45040.19558908887,-45681.914172400735,-44987.82545183009,-44509.118140830775,-45386.759386868405,-46221.59704227412,-45684.73049220211,-45031.85838840704,-45711.038495426,-46703.34419051936,-46368.60446555668,-45599.83856676085,-46050.53914195766,-47131.76007649423,-47007.037342433614,-46132.413581897454,-46305.14786304806,-47406.68653329451,-47527.095380675244,-46653.723317828575,-46571.513601721956,-47648.35359434529,-48041.09609616949,-47244.63638599353,-46956.61180694244,-47967.78237435608,-48619.31337348383,-47945.58709211196,-47457.35793797469,-48315.061427958186,-49161.67845269185,-48635.92071961412,-47961.47918241968,-48614.1724722591,-49616.49174886844,-49307.88121317401,-48530.956927652,-48970.995720743624,-50093.23210635568,-50034.84934983842,-49203.58797354555,-49401.46796720839,-50568.161972542046,-50778.96127450005,-49964.06137514846,-49917.860319359344,-51044.54470211801,-51507.896364676526,-50733.631936744685,-50420.7522178593,-51416.008343220754,-52078.469345387144,-51372.91417991092,-50805.82807133533,-51609.70856067045,-52455.45386737036,-51913.51347130698,-51179.169258972324,-51791.0259116919,-52805.50453728492,-52484.84641132908,-51633.55787200426,-52008.48603349758,-53129.89540456479,-53091.33864537939,-52234.97626006321,-52401.00501787723,-53584.55223853019,-53828.63328798214,-52990.308760441396,-52903.02519834342,-54043.254738242,-54552.427476933895,-53788.75777587388,-53462.556417293126,-54484.277008089666,-55222.868051870835,-54580.545971458676,-54040.349011462815,-54884.03795767283,-55811.30007640125,-55340.88526259486,-54625.987067936316,-55243.72222944764,-56298.14342238229,-56031.66592498612,-55197.72233935861,-55555.61847157699,-56675.19499959886,-56642.74026664976,-55758.16997983098,-55854.03661179979,-56975.8483142672,-57194.22485759555,-56315.66719003525,-56155.11460961278,-57225.87492774426,-57701.497698008745,-56897.34898774016,-56497.78920385709,-57443.08918036094,-58135.99325847546,-57447.98421239665,-56821.73303624786,-57570.29295805609,-58427.638820128304,-57890.77227005628,-57082.26496961892,-57591.50476354418,-58574.73565038868,-58252.82582674335,-57332.783321473995,-57580.15007736088,-58613.51592701864,-58503.38888208734,-57510.1220619824,-57479.09784067844,-58502.98655068714,-58633.07370341703,-57635.26947918767,-57329.60937376135,-58282.240722446535,-58668.38945965641,-57744.72597178531,-57184.83712492432,-57987.220047380935,-58558.932967058776,-57724.45293956435,-56927.59089798819,-57527.44466393527,-58272.67417581966,-57609.58732480852,-56636.63824041346,-56934.29642132478,-57573.33279530201,-56777.09660257061,-55367.774411174585,-55225.19263329419,-56046.14985539316,-55876.097783577185,-54840.49675947389,-54772.927435985504,-55816.15040494805,-56005.6708461846,-55023.60225005177,-54631.99968719479,-55487.669168432854,-55783.42745106548,-54753.03438342028,-54245.15804590679,-55193.296693956465,-55971.450325423524,-55357.42555349178,-54752.78851423127,-55550.745791285735,-56554.92026268486,-56162.82596144986,-55441.535167877104,-56014.94682013355,-57114.76440605694,-56932.418874790535,-56128.62779243324,-56504.04769230458,-57736.14290191447,-57861.715002264384,-57040.17663480958,-57132.288173709894,-58311.387397216255,-58641.008572698665,-57794.92798983193,-57577.15494360387,-58627.41871206984,-59164.32996563077,-58373.525246802004,-57893.253313690824,-58770.38046960598,-59489.95017885568,-58807.26084795724,-58097.70472022352,-58759.80809447862,-59630.14032007937,-59102.46033697848,-58186.307035244354,-58560.65405138184,-59514.89472566781,-59191.46498339951,-58185.65883465515,-58302.89373432323,-59268.46674304805,-59140.52535778587,-58045.75926610938,-57836.3010688187,-58723.508861483206,-58808.35608343555,-57708.762014956716,-57182.065508611864,-57857.535226051245,-58113.4179965756,-57055.755800694926,-56278.87621866182,-56954.83767447921,-57510.41263466032,-56593.54407710363,-55663.13036240701,-56193.134926931256,-56993.461488897985,-56369.55724591699,-55334.9620503142,-55662.97390019583,-56609.77144357818,-56225.18732848017,-55138.08788515185,-55254.518122019545,-56314.639009790306,-56271.343680780374,-55210.485185442594,-55085.71774789307,-56155.27107182397,-56409.231592325166,-55406.666446526826,-55033.213500167556,-56045.92633794861,-56598.81908879508,-55739.640383677535,-55160.841961007354,-56041.90302394665,-56814.51342278879,-56085.734794823504,-55297.36641614037,-55956.139380471635,-56918.1361100836,-56427.89529894535,-55486.86450563247,-55898.65069373258,-56963.91248272807,-56707.40386335896,-55673.25570264527,-55798.60428555063,-56900.187659285984,-56879.6240543871,-55764.450820022925,-55557.54072160015,-56504.20415451576,-56482.0312240161,-54644.02492571175,-53144.8934250943,-53668.639501171056,-54008.56483084737,-53046.59045297986,-52430.84459672506,-53412.60026843551,-54519.79393002915,-54269.230874685156,-53760.438115649005,-54494.42470007238,-55485.38929049842,-55047.18334045212,-54169.65385313676,-54678.04428077272,-55891.96752214045,-55766.70834621291,-54838.61921293965,-55104.18028881315,-56381.78365013405,-56561.64813776591,-55649.808722711656,-55656.983632681804,-56909.575391957216,-57368.70257481368,-56505.23233476071,-56220.09113074436,-57366.08742071241,-58098.867010935195,-57392.93186580323,-56929.60255498917,-57953.84889290916,-58956.54814917423,-58452.85158787389,-57811.960019106875,-58641.500311076685,-59834.68113358988,-59549.98696446264,-58761.752696246236,-59323.183813474636,-60595.95919799319,-60526.042941336986,-59609.28614250257,-59834.3235056786,-61105.26604715181,-61293.04305232085,-60353.97921252003,-60298.971569415524,-61589.44953554268,-62097.258817822796,-61277.12861026867,-61051.17482556997,-62294.110631240685,-63136.88315592804,-62486.60385448979,-62042.452340418386,-63113.525582972245,-64182.60952026958,-63739.95557307668,-63129.23885932432,-63952.9453459913,-65112.48679309926,-64759.84332082789,-63864.901824581844,-64306.326425829706,-65488.19726564852,-65336.47362428589,-64330.86864124163,-64487.733183828976,-65743.7671117505,-65933.48871868715,-64964.60765178295,-64843.1035689239,-66085.77115366116,-66640.98848593098,-65836.30333379547,-65559.8793101167,-66748.16510059418,-67554.9960201974,-66847.89858435377,-66314.69772037241,-67311.40670912346,-68335.45188134335,-67813.06926167838,-67098.30517748656,-67866.33346871537,-69060.11778832886,-68772.45083718907,-67912.89215241578,-68398.93083559643,-69678.32233647375,-69644.48179536841,-68721.93589472007,-68928.018978598,-70236.60185773396,-70486.29319504419,-69557.55586118173,-69468.03712463821,-70712.80577335427,-71235.21074476371,-70369.12535060947,-70012.3691573583,-71132.99621736958,-71907.4171075126,-71175.12925566784,-70590.58643467264,-71535.01469314274,-72541.0220075872,-71998.47811442353,-71230.89685808383,-71936.69789274906,-73104.12950564975,-72800.74927815786,-71907.975901124,-72347.16532792633,-73603.19925584785,-73568.0623135641,-72618.78372654722,-72777.23524299088,-74065.32157246133,-74320.6455493743,-73379.30183163904,-73252.00864696606,-74476.7277809057,-75013.32611004426,-74150.81699500287,-73767.84220550564,-74880.15441657953,-75690.62867052897,-74981.00548756188,-74379.02830589155,-75301.64126177327,-76327.42987006067,-75815.01612842275,-75048.0160174389,-75750.59840090256,-76945.54501122773,-76678.53107196464,-75785.4894739973,-76214.6876710281,-77499.95768069717,-77511.2006081582,-76577.79175970456,-76731.99644470173,-78042.81449828322,-78343.17724027362,-77420.4748774141,-77283.97277402553,-78519.13017262581,-79089.94902252544,-78238.4146140116,-77832.99867308125,-78922.04271817717,-79731.26527443712,-79003.80539939468,-78357.88468812522,-79247.08178604624,-80266.61190588617,-79740.40713791933,-78924.59081704507,-79578.51345282955,-80757.81384203599,-80483.6473445472,-79560.07326365392,-79947.80897472013,-81218.01390862631,-81226.14994360805,-80267.97536229795,-80374.90610777213,-81653.69411154916,-81949.98883604871,-81013.36133639351,-80848.65133150236,-82082.64643939096,-82689.40689437473,-81866.99680888615,-81464.03955984587,-82569.71330281656,-83430.5460370238,-82750.58361894889,-82123.32661429961,-83026.65001471639,-84095.845710736,-83625.1850277406,-82836.61548335737,-83507.16781701658,-84736.42435508066,-84519.23245420844,-83619.64179511569,-84012.78662834008,-85311.40062944897,-85357.93696140492,-84404.81387434172,-84499.27234640984,-85792.63368757174,-86116.55516821804,-85180.7099796188,-84988.86495695889,-86199.92717503634,-86804.60891778576,-85960.07060528644,-85510.2864516123,-86579.12451972062,-87439.9349021834,-86762.92291437661,-86109.64847918136,-86990.9330595652,-88077.20548834867,-87620.87227354912,-86813.1919876566,-87451.44605057788,-88676.16518451754,-88473.59132451909,-87569.10563339063,-87944.2573123285,-89263.27845612509,-89356.37347178144,-88425.98210882928,-88515.52319711723,-89820.79801807381,-90184.14797593928,-89260.12686015689,-89052.99324428955,-90257.39464251931,-90874.57101041925,-90030.90441595369,-89546.22918918481,-90587.06052149064,-91457.6833197693,-90787.46626227692,-90106.34155349035,-90947.70591827702,-92020.67905910958,-91560.52369600818,-90722.69090684544,-91308.88775693033,-92524.50973087666,-92315.61032719736,-91365.14709772433,-91664.72752865881,-92925.16475023804,-92989.94010566952,-92017.99684977495,-92037.97930931799,-93296.42722564068,-93653.89867471441,-92717.47234075933,-92464.6294074809,-93634.63147099393,-94264.50362974449,-93426.62613709286,-92914.01122975483,-93924.51124483482,-94797.6821419814,-94130.77314266839,-93421.86521552387,-94229.81372234985,-95305.78199693943,-94861.25050321229,-94009.47022550945,-94576.0198922181,-95794.07820631006,-95620.2710414256,-94694.97587620925,-94997.66319962301,-96282.88850580317,-96397.30708566989,-95455.40457432326,-95474.96235072165,-96739.71345898074,-97143.85535047714,-96250.83610425427,-96005.74922630182,-97183.21677246294,-97863.0003765822,-97083.10330904763,-96600.37268404635,-97632.33037380343,-98562.52057105549,-97958.15175272844,-97276.89293347513,-98094.43033867245,-99215.68324752848,-98835.03303945459,-98019.7308087028,-98588.04626322344,-99829.01511538209,-99701.20784058665,-98788.27319005408,-99070.17339112442,-100355.86808393814,-100504.14955665465,-99569.77958318945,-99558.82722840634,-100801.91949628825,-101215.9408588339,-100312.88567935058,-100023.2070712098,-101160.46382909582,-101839.97921228161,-101058.76339182418,-100536.60428960375,-101520.6621909931,-102441.66582127403,-101841.9908692826,-101126.13154961247,-101888.88482914983,-102989.46237438469,-102605.61586685371,-101752.67329843919,-102264.86352263254,-103486.18519141499,-103371.65485282599,-102446.80672249875,-102689.4349085611,-103958.76812443354,-104126.13798691488,-103195.6572169849,-103164.11890555847,-104403.32196990514,-104855.07307709135,-103983.13152588982,-103682.16528679912,-104813.3870736822,-105520.93154441495,-104760.65930851214,-104226.87729917494,-105208.14123250738,-106179.32452909047,-105547.03838193875,-104541.36634366112,-104873.42385928916,-105626.29766777727,-105058.18337895673,-104130.4295218503,-104588.32735876172,-105794.53924829236,-105694.55989534377,-104759.18409337809,-104967.18942727917,-106223.96096276773,-106414.57663948258,-105493.23773303482,-105443.46039813285,-106682.81992469072,-107162.01897406805,-106310.70808299877,-106005.45030897263,-107140.56129939096,-107888.42831712107,-107157.21334901016,-106614.55769712421,-107551.47576945732,-108500.59789426302,-107933.78000662089,-107189.6010267259,-107903.00165450593,-109022.35466508326,-108691.14651574452,-107823.42944424505,-108274.01826071957,-109498.11154581446,-109450.21175744674,-108544.13909246196,-108746.8247111827,-110010.79350838585,-110235.24972620604,-109319.67756982775,-109222.00044655806,-110426.37949304337,-110934.59110672369,-110081.76029703145,-109692.50466734228,-110755.66539235895,-111541.77624485211,-110863.69137331145,-110277.00278484855,-111162.46714144554,-112156.06923771731,-111674.72442087227,-110909.49009770037,-111549.24172750018,-112653.14968265888,-112313.85020182731,-111454.93971764324,-111832.5500884712,-113024.85919295064,-112999.89229439406,-112055.93342255753,-112136.57851655228,-113348.1548247522,-113614.40880470381,-112692.66756685586,-112495.34636680441,-113608.95497905673,-114109.05290949976,-113263.75463768897,-112839.60793490506,-113844.96704876031,-114623.43360464975,-113968.57219559816,-113372.3617639973,-114209.38989035964,-115194.40891676056,-114745.51883286463,-113990.07457376416,-114587.0449646765,-115700.16183855079,-115489.96603369308,-114627.32280818497,-114954.2841260772,-116131.55050653822,-116161.3677336416,-115273.44468515452,-115361.06352341933,-116560.12285472428,-116878.79167542359,-116025.75970003125,-115850.25380256819,-116969.67386837887,-117531.8872966632,-116756.39352278633,-116339.04175031684,-117331.10157622119,-118144.30274299417,-117563.8949947232,-116978.0110690607,-117751.15790976977,-118714.7192614936,-118277.07210505869,-117509.02146208542,-118067.12216938999,-119181.66955490943,-119004.50962835665,-118171.79538867419,-118481.63527031367,-119641.93667673311,-119700.94528209511,-118821.27002731206,-118857.14457716282,-119993.75313445964,-120317.00406277229,-119501.36655585367,-119313.88012336257,-120444.8783928011,-121124.840810876,-120518.97442567044,-120171.80713079062,-121107.67467113431,-121888.80108461394,-121332.55557209917,-120754.11477734028,-121492.66111763252,-122464.33615259363,-122147.16489877283,-121501.19948401446,-122088.73743876666,-123233.37027232294,-123127.49005883814,-122396.34214596059,-122733.719376769,-123881.92848943813,-124027.50540107554,-123314.48475295125,-123442.40378646896,-124605.92384408998,-124992.31845048886,-124297.76034328465,-124241.99274086866,-125391.52060646065,-126051.38880627023,-125460.1628136829,-125105.10535301035,-126008.83108482732,-126776.16647197801,-126219.0939449184,-125580.77282676374,-126094.32650736887,-126545.38471047697,-125623.64347262902,-124418.68328078787,-124432.85428677253,-125165.32095257295,-124854.58700115526,-124018.11766840432,-124308.13155271191,-125439.9121332064,-125576.57069880614,-124839.3654631812,-124995.58180517935,-126374.88560377188,-126805.179036281,-126054.0039603715,-125890.54565316984,-126950.95711361851,-127552.37550167747,-126906.85712180819,-126539.79677436315,-127467.79650065859,-128277.46609180763,-127786.62178356908,-127271.41407387426,-128060.16243221312,-129064.69453152354,-128760.10730983107,-128097.17692103112,-128644.57114274158,-129743.31584493112,-129678.00404763271,-129003.56251043828,-129378.62478239833,-130568.54225022106,-130721.78581020664,-129948.28134158628,-130016.47651391942,-131156.32607416227,-131544.84409628442,-130811.48336070578,-130661.57021064404,-131806.20304420032,-132474.29668596946,-131811.79098031414,-131378.502414048,-132234.90950285312,-133007.56460518416,-132461.19856371864,-131803.9231662659,-132264.5702677453,-133173.41454904253,-132870.0566732951,-132234.73068889746,-132807.96352719827,-133787.90870760783,-133463.13786067223,-132461.77970907447,-132577.82996628643,-133634.1287057553,-133732.5210848476,-132886.19463279186,-132858.0090830337,-133954.87623868897,-134420.91011058213,-133731.0235179691,-133496.37490467727,-134423.3240989833,-134903.7524943057,-134132.28203443077,-133623.75749632806,-134454.30361679837,-135237.59814949014,-134697.8929278723,-134072.66993196844,-134744.27279761707,-135702.80500683846,-135370.07693887674,-134630.14479042825,-135096.84921465509,-136174.00213170078,-136187.65904756298,-135653.7652795035,-136028.84990320803,-137131.57321591058,-137198.80726323216,-136337.90747379154,-136289.51594704582,-137341.38904111256,-137696.93824016312,-136913.19667258224,-136649.46843975407,-137647.8985128282,-138383.44971936342,-137976.0221214321,-137645.12689651572,-138463.938351147,-139189.6547901219,-138627.24019613746,-137965.47209804918,-138645.38981263517,-139846.4608009411,-139594.66839965206,-138760.61305530227,-139004.9176221988,-139923.529615823,-139803.59015507583,-139080.0194835686,-139368.37933878653,-140450.74021229031,-140508.8547478741,-139590.26510599436,-139487.93881987798,-140541.8235709457,-140933.64965124722,-140148.54462725457,-139825.56191987538,-140740.217654731,-141297.42429225735,-140571.7749085158,-140046.4642103272,-140884.92284833465,-141765.4698211515,-141320.67010649087,-140692.80960474128,-141302.0063998707,-142225.84870169745,-141902.30720070688,-141130.74733385412,-141525.59089965714,-142571.78665063222,-142521.5399290967,-141750.22593143297,-141943.23324480455,-143030.08681894385,-143223.29529801552,-142460.631425456,-142424.5110064162,-143466.32581547808,-143889.9584281395,-143200.8988500713,-142967.5913414468,-143937.5676438293,-144616.52423340373,-144079.27770367597,-143684.47884136188,-144515.38258974344,-145361.57493133246,-144970.77703127588,-144424.3886380659,-145059.491105019,-146026.3158114333,-145834.6272509846,-145211.70648475963,-145664.7763448687,-146752.5910440196,-146801.898992288,-146159.86748455378,-146432.82698784198,-147566.93214975978,-147848.51942640776,-147180.60459859428,-147198.62010462524,-148211.24353542848,-148571.4195455813,-147819.0374754712,-147559.22079792272,-148522.3574665019,-149331.71413322855,-149253.237158446,-149418.08127380387,-150558.780200336,-151483.91890334117,-151197.28013244632,-150667.54378885555,-151200.63289411462,-152152.92896663296,-152113.43343418045,-151539.55239529043,-151900.8012891771,-152836.333553354,-152847.08474243697,-152336.5485473333,-152640.64403064776,-153667.6172813913,-153862.18921687474,-153188.55234248072,-153022.6129916445,-153676.93795882916,-154051.28497496666,-153468.12796212768,-153221.9682004414,-154024.68639906484,-154608.0445776039,-154172.1408572365,-153850.34279231343,-154563.92223404913,-155297.28296962773,-154963.10203827644,-154522.19152715107,-155185.83717177357,-156216.63257081897,-156236.83854780658,-155833.34485689938,-156324.16681339347,-157360.2372241303,-157480.60136802215,-156923.41708224025,-157038.46151095172,-157838.43044500714,-157883.98330020707,-157086.1377818749,-156857.21121516364,-157592.40479378757,-157893.75101253405,-157263.18594970537,-156951.75909420958,-157620.27741912336,-158047.41925566428,-157445.19620480493,-156908.21789601064,-157357.4879595623,-157865.67722149816,-157380.73377379583,-156750.258117945,-157099.30295935905,-157764.40146737118,-157166.96168982526,-155756.23133852857,-155109.70713015881,-155076.0454030091,-154190.31282547867,-153190.87692390406,-153259.0273927483,-153989.5494567811,-154060.873873338,-153689.18671479067,-153826.51583272408,-154614.03484511792,-154821.7496063411,-154118.09433914357,-153443.85396764922,-152525.71136065858,-149667.4820384362,-145269.86572383234,-142539.57778687213,-142143.30370942398,-142373.28080812466,-142118.06858993394,-141893.92529653612,-142468.8345156711,-143321.6206218744,-143282.99680745564,-142857.73251744898,-142986.4562137671,-143237.15337957782,-142255.80003926755,-139981.86766885134,-137673.98299860753,-136010.52147275466,-134322.56243497878,-132662.90070568334,-131459.6839499097,-130385.54851836545,-128829.19655194243,-127111.19676961862,-126138.51590615702,-126180.5818892219,-126578.50999575973,-126451.28386632013,-125990.6367648407,-125369.50413817217,-124420.76199302221,-123017.09479297338,-121242.14276577745,-119126.617208316,-116554.60197384382,-113781.04105961813,-111225.56611604287,-108855.9459276135,-106818.07033038979,-104596.66455944355,-102293.85373519108,-101072.06267977509,-100566.44386845159,-100119.81131074564,-99620.47333961408,-99247.31096593273,-99089.30648437816,-98782.57349521799,-98418.91061293014,-98255.5864161952,-98276.12766934963,-98178.74111875787,-97937.00700247372,-97899.16549911088,-98094.16211773899,-98175.20954313393,-98106.54498416722,-98429.59474677978,-99238.19145419497,-99899.53486913859,-100043.12247551949,-100198.04241633922,-100715.08296907938,-101390.88796268559,-101675.09039343482,-101817.80628178196,-102198.25532415573,-102798.13144184726,-103098.00244545967,-103289.55689544165,-103651.45398991753,-104095.89607666685,-104319.65939040892,-104421.8962695475,-104616.37879805313,-104893.87570546576,-105092.13567878434,-105280.42677407585,-105595.25109472884,-105963.22786369656,-106265.5799109435,-106545.87078641306,-106956.91936694615,-107220.33467535194,-107422.12622429446,-107575.16861857995,-107767.05834472875,-108112.52690702998,-108542.01567673871,-108788.42130761401,-108981.9203593636,-109216.83719358889,-109523.36901704897,-109661.0781146381,-109839.80266330275,-110224.25266793402,-110720.70726403085,-110865.85949252361,-110755.35246793658,-110729.5809065796,-110808.84019241812,-110695.6733102409,-110337.06192219997,-109931.78009173633,-109431.19042291527,-108943.22948971146,-108895.57557053276,-109061.00083124648,-109356.49089294564,-109657.881815181,-109729.0944730156,-109902.8345826667,-110245.28565946648,-110450.9217084553,-109049.22146191854,-106520.03216982272,-105283.73483225523,-103278.78335461419,-101320.54702288474,-99547.98663234552,-98219.30953494424,-97210.55295593178,-96604.9994951486,-96115.29512587728,-95794.34642724352,-95811.46786349629,-95968.26535085027,-96310.96229683905,-96920.74023732427,-97390.21627786354,-97816.95578300426,-98678.16849686725,-100094.75500521123,-101853.01027929907,-103683.90872286663,-105148.46207481172,-106569.34011809113,-107987.35713808026,-108975.7736296384,-109472.67526062432,-109759.98458385284,-110053.64180250667,-110391.73428913765,-110493.25591245365,-110471.55236858755,-110499.06736601202,-110728.30685714565,-110925.69511243048,-111042.6617911651,-111242.68755229564,-111619.91794346785,-111986.88888393508,-112402.09488893687,-113060.91255675704,-113822.77176651619,-114402.48661070903,-114586.8437989764,-114668.09239007144,-114935.62041945702,-115654.38546590632,-116073.14539827651,-116025.64794130897,-115944.68992289185,-116282.71535428947,-116865.69355317278,-117409.82442019277,-118010.7510698737,-118761.56851787193,-119107.0147284287,-119240.29818061569,-119694.23975875853,-120263.9857249243,-120655.85650871474,-120910.4428780607,-121229.75989934921,-121672.32443956428,-121978.36452464636,-122082.68011601927,-122265.38327519695,-122576.18428184799,-122762.50842362744,-122540.28738025278,-122343.03323543469,-122411.07194555664,-122803.85915086976,-122822.96989237904,-122791.36452571924,-122934.34863499984,-123190.92430960231,-123278.11846472246,-123386.68088754188,-123652.66664656004,-124028.69004353166,-124229.90044711834,-124416.00107145323,-124848.64143713015,-125494.45038967734,-125955.54452604587,-126266.59140188592,-126671.26973524925,-127183.63877339826,-127566.50180417321,-127771.1096729171,-128068.83490906178,-128494.99326884667,-128879.35386650013,-129057.49726980893,-129299.27608958198,-129664.57064921506,-130034.31320599475,-130186.59564096876,-130386.04025674346,-130718.12012411597,-131087.32623902874,-131226.28703430737,-131359.01169288298,-131634.67575725028,-132008.6651454765,-132155.22553386993,-132201.4936448924,-132357.3970624682,-132635.22924604765,-132785.00828564266,-132839.79241130262,-133037.51594275428,-133369.8193275713,-133545.19111456766,-133339.26449290093,-133426.995089888,-133749.35194842244,-134038.67292865194,-134141.2227322129,-134332.5536647503,-134680.0338840525,-135053.01744377823,-135222.84599814966,-135441.84839032273,-135815.48015063765,-136261.0174728653,-136482.6126673952,-136691.80264375242,-137058.41595630837,-137541.03482258736,-137818.5764334889,-138022.31258419904,-138376.02894020427,-138869.80132696647,-139200.0930547825,-139395.29083911073,-139709.3328487078,-140164.2802553511,-140514.88971887706,-140666.4568980285,-140881.4583279441,-141211.5265383156,-141486.16242243798,-141531.6035189156,-141601.85505173865,-141752.9528442565,-141896.80867157088,-141812.1179118297,-141790.86140285272,-141983.04170167944,-142216.12569285938,-142108.97142994063,-141964.98149215957,-141922.35671548327,-142156.73710784165,-142400.48288112675,-142560.45431619338,-142832.13977004765,-143180.71522482816,-143363.8430671505,-143398.8906024564,-143573.34596793007,-143933.54432982736,-144234.95760380718,-144355.4111546768,-144581.16377367542,-144949.58757753225,-145261.0367847725,-145304.71209343817,-145425.32210651902,-145731.2951363677,-146091.00175988697,-146245.04998267294,-146439.5101594341,-146889.65194101955,-147410.17936589473,-147510.13636709886,-147457.11802925088,-147766.84615216806,-148355.79226682094,-148450.65307028926,-148095.39444391662,-148096.84730730622,-148802.46952801582,-149272.482010422,-148838.1876156554,-148451.48008483413,-149062.77794394232,-149829.75570318173,-149698.55096322906,-149480.35323385635,-150219.8159956713,-151240.86603413417,-151213.35103670968,-150783.1470111784,-151228.192595028,-152281.56325597325,-152549.9630033926,-152449.22369113253,-153211.79815671424,-154133.15941490643,-154375.07234514624,-154459.83016012076,-154913.57057256348,-156038.80209193256,-156716.21641113955,-156419.18407907296,-156453.20343413396,-157539.8334908287,-158421.90038226848,-158208.15065004237,-158089.64170094035,-159110.93760859224,-160278.41392498184,-160339.61300130046,-160173.78540918653,-160996.4413638641,-162213.15857328876,-162384.2835288386,-162115.83907793034,-162774.4108765615,-164058.20567109654,-164436.39718728032,-164075.30475560486,-164434.7655099351,-165604.20877983677,-166049.90256427557,-165583.75693366016,-165641.22326865475,-166674.61147005696,-167305.981195686,-166905.4379350469,-166825.5304486192,-167933.21584859086,-168934.03755832167,-168813.71811791876,-168698.2713578071,-169653.8978402493,-170729.93317007224,-170647.83521268787,-170259.51835626585,-170825.93391250778,-171819.82658145746,-171750.82674632393,-171062.66123803394,-171313.02312767782,-172316.70586069894,-172623.61766381474,-172397.3956581826,-172936.9220658448,-174331.73797508932,-175004.4137244718,-174794.7096579921,-175059.89075420986,-176304.72645815928,-177165.96152376672,-177008.40407710127,-177010.70630678014,-178082.5842121344,-179300.32960180397,-179407.1932920448,-179429.52268475565,-180524.5569973656,-181777.55108804122,-181880.54792649127,-181647.08395565557,-182406.41741829127,-183616.6526218239,-183782.56962091563,-183387.2790202235,-183890.7520640793,-185095.80166289827,-185415.07398069787,-184947.40843145948,-185193.3670274457,-186367.1912392606,-186876.6098471415,-186424.255242855,-186482.83916507236,-187500.02235174447,-187500.02235174447,-187500.02235174447,-187500.02235174447,-187500.02235174447,-187500.02235174447,-187500.02235174447,-187500.02235174447,-187500.02235174447,-187500.02235174447,-187500.02235174447,-187500.02235174447,-187500.02235174447,-187500.02235174447,-187500.02235174447,-187500.02235174447,-187500.02235174447,-187500.02235174447,-187500.02235174447,-187500.02235174447,-187500.02235174447,-187500.02235174447,-187500.02235174447,-187500.02235174447,-187500.02235174447,-187500.02235174447,-187500.02235174447,-187500.02235174447,-187500.02235174447,-187500.02235174447,-187500.02235174447,-187500.02235174447,-187500.02235174447,-187500.02235174447,-187500.02235174447,-187500.02235174447,-187500.02235174447,-187500.02235174447,-187500.02235174447,-187500.02235174447,-187500.02235174447,-187500.02235174447,-187500.02235174447,-187500.02235174447,-187500.02235174447,-187500.02235174447,-187500.02235174447,-187500.02235174447,-187500.02235174447,-187500.02235174447,-187500.02235174447,-187500.02235174447,-187500.02235174447,-187500.02235174447,-187500.02235174447,-187500.02235174447,-187500.02235174447,-187500.02235174447,-187500.02235174447,-187500.02235174447,-187500.02235174447,-187500.02235174447,-187500.02235174447,-187500.02235174447,-187500.02235174447,-187500.02235174447,-187500.02235174447,-187500.02235174447,-187500.02235174447,-187500.02235174447,-187500.02235174447,-187500.02235174447,-187500.02235174447,-187500.02235174447,-187500.02235174447,-187500.02235174447,-187500.02235174447,-187500.02235174447,-187500.02235174447,-187500.02235174447,-187500.02235174447,-187500.02235174447,-187500.02235174447,-187500.02235174447,-187500.02235174447,-187500.02235174447,-187500.02235174447,-187500.02235174447,-187500.02235174447,-187500.02235174447,-187500.02235174447,-187500.02235174447,-187500.02235174447,-187500.02235174447,-187500.02235174447,-187500.02235174447,-187500.02235174447,-187500.02235174447,-187500.02235174447,-187500.02235174447,-187500.02235174447,-187500.02235174447,-187500.02235174447,-187500.02235174447,-187500.02235174447,-187500.02235174447,-187500.02235174447,-187500.02235174447,-187500.02235174447,-187500.02235174447,-187500.02235174447,-187500.02235174447,-187500.02235174447,-187500.02235174447,-187500.02235174447,-187500.02235174447,-187500.02235174447,-187500.02235174447,-187500.02235174447,-187500.02235174447,-187500.02235174447,-187500.02235174447,-187500.02235174447,-187500.02235174447,-187500.02235174447,-187500.02235174447,-187500.02235174447,-187500.02235174447,-187500.02235174447,-187500.02235174447,-187500.02235174447,-187500.02235174447,-187500.02235174447,-187500.02235174447,-187500.02235174447,-187500.02235174447,-187500.02235174447,-187500.02235174447,-187500.02235174447,-187500.02235174447,-187500.02235174447,-187500.02235174447,-187500.02235174447,-187500.02235174447,-187500.02235174447,-187500.02235174447,-187500.02235174447,-187500.02235174447,-187500.02235174447,-187500.02235174447,-187500.02235174447,-187500.02235174447,-187500.02235174447,-187500.02235174447,-187500.02235174447,-187500.02235174447,-187500.02235174447,-187500.02235174447,-187500.02235174447,-187500.02235174447,-187500.02235174447,-187500.02235174447,-187500.02235174447,-187500.02235174447,-187500.02235174447,-187500.02235174447,-187500.02235174447,-187500.02235174447,-187500.02235174447,-187500.02235174447,-187500.02235174447,-187500.02235174447,-187500.02235174447,-187500.02235174447,-187500.02235174447,-187500.02235174447,-187500.02235174447,-187500.02235174447,-187500.02235174447,-187500.02235174447,-187500.02235174447,-187500.02235174447,-187500.02235174447,-187500.02235174447,-187500.02235174447,-187500.02235174447,-187500.02235174447,-187500.02235174447,-187500.02235174447,-187500.02235174447,-187500.02235174447,-187500.02235174447,-187500.02235174447,-187500.02235174447,-187500.02235174447,-187500.02235174447,-187500.02235174447,-187500.02235174447,-187500.02235174447,-187500.02235174447,-187500.02235174447,-187500.02235174447,-187500.02235174447,-187500.02235174447,-187500.02235174447,-187500.02235174447,-187500.02235174447,-187500.02235174447,-187500.02235174447,-187500.02235174447,-187500.02235174447,-187500.02235174447,-187500.02235174447,-187500.02235174447,-187500.02235174447,-187500.02235174447,-187500.02235174447,-187500.02235174447,-187500.02235174447,-187500.02235174447,-187500.02235174447,-187500.02235174447,-187500.02235174447,-187500.02235174447,-187500.02235174447,-187500.02235174447,-187500.02235174447,-187500.02235174447,-187500.02235174447,-187500.02235174447,-187500.02235174447,-187500.02235174447,-187500.02235174447,-187500.02235174447,-187500.02235174447,-187500.02235174447,-187500.02235174447,-187500.02235174447,-187500.02235174447,-187500.02235174447,-187500.02235174447,-187500.02235174447,-187500.02235174447,-187500.02235174447,-187500.02235174447,-187500.02235174447,-187500.02235174447,-187500.02235174447,-187500.02235174447,-187500.02235174447,-187500.02235174447,-187500.02235174447,-187500.02235174447,-187500.02235174447,-187500.02235174447,-187500.02235174447,-187500.02235174447,-187500.02235174447,-187500.02235174447,-187500.02235174447,-187500.02235174447,-187500.02235174447,-187500.02235174447,-187500.02235174447,-187500.02235174447,-187500.02235174447,-187500.02235174447,-187500.02235174447,-187500.02235174447,-187500.02235174447,-187500.02235174447,-187500.02235174447,-187500.02235174447,-187500.02235174447,-187500.02235174447,-187500.02235174447,-187500.02235174447,-187500.02235174447,-187500.02235174447,-187500.02235174447,-187500.02235174447,-187500.02235174447,-187500.02235174447,-187500.02235174447,-187500.02235174447,-187500.02235174447,-187500.02235174447,-187500.02235174447,-187500.02235174447,-187500.02235174447,-187500.02235174447,-187500.02235174447,-187500.02235174447,-187500.02235174447,-187500.02235174447,-187500.02235174447,-187500.02235174447,-187500.02235174447,-187500.02235174447,-187500.02235174447,-187500.02235174447,-187500.02235174447,-187500.02235174447,-187500.02235174447,-187500.02235174447,-187500.02235174447,-187500.02235174447,-187500.02235174447,-187500.02235174447,-187500.02235174447,-187500.02235174447,-187500.02235174447,-187500.02235174447,-187500.02235174447,-187500.02235174447,-187500.02235174447,-187500.02235174447,-187500.02235174447,-187500.02235174447,-187500.02235174447,-187500.02235174447,-187500.02235174447,-187500.02235174447,-187500.02235174447,-187500.02235174447,-187500.02235174447,-187500.02235174447,-187500.02235174447,-187500.02235174447,-187500.02235174447,-187500.02235174447,-187500.02235174447,-187500.02235174447,-187500.02235174447,-187500.02235174447,-187500.02235174447,-187500.02235174447,-187500.02235174447,-187500.02235174447,-187500.02235174447,-187500.02235174447,-187500.02235174447,-187500.02235174447,-187500.02235174447,-187500.02235174447,-187500.02235174447,-187500.02235174447,-187500.02235174447,-187500.02235174447,-187500.02235174447,-187500.02235174447,-187500.02235174447,-187500.02235174447,-187500.02235174447,-187500.02235174447,-187500.02235174447,-187500.02235174447,-187500.02235174447,-187500.02235174447,-187500.02235174447,-187500.02235174447,-187500.02235174447,-187500.02235174447,-187500.02235174447,-187500.02235174447,-187500.02235174447,-187500.02235174447,-187500.02235174447,-187500.02235174447,-187500.02235174447,-187500.02235174447,-187500.02235174447,-187500.02235174447,-187500.02235174447,-187500.02235174447,-187500.02235174447,-187500.02235174447,-187500.02235174447,-187500.02235174447,-187500.02235174447,-187500.02235174447,-187500.02235174447,-187500.02235174447,-187500.02235174447,-187500.02235174447,-187500.02235174447,-187500.02235174447,-187500.02235174447,-187500.02235174447,-187500.02235174447,-187500.02235174447,-187500.02235174447,-187500.02235174447,-187500.02235174447,-187500.02235174447,-187500.02235174447,-187500.02235174447,-187500.02235174447,-187500.02235174447,-187500.02235174447,-187500.02235174447,-187500.02235174447,-187500.02235174447,-187500.02235174447,-187500.02235174447,-187500.02235174447,-187500.02235174447,-187500.02235174447,-187500.02235174447,-187500.02235174447,-187500.02235174447,-187500.02235174447,-187500.02235174447,-187500.02235174447,-187500.02235174447,-187500.02235174447,-187500.02235174447,-187500.02235174447,-187500.02235174447,-187500.02235174447,-187500.02235174447,-187500.02235174447,-187500.02235174447,-187500.02235174447,-187500.02235174447,-187500.02235174447,-187500.02235174447,-187500.02235174447,-187500.02235174447,-187500.02235174447,-187500.02235174447,-187500.02235174447,-187500.02235174447,-187500.02235174447,-187500.02235174447,-187500.02235174447,-187500.02235174447,-187500.02235174447,-187500.02235174447,-187500.02235174447,-187500.02235174447,-187500.02235174447,-187500.02235174447,-187500.02235174447,-187500.02235174447,-187500.02235174447,-187500.02235174447,-187500.02235174447,-187500.02235174447,-187500.02235174447,-187500.02235174447,-187500.02235174447,-187500.02235174447,-187500.02235174447,-187500.02235174447,-187500.02235174447,-187500.02235174447,-187500.02235174447,-187500.02235174447,-187500.02235174447,-187500.02235174447,-187500.02235174447,-187500.02235174447,-187500.02235174447,-187500.02235174447,-187500.02235174447,-187500.02235174447,-187500.02235174447,-187500.02235174447,-187500.02235174447,-187500.02235174447,-187500.02235174447,-187500.02235174447,-187500.02235174447,-187500.02235174447,-187500.02235174447,-187500.02235174447,-187500.02235174447,-187500.02235174447,-187500.02235174447,-187500.02235174447,-187500.02235174447,-187500.02235174447,-187500.02235174447,-187500.02235174447,-187500.02235174447,-187500.02235174447,-187500.02235174447,-187500.02235174447,-187500.02235174447,-187500.02235174447,-187500.02235174447,-187500.02235174447,-187500.02235174447,-187500.02235174447,-187500.02235174447,-187500.02235174447,-187500.02235174447,-187500.02235174447,-187500.02235174447,-187500.02235174447,-187500.02235174447,-187500.02235174447,-187500.02235174447,-187500.02235174447,-187500.02235174447,-187500.02235174447,-187500.02235174447,-187500.02235174447,-187500.02235174447,-187500.02235174447,-187500.02235174447,-187500.02235174447,-187500.02235174447,-187500.02235174447,-187500.02235174447,-187500.02235174447,-187500.02235174447,-187500.02235174447,-187500.02235174447,-187500.02235174447,-187500.02235174447,-187500.02235174447,-187500.02235174447,-187500.02235174447,-187500.02235174447,-187500.02235174447,-187500.02235174447,-187500.02235174447,-187500.02235174447,-187500.02235174447,-187500.02235174447,-187500.02235174447,-187500.02235174447,-187500.02235174447,-187500.02235174447,-187500.02235174447,-187500.02235174447,-187500.02235174447,-187500.02235174447,-187500.02235174447,-187500.02235174447,-187500.02235174447,-187500.02235174447,-187500.02235174447,-187500.02235174447,-187500.02235174447,-187500.02235174447,-187500.02235174447,-187500.02235174447,-187500.02235174447,-187500.02235174447,-187500.02235174447,-187500.02235174447,-187500.02235174447,-187500.02235174447,-187500.02235174447,-187500.02235174447,-187500.02235174447,-187500.02235174447,-187500.02235174447,-187500.02235174447,-187500.02235174447,-187500.02235174447,-187500.02235174447,-187500.02235174447,-187500.02235174447,-187500.02235174447,-187500.02235174447,-187500.02235174447,-187500.02235174447,-187500.02235174447,-187500.02235174447,-187500.02235174447,-187500.02235174447,-187500.02235174447,-187500.02235174447,-187500.02235174447,-187500.02235174447,-187500.02235174447,-187500.02235174447,-187500.02235174447,-187500.02235174447,-187500.02235174447,-187500.02235174447,-187500.02235174447,-187500.02235174447,-187500.02235174447,-187500.02235174447,-187500.02235174447,-187500.02235174447,-187500.02235174447,-187500.02235174447,-187500.02235174447,-187500.02235174447,-187500.02235174447,-187500.02235174447,-187500.02235174447,-187500.02235174447,-187500.02235174447,-187500.02235174447,-187500.02235174447,-187500.02235174447,-187500.02235174447,-187500.02235174447,-187500.02235174447,-187500.02235174447,-187500.02235174447,-187500.02235174447,-187500.02235174447,-187500.02235174447,-187500.02235174447,-187500.02235174447,-187500.02235174447,-187500.02235174447,-187500.02235174447,-187500.02235174447,-187500.02235174447,-187500.02235174447,-187500.02235174447,-187500.02235174447,-187500.02235174447,-187500.02235174447,-187500.02235174447,-187500.02235174447,-187500.02235174447,-187500.02235174447,-187500.02235174447,-187500.02235174447,-187500.02235174447,-187500.02235174447,-187500.02235174447,-187500.02235174447,-187500.02235174447,-187500.02235174447,-187500.02235174447,-187500.02235174447,-187500.02235174447,-187500.02235174447,-187500.02235174447,-187500.02235174447,-187500.02235174447,-187500.02235174447,-187500.02235174447,-187500.02235174447,-187500.02235174447,-187500.02235174447,-187500.02235174447,-187500.02235174447,-187500.02235174447,-187500.02235174447,-187500.02235174447,-187500.02235174447,-187500.02235174447,-187500.02235174447,-187500.02235174447,-187500.02235174447,-187500.02235174447,-187500.02235174447,-187500.02235174447,-187500.02235174447,-187500.02235174447,-187500.02235174447,-187500.02235174447,-187500.02235174447,-187500.02235174447,-187500.02235174447,-187500.02235174447,-187500.02235174447,-187500.02235174447,-187500.02235174447,-187500.02235174447,-187500.02235174447,-187500.02235174447,-187500.02235174447,-187500.02235174447,-187500.02235174447,-187500.02235174447,-187500.02235174447,-187500.02235174447,-187500.02235174447,-187500.02235174447,-187500.02235174447,-187500.02235174447,-187500.02235174447,-187500.02235174447,-187500.02235174447,-187500.02235174447,-187500.02235174447,-187500.02235174447,-187500.02235174447,-187500.02235174447,-187500.02235174447,-187500.02235174447,-187500.02235174447,-187500.02235174447,-187500.02235174447,-187500.02235174447,-187500.02235174447,-187500.02235174447,-187500.02235174447,-187500.02235174447,-187500.02235174447,-187500.02235174447,-187500.02235174447,-187500.02235174447,-187500.02235174447,-187500.02235174447,-187500.02235174447,-187500.02235174447,-187500.02235174447,-187500.02235174447,-187500.02235174447,-187500.02235174447,-187500.02235174447,-187500.02235174447,-187500.02235174447,-187500.02235174447,-187500.02235174447,-187500.02235174447,-187500.02235174447,-187500.02235174447,-187500.02235174447,-187500.02235174447,-187500.02235174447,-187500.02235174447,-187500.02235174447,-187500.02235174447,-187500.02235174447,-187500.02235174447,-187500.02235174447,-187500.02235174447,-187500.02235174447,-187500.02235174447,-187500.02235174447,-187500.02235174447,-187500.02235174447,-187500.02235174447,-187500.02235174447,-187500.02235174447,-187500.02235174447,-187500.02235174447,-187500.02235174447,-187500.02235174447,-187500.02235174447,-187500.02235174447,-187500.02235174447,-187500.02235174447,-187500.02235174447,-187500.02235174447,-187500.02235174447,-187500.02235174447,-187500.02235174447,-187500.02235174447,-187500.02235174447,-187500.02235174447,-187500.02235174447,-187500.02235174447,-187500.02235174447,-187500.02235174447,-187500.02235174447,-187500.02235174447,-187500.02235174447,-187500.02235174447,-187500.02235174447,-187500.02235174447,-187500.02235174447,-187500.02235174447,-187500.02235174447,-187500.02235174447,-187500.02235174447,-187500.02235174447,-187500.02235174447,-187500.02235174447,-187500.02235174447,-187500.02235174447,-187500.02235174447,-187500.02235174447,-187500.02235174447,-187500.02235174447,-187500.02235174447,-187500.02235174447,-187500.02235174447,-187500.02235174447,-187500.02235174447,-187500.02235174447,-187500.02235174447,-187500.02235174447,-187500.02235174447,-187500.02235174447,-187500.02235174447,-187500.02235174447,-187500.02235174447,-187500.02235174447,-187500.02235174447,-187500.02235174447,-187500.02235174447,-187500.02235174447,-187500.02235174447,-187500.02235174447,-187500.02235174447,-187500.02235174447,-187500.02235174447,-187500.02235174447,-187500.02235174447,-187500.02235174447,-187500.02235174447,-187500.02235174447,-187500.02235174447,-187500.02235174447,-187500.02235174447,-187500.02235174447,-187500.02235174447,-187500.02235174447,-187500.02235174447,-187500.02235174447,-187500.02235174447,-187500.02235174447,-187500.02235174447,-187500.02235174447,-187500.02235174447,-187500.02235174447,-187500.02235174447,-187500.02235174447,-187500.02235174447,-187500.02235174447,-187500.02235174447,-187500.02235174447,-187500.02235174447,-187500.02235174447,-187500.02235174447,-187500.02235174447,-187500.02235174447,-187500.02235174447,-187500.02235174447,-187500.02235174447,-187500.02235174447,-187500.02235174447,-187500.02235174447,-187500.02235174447,-187500.02235174447,-187500.02235174447,-187500.02235174447,-187500.02235174447,-187500.02235174447,-187500.02235174447,-187500.02235174447,-187500.02235174447,-187500.02235174447,-187500.02235174447,-187500.02235174447,-187500.02235174447,-187500.02235174447,-187500.02235174447,-187500.02235174447,-187500.02235174447,-187500.02235174447,-187500.02235174447,-187500.02235174447,-187500.02235174447,-187500.02235174447,-187500.02235174447,-187500.02235174447,-187500.02235174447,-187500.02235174447,-187500.02235174447,-187500.02235174447,-187500.02235174447,-187500.02235174447,-187500.02235174447,-187500.02235174447,-187500.02235174447,-187500.02235174447,-187500.02235174447,-187500.02235174447,-187500.02235174447,-187500.02235174447,-187500.02235174447,-187500.02235174447,-187500.02235174447,-187500.02235174447,-187500.02235174447,-187500.02235174447,-187500.02235174447,-187500.02235174447,-187500.02235174447,-187500.02235174447,-187500.02235174447,-187500.02235174447,-187500.02235174447,-187500.02235174447,-187500.02235174447,-187500.02235174447,-187500.02235174447,-187500.02235174447,-187500.02235174447,-187500.02235174447,-187500.02235174447,-187500.02235174447,-187500.02235174447,-187500.02235174447,-187500.02235174447,-187500.02235174447,-187500.02235174447,-187500.02235174447,-187500.02235174447,-187500.02235174447,-187500.02235174447,-187500.02235174447,-187500.02235174447,-187500.02235174447,-187500.02235174447,-187500.02235174447,-187500.02235174447,-187500.02235174447,-187500.02235174447,-187500.02235174447,-187500.02235174447,-187500.02235174447,-187500.02235174447,-187500.02235174447,-187500.02235174447,-187500.02235174447,-187500.02235174447,-187500.02235174447,-187500.02235174447,-187500.02235174447,-187500.02235174447,-187500.02235174447,-187500.02235174447,-187500.02235174447,-187500.02235174447,-187500.02235174447,-187500.02235174447,-187500.02235174447,-187500.02235174447,-187500.02235174447,-187500.02235174447,-187500.02235174447,-187500.02235174447,-187500.02235174447,-187500.02235174447,-187500.02235174447,-187500.02235174447,-187500.02235174447,-187500.02235174447,-187500.02235174447,-187500.02235174447,-187500.02235174447,-187500.02235174447,-187500.02235174447,-187500.02235174447,-187500.02235174447,-187500.02235174447,-187500.02235174447,-187500.02235174447,-187500.02235174447,-187500.02235174447,-187500.02235174447,-187500.02235174447,-187500.02235174447,-187500.02235174447,-187500.02235174447,-187500.02235174447,-187500.02235174447,-187500.02235174447,-187500.02235174447,-187500.02235174447,-187500.02235174447,-187500.02235174447,-187500.02235174447,-187500.02235174447,-187500.02235174447,-187500.02235174447,-187500.02235174447,-187500.02235174447,-187500.02235174447,-187500.02235174447,-187500.02235174447,-187500.02235174447,-187500.02235174447,-187500.02235174447,-187500.02235174447,-187500.02235174447,-187500.02235174447,-187500.02235174447,-187500.02235174447,-187500.02235174447,-187500.02235174447,-187500.02235174447,-187500.02235174447,-187500.02235174447,-187500.02235174447,-187500.02235174447,-187500.02235174447,-187500.02235174447,-187500.02235174447,-187500.02235174447,-187500.02235174447,-187500.02235174447,-187500.02235174447,-187500.02235174447,-187500.02235174447,-187500.02235174447,-187500.02235174447,-187500.02235174447,-187500.02235174447,-187500.02235174447,-187500.02235174447,-187500.02235174447,-187500.02235174447,-187500.02235174447,-187500.02235174447,-187500.02235174447,-187500.02235174447,-187500.02235174447,-187500.02235174447,-187500.02235174447,-187500.02235174447,-187500.02235174447,-187500.02235174447,-187500.02235174447,-187500.02235174447,-187500.02235174447,-187500.02235174447,-187500.02235174447,-187500.02235174447,-187500.02235174447,-187500.02235174447,-187500.02235174447,-187500.02235174447,-187500.02235174447,-187500.02235174447,-187500.02235174447,-187500.02235174447,-187500.02235174447,-187500.02235174447,-187500.02235174447,-187500.02235174447,-187500.02235174447,-187500.02235174447,-187500.02235174447,-187500.02235174447,-187500.02235174447,-187500.02235174447,-187500.02235174447,-187500.02235174447,-187500.02235174447,-187500.02235174447,-187500.02235174447,-187500.02235174447,-187500.02235174447,-187500.02235174447,-187500.02235174447,-187500.02235174447,-187500.02235174447,-187500.02235174447,-187500.02235174447,-187500.02235174447,-187500.02235174447,-187500.02235174447,-187500.02235174447,-187500.02235174447,-187500.02235174447,-187500.02235174447,-187500.02235174447,-187500.02235174447,-187500.02235174447,-187500.02235174447,-187500.02235174447,-187500.02235174447,-187500.02235174447,-187500.02235174447,-187500.02235174447,-187500.02235174447,-187500.02235174447,-187500.02235174447,-187500.02235174447,-187500.02235174447,-187500.02235174447,-187500.02235174447,-187500.02235174447,-187500.02235174447,-187500.02235174447,-187500.02235174447,-187500.02235174447,-187500.02235174447,-187500.02235174447,-187500.02235174447,-187500.02235174447,-187500.02235174447,-187500.02235174447,-187500.02235174447,-187500.02235174447,-187500.02235174447,-187500.02235174447,-187500.02235174447,-187500.02235174447,-187500.02235174447,-187500.02235174447,-187500.02235174447,-187500.02235174447,-187500.02235174447,-187500.02235174447,-187500.02235174447,-187500.02235174447,-187500.02235174447,-187500.02235174447,-187500.02235174447,-187500.02235174447,-187500.02235174447,-187500.02235174447,-187500.02235174447,-187500.02235174447,-187500.02235174447,-187500.02235174447,-187500.02235174447,-187500.02235174447,-187500.02235174447,-187500.02235174447,-187500.02235174447,-187500.02235174447,-187500.02235174447,-187500.02235174447,-187500.02235174447,-187500.02235174447,-187500.02235174447,-187500.02235174447,-187500.02235174447,-187500.02235174447,-187500.02235174447,-187500.02235174447,-187500.02235174447,-187500.02235174447,-187500.02235174447,-187500.02235174447,-187500.02235174447,-187500.02235174447,-187500.02235174447,-187500.02235174447,-187500.02235174447,-187500.02235174447,-187500.02235174447,-187500.02235174447,-187500.02235174447,-187500.02235174447,-187500.02235174447,-187500.02235174447,-187500.02235174447,-187500.02235174447,-187500.02235174447,-187500.02235174447,-187500.02235174447,-187500.02235174447,-187500.02235174447,-187500.02235174447,-187500.02235174447,-187500.02235174447,-187500.02235174447,-187500.02235174447,-187500.02235174447,-187500.02235174447,-187500.02235174447,-187500.02235174447,-187500.02235174447,-187500.02235174447,-187500.02235174447,-187500.02235174447,-187500.02235174447,-187500.02235174447,-187500.02235174447,-187500.02235174447,-187500.02235174447,-187500.02235174447,-187500.02235174447,-187500.02235174447,-187500.02235174447,-187500.02235174447,-187500.02235174447,-187500.02235174447,-187500.02235174447,-187500.02235174447,-187500.02235174447,-187500.02235174447,-187500.02235174447,-187500.02235174447,-187500.02235174447,-187500.02235174447,-187500.02235174447,-187500.02235174447,-187500.02235174447,-187500.02235174447,-187500.02235174447,-187500.02235174447,-187500.02235174447,-187500.02235174447,-187500.02235174447,-187500.02235174447,-187500.02235174447,-187500.02235174447,-187500.02235174447,-187500.02235174447,-187500.02235174447,-187500.02235174447,-187500.02235174447,-187500.02235174447,-187500.02235174447,-187500.02235174447,-187500.02235174447,-187500.02235174447,-187500.02235174447,-187500.02235174447,-187500.02235174447,-187500.02235174447,-187500.02235174447,-187500.02235174447,-187500.02235174447,-187500.02235174447,-187500.02235174447,-187500.02235174447,-187500.02235174447,-187500.02235174447,-187500.02235174447,-187500.02235174447,-187500.02235174447,-187500.02235174447,-187500.02235174447,-187500.02235174447,-187500.02235174447,-187500.02235174447,-187500.02235174447,-187500.02235174447,-187500.02235174447,-187500.02235174447,-187500.02235174447,-187500.02235174447,-187500.02235174447,-187500.02235174447,-187500.02235174447,-187500.02235174447,-187500.02235174447,-187500.02235174447,-187500.02235174447,-187500.02235174447,-187500.02235174447,-187500.02235174447,-187500.02235174447,-187500.02235174447,-187500.02235174447,-187500.02235174447,-187500.02235174447,-187500.02235174447,-187500.02235174447,-187500.02235174447,-187500.02235174447,-187500.02235174447,-187500.02235174447,-187500.02235174447,-187500.02235174447,-187500.02235174447,-187500.02235174447,-187500.02235174447,-187500.02235174447,-187500.02235174447,-187500.02235174447,-187500.02235174447,-187500.02235174447,-187500.02235174447,-187500.02235174447,-187500.02235174447,-187500.02235174447,-187500.02235174447,-187500.02235174447,-187500.02235174447,-187500.02235174447,-187500.02235174447,-187500.02235174447,-187500.02235174447,-187500.02235174447,-187500.02235174447,-187500.02235174447,-187500.02235174447,-187500.02235174447,-187500.02235174447,-187500.02235174447,-187500.02235174447,-187500.02235174447,-187500.02235174447,-187500.02235174447,-187500.02235174447,-187500.02235174447,-187500.02235174447,-187500.02235174447,-187500.02235174447,-187500.02235174447,-187500.02235174447,-187500.02235174447,-187500.02235174447,-187500.02235174447,-187500.02235174447,-187500.02235174447,-187500.02235174447,-187500.02235174447,-187500.02235174447,-187500.02235174447,-187500.02235174447,-187500.02235174447,-187500.02235174447,-187500.02235174447,-187500.02235174447,-187500.02235174447,-187500.02235174447,-187500.02235174447,-187500.02235174447,-187500.02235174447,-187500.02235174447,-187500.02235174447,-187500.02235174447,-187500.02235174447,-187500.02235174447,-187500.02235174447,-187500.02235174447,-187500.02235174447,-187500.02235174447,-187500.02235174447,-187500.02235174447,-187500.02235174447,-187500.02235174447,-187500.02235174447,-187500.02235174447,-187500.02235174447,-187500.02235174447,-187500.02235174447,-187500.02235174447,-187500.02235174447,-187500.02235174447,-187500.02235174447,-187500.02235174447,-187500.02235174447,-187500.02235174447,-187500.02235174447,-187500.02235174447,-187500.02235174447,-187500.02235174447,-187500.02235174447,-187500.02235174447,-187500.02235174447,-187500.02235174447,-187500.02235174447,-187500.02235174447,-187500.02235174447,-187500.02235174447,-187500.02235174447,-187500.02235174447,-187500.02235174447,-187500.02235174447,-187500.02235174447,-187500.02235174447,-187500.02235174447,-187500.02235174447,-187500.02235174447,-187500.02235174447,-187500.02235174447,-187500.02235174447,-187500.02235174447,-187500.02235174447,-187500.02235174447,-187500.02235174447,-187500.02235174447,-187500.02235174447,-187500.02235174447,-187500.02235174447,-187500.02235174447,-187500.02235174447,-187500.02235174447,-187500.02235174447,-187500.02235174447,-187500.02235174447,-187500.02235174447,-187500.02235174447,-187500.02235174447,-187500.02235174447,-187500.02235174447,-187500.02235174447,-187500.02235174447,-187500.02235174447,-187500.02235174447,-187500.02235174447,-187500.02235174447,-187500.02235174447,-187500.02235174447,-187500.02235174447,-187500.02235174447,-187500.02235174447,-187500.02235174447,-187500.02235174447,-187500.02235174447,-187500.02235174447,-187500.02235174447,-187500.02235174447,-187500.02235174447,-187500.02235174447,-187500.02235174447,-187500.02235174447,-187500.02235174447,-187500.02235174447,-187500.02235174447,-187500.02235174447,-187500.02235174447,-187500.02235174447,-187500.02235174447,-187500.02235174447,-187500.02235174447,-187500.02235174447,-187500.02235174447,-187500.02235174447,-187500.02235174447,-187500.02235174447,-187500.02235174447,-187500.02235174447,-187500.02235174447,-187500.02235174447,-187500.02235174447,-187500.02235174447,-187500.02235174447,-187500.02235174447,-187500.02235174447,-187500.02235174447,-187500.02235174447,-187500.02235174447,-187500.02235174447,-187500.02235174447,-187500.02235174447,-187500.02235174447,-187500.02235174447,-187500.02235174447,-187500.02235174447,-187500.02235174447,-187500.02235174447,-187500.02235174447,-187500.02235174447,-187500.02235174447,-187500.02235174447,-187500.02235174447,-187500.02235174447,-187500.02235174447,-187500.02235174447,-187500.02235174447,-187500.02235174447,-187500.02235174447,-187500.02235174447,-187500.02235174447,-187500.02235174447,-187500.02235174447,-187500.02235174447,-187500.02235174447,-187500.02235174447,-187500.02235174447,-187500.02235174447,-187500.02235174447,-187500.02235174447,-187500.02235174447,-187500.02235174447,-187500.02235174447,-187500.02235174447,-187500.02235174447,-187500.02235174447,-187500.02235174447,-187500.02235174447,-187500.02235174447,-187500.02235174447,-187500.02235174447,-187500.02235174447,-187500.02235174447,-187500.02235174447,-187500.02235174447,-187500.02235174447,-187500.02235174447,-187500.02235174447,-187500.02235174447,-187500.02235174447,-187500.02235174447,-187500.02235174447,-187500.02235174447,-187500.02235174447,-187500.02235174447,-187500.02235174447,-187500.02235174447,-187500.02235174447,-187500.02235174447,-187500.02235174447,-187500.02235174447,-187500.02235174447,-187500.02235174447,-187500.02235174447,-187500.02235174447,-187500.02235174447,-187500.02235174447,-187500.02235174447,-187500.02235174447,-187500.02235174447,-187500.02235174447,-187500.02235174447,-187500.02235174447,-187500.02235174447,-187500.02235174447,-187500.02235174447,-187500.02235174447,-187500.02235174447,-187500.02235174447,-187500.02235174447,-187500.02235174447,-187500.02235174447,-187500.02235174447,-187500.02235174447,-187500.02235174447,-187500.02235174447,-187500.02235174447,-187500.02235174447,-187500.02235174447,-187500.02235174447,-187500.02235174447,-187500.02235174447,-187500.02235174447,-187500.02235174447,-187500.02235174447,-187500.02235174447,-187500.02235174447,-187500.02235174447,-187500.02235174447,-187500.02235174447,-187500.02235174447,-187500.02235174447,-187500.02235174447,-187500.02235174447,-187500.02235174447,-187500.02235174447,-187500.02235174447,-187500.02235174447,-187500.02235174447,-187500.02235174447,-187500.02235174447,-187500.02235174447,-187500.02235174447,-187500.02235174447,-187500.02235174447,-187500.02235174447,-187500.02235174447,-187500.02235174447,-187500.02235174447,-187500.02235174447,-187500.02235174447,-187500.02235174447,-187500.02235174447,-187500.02235174447,-187500.02235174447,-187500.02235174447,-187500.02235174447,-187500.02235174447,-187500.02235174447,-187500.02235174447,-187500.02235174447,-187500.02235174447,-187500.02235174447,-187500.02235174447,-187500.02235174447,-187500.02235174447,-187500.02235174447,-187500.02235174447,-187500.02235174447,-187500.02235174447,-187500.02235174447,-187500.02235174447,-187500.02235174447,-187500.02235174447,-187500.02235174447,-187500.02235174447,-187500.02235174447,-187500.02235174447,-187500.02235174447,-187500.02235174447,-187500.02235174447,-187500.02235174447,-187500.02235174447,-187500.02235174447,-187500.02235174447,-187500.02235174447,-187500.02235174447,-187500.02235174447,-187500.02235174447,-187500.02235174447,-187500.02235174447,-187500.02235174447,-187500.02235174447,-187500.02235174447,-187500.02235174447,-187500.02235174447,-187500.02235174447,-187500.02235174447,-187500.02235174447,-187500.02235174447,-187500.02235174447,-187500.02235174447,-187500.02235174447,-187500.02235174447,-187500.02235174447,-187500.02235174447,-187500.02235174447,-187500.02235174447,-187500.02235174447,-187500.02235174447,-187500.02235174447,-187500.02235174447,-187500.02235174447,-187500.02235174447,-187500.02235174447,-187500.02235174447,-187500.02235174447,-187500.02235174447,-187500.02235174447,-187500.02235174447,-187500.02235174447,-187500.02235174447,-187500.02235174447,-187500.02235174447,-187500.02235174447,-187500.02235174447,-187500.02235174447,-187500.02235174447,-187500.02235174447,-187500.02235174447,-187500.02235174447,-187500.02235174447,-187500.02235174447,-187500.02235174447,-187500.02235174447,-187500.02235174447,-187500.02235174447,-187500.02235174447,-187500.02235174447,-187500.02235174447,-187500.02235174447,-187500.02235174447,-187500.02235174447,-187500.02235174447,-187500.02235174447,-187500.02235174447,-187500.02235174447,-187500.02235174447,-187500.02235174447,-187500.02235174447,-187500.02235174447,-187500.02235174447,-187500.02235174447,-187500.02235174447,-187500.02235174447,-187500.02235174447,-187500.02235174447,-187500.02235174447,-187500.02235174447,-187500.02235174447,-187500.02235174447,-187500.02235174447,-187500.02235174447,-187500.02235174447,-187500.02235174447,-187500.02235174447,-187500.02235174447,-187500.02235174447,-187500.02235174447,-187500.02235174447,-187500.02235174447,-187500.02235174447,-187500.02235174447,-187500.02235174447,-187500.02235174447,-187500.02235174447,-187500.02235174447,-187500.02235174447,-187500.02235174447,-187500.02235174447,-187500.02235174447,-187500.02235174447,-187500.02235174447,-187500.02235174447,-187500.02235174447,-187500.02235174447,-187500.02235174447,-187500.02235174447,-187500.02235174447,-187500.02235174447,-187500.02235174447,-187500.02235174447,-187500.02235174447,-187500.02235174447,-187500.02235174447,-187500.02235174447,-187500.02235174447,-187500.02235174447,-187500.02235174447,-187500.02235174447,-187500.02235174447,-187500.02235174447,-187500.02235174447,-187500.02235174447,-187500.02235174447,-187500.02235174447,-187500.02235174447,-187500.02235174447,-187500.02235174447,-187500.02235174447,-187500.02235174447,-187500.02235174447,-187500.02235174447,-187500.02235174447,-187500.02235174447,-187500.02235174447,-187500.02235174447,-187500.02235174447,-187500.02235174447,-187500.02235174447,-187500.02235174447,-187500.02235174447,-187500.02235174447,-187500.02235174447,-187500.02235174447,-187500.02235174447,-187500.02235174447,-187500.02235174447,-187500.02235174447,-187500.02235174447,-187500.02235174447,-187500.02235174447,-187500.02235174447,-187500.02235174447,-187500.02235174447,-187500.02235174447,-187500.02235174447,-187500.02235174447,-187500.02235174447,-187500.02235174447,-187500.02235174447,-187500.02235174447,-187500.02235174447,-187500.02235174447,-187500.02235174447,-187500.02235174447,-187500.02235174447,-187500.02235174447,-187500.02235174447,-187500.02235174447,-187500.02235174447,-187500.02235174447,-187500.02235174447,-187500.02235174447,-187500.02235174447,-187500.02235174447,-187500.02235174447,-187500.02235174447,-187500.02235174447,-187500.02235174447,-187500.02235174447,-187500.02235174447,-187500.02235174447,-187500.02235174447,-187500.02235174447,-187500.02235174447,-187500.02235174447,-187500.02235174447,-187500.02235174447,-187500.02235174447,-187500.02235174447,-187500.02235174447,-187500.02235174447,-187500.02235174447,-187500.02235174447,-187500.02235174447,-187500.02235174447,-187500.02235174447,-187500.02235174447,-187500.02235174447,-187500.02235174447,-187500.02235174447,-187500.02235174447,-187500.02235174447,-187500.02235174447,-187500.02235174447,-187500.02235174447,-187500.02235174447,-187500.02235174447,-187500.02235174447,-187500.02235174447,-187500.02235174447,-187500.02235174447,-187500.02235174447,-187500.02235174447,-187500.02235174447,-187500.02235174447,-187500.02235174447,-187500.02235174447,-187500.02235174447,-187500.02235174447,-187500.02235174447,-187500.02235174447,-187500.02235174447,-187500.02235174447,-187500.02235174447,-187500.02235174447,-187500.02235174447,-187500.02235174447,-187500.02235174447,-187500.02235174447,-187500.02235174447,-187500.02235174447,-187500.02235174447,-187500.02235174447,-187500.02235174447,-187500.02235174447,-187500.02235174447,-187500.02235174447,-187500.02235174447,-187500.02235174447,-187500.02235174447,-187500.02235174447,-187500.02235174447,-187500.02235174447,-187500.02235174447,-187500.02235174447,-187500.02235174447,-187500.02235174447,-187500.02235174447,-187500.02235174447,-187500.02235174447,-187500.02235174447,-187500.02235174447,-187500.02235174447,-187500.02235174447,-187500.02235174447,-187500.02235174447,-187500.02235174447,-187500.02235174447,-187500.02235174447,-187500.02235174447,-187500.02235174447,-187500.02235174447,-187500.02235174447,-187500.02235174447,-187500.02235174447,-187500.02235174447,-187500.02235174447,-187500.02235174447,-187500.02235174447,-187500.02235174447,-187500.02235174447,-187500.02235174447,-187500.02235174447,-187500.02235174447,-187500.02235174447,-187500.02235174447,-187500.02235174447,-187500.02235174447,-187500.02235174447,-187500.02235174447,-187500.02235174447,-187500.02235174447,-187500.02235174447,-187500.02235174447,-187500.02235174447,-187500.02235174447,-187500.02235174447,-187500.02235174447,-187500.02235174447,-187500.02235174447,-187500.02235174447,-187500.02235174447,-187500.02235174447,-187500.02235174447,-187500.02235174447,-187500.02235174447,-187500.02235174447,-187500.02235174447,-187500.02235174447,-187500.02235174447,-187500.02235174447,-187500.02235174447,-187500.02235174447,-187500.02235174447,-187500.02235174447,-187500.02235174447,-187500.02235174447,-187500.02235174447,-187500.02235174447,-187500.02235174447,-187500.02235174447,-187500.02235174447,-187500.02235174447,-187500.02235174447,-187500.02235174447,-187500.02235174447,-187500.02235174447,-187500.02235174447,-187500.02235174447,-187500.02235174447,-187500.02235174447,-187500.02235174447,-187500.02235174447,-187500.02235174447,-187500.02235174447,-187500.02235174447,-187500.02235174447,-187500.02235174447,-187500.02235174447,-187500.02235174447,-187500.02235174447,-187500.02235174447,-187500.02235174447,-187500.02235174447,-187500.02235174447,-187500.02235174447,-187500.02235174447,-187500.02235174447,-187500.02235174447,-187500.02235174447,-187500.02235174447,-187500.02235174447,-187500.02235174447,-187500.02235174447,-187500.02235174447,-187500.02235174447,-187500.02235174447,-187500.02235174447,-187500.02235174447,-187500.02235174447,-187500.02235174447,-187500.02235174447,-187500.02235174447,-187500.02235174447,-187500.02235174447,-187500.02235174447,-187500.02235174447,-187500.02235174447,-187500.02235174447,-187500.02235174447,-187500.02235174447,-187500.02235174447,-187500.02235174447,-187500.02235174447,-187500.02235174447,-187500.02235174447,-187500.02235174447,-187500.02235174447,-187500.02235174447,-187500.02235174447,-187500.02235174447,-187500.02235174447,-187500.02235174447,-187500.02235174447,-187500.02235174447,-187500.02235174447,-187500.02235174447,-187500.02235174447,-187500.02235174447,-187500.02235174447,-187500.02235174447,-187500.02235174447,-187500.02235174447,-187500.02235174447,-187500.02235174447,-187500.02235174447,-187500.02235174447,-187500.02235174447,-187500.02235174447,-187500.02235174447,-187500.02235174447,-187500.02235174447,-187500.02235174447,-187500.02235174447,-187500.02235174447,-187500.02235174447,-187500.02235174447,-187500.02235174447,-187500.02235174447,-187500.02235174447,-187500.02235174447,-187500.02235174447,-187500.02235174447,-187500.02235174447,-187500.02235174447,-187500.02235174447,-187500.02235174447,-187500.02235174447,-187500.02235174447,-187500.02235174447,-187500.02235174447,-187500.02235174447,-187500.02235174447,-187500.02235174447,-187500.02235174447,-187500.02235174447,-187500.02235174447,-187500.02235174447,-187500.02235174447,-187500.02235174447,-187500.02235174447,-187500.02235174447,-187500.02235174447,-187500.02235174447,-187500.02235174447,-187500.02235174447,-187500.02235174447,-187500.02235174447,-187500.02235174447,-187500.02235174447,-187500.02235174447,-187500.02235174447,-187500.02235174447,-187500.02235174447,-187500.02235174447,-187500.02235174447,-187500.02235174447,-187500.02235174447,-187500.02235174447,-187500.02235174447,-187500.02235174447,-187500.02235174447,-187500.02235174447,-187500.02235174447,-187500.02235174447,-187500.02235174447,-187500.02235174447,-187500.02235174447,-187500.02235174447,-187500.02235174447,-187500.02235174447,-187500.02235174447,-187500.02235174447,-187500.02235174447,-187500.02235174447,-187500.02235174447,-187500.02235174447,-187500.02235174447,-187500.02235174447,-187500.02235174447,-187500.02235174447,-187500.02235174447,-187500.02235174447,-187500.02235174447,-187500.02235174447,-187500.02235174447,-187500.02235174447,-187500.02235174447,-187500.02235174447,-187500.02235174447,-187500.02235174447,-187500.02235174447,-187500.02235174447,-187500.02235174447,-187500.02235174447,-187500.02235174447,-187500.02235174447,-187500.02235174447,-187500.02235174447,-187500.02235174447,-187500.02235174447,-187500.02235174447,-187500.02235174447,-187500.02235174447,-187500.02235174447,-187500.02235174447,-187500.02235174447,-187500.02235174447,-187500.02235174447,-187500.02235174447,-187500.02235174447,-187500.02235174447,-187500.02235174447,-187500.02235174447,-187500.02235174447,-187500.02235174447,-187500.02235174447,-187500.02235174447,-187500.02235174447,-187500.02235174447,-187500.02235174447,-187500.02235174447,-187500.02235174447,-187500.02235174447,-187500.02235174447,-187500.02235174447,-187500.02235174447,-187500.02235174447,-187500.02235174447,-187500.02235174447,-187500.02235174447,-187500.02235174447,-187500.02235174447,-187500.02235174447,-187500.02235174447,-187500.02235174447,-187500.02235174447,-187500.02235174447,-187500.02235174447,-187500.02235174447,-187500.02235174447,-187500.02235174447,-187500.02235174447,-187500.02235174447,-187500.02235174447,-187500.02235174447,-187500.02235174447,-187500.02235174447,-187500.02235174447,-187500.02235174447,-187500.02235174447,-187500.02235174447,-187500.02235174447,-187500.02235174447,-187500.02235174447,-187500.02235174447,-187500.02235174447,-187500.02235174447,-187500.02235174447,-187500.02235174447,-187500.02235174447,-187500.02235174447,-187500.02235174447,-187500.02235174447,-187500.02235174447,-187500.02235174447,-187500.02235174447,-187500.02235174447,-187500.02235174447,-187500.02235174447,-187500.02235174447,-187500.02235174447,-187500.02235174447,-187500.02235174447,-187500.02235174447,-187500.02235174447,-187500.02235174447,-187500.02235174447,-187500.02235174447,-187500.02235174447,-187500.02235174447,-187500.02235174447,-187500.02235174447,-187500.02235174447,-187500.02235174447,-187500.02235174447,-187500.02235174447,-187500.02235174447,-187500.02235174447,-187500.02235174447,-187500.02235174447,-187500.02235174447,-187500.02235174447,-187500.02235174447,-187500.02235174447,-187500.02235174447,-187500.02235174447,-187500.02235174447,-187500.02235174447,-187500.02235174447,-187500.02235174447,-187500.02235174447,-187500.02235174447,-187500.02235174447,-187500.02235174447,-187500.02235174447,-187500.02235174447,-187500.02235174447,-187500.02235174447,-187500.02235174447,-187500.02235174447,-187500.02235174447,-187500.02235174447,-187500.02235174447,-187500.02235174447,-187500.02235174447,-187500.02235174447,-187500.02235174447,-187500.02235174447,-187500.02235174447,-187500.02235174447,-187500.02235174447,-187500.02235174447,-187500.02235174447,-187500.02235174447,-187500.02235174447,-187500.02235174447,-187500.02235174447,-187500.02235174447,-187500.02235174447,-187500.02235174447,-187500.02235174447,-187500.02235174447,-187500.02235174447,-187500.02235174447,-187500.02235174447,-187500.02235174447,-187500.02235174447,-187500.02235174447,-187500.02235174447,-187500.02235174447,-187500.02235174447,-187500.02235174447,-187500.02235174447,-187500.02235174447,-187500.02235174447,-187500.02235174447,-187500.02235174447,-187500.02235174447,-187500.02235174447,-187500.02235174447,-187500.02235174447,-187500.02235174447,-187500.02235174447,-187500.02235174447,-187500.02235174447,-187500.02235174447,-187500.02235174447,-187500.02235174447,-187500.02235174447,-187500.02235174447,-187500.02235174447,-187500.02235174447,-187500.02235174447,-187500.02235174447,-187500.02235174447,-187500.02235174447,-187500.02235174447,-187500.02235174447,-187500.02235174447,-187500.02235174447,-187500.02235174447,-187500.02235174447,-187500.02235174447,-187500.02235174447,-187500.02235174447,-187500.02235174447,-187500.02235174447,-187500.02235174447,-187500.02235174447,-187500.02235174447,-187500.02235174447,-187500.02235174447,-187500.02235174447,-187500.02235174447,-187500.02235174447,-187500.02235174447,-187500.02235174447,-187500.02235174447,-187500.02235174447,-187500.02235174447,-187500.02235174447,-187500.02235174447,-187500.02235174447,-187500.02235174447,-187500.02235174447,-187500.02235174447,-187500.02235174447,-187500.02235174447,-187500.02235174447,-187500.02235174447,-187500.02235174447,-187500.02235174447,-187500.02235174447,-187500.02235174447,-187500.02235174447,-187500.02235174447,-187500.02235174447,-187500.02235174447,-187500.02235174447,-187500.02235174447,-187500.02235174447,-187500.02235174447,-187500.02235174447,-187500.02235174447,-187500.02235174447,-187500.02235174447,-187500.02235174447,-187500.02235174447,-187500.02235174447,-187500.02235174447,-187500.02235174447,-187500.02235174447,-187500.02235174447,-187500.02235174447,-187500.02235174447,-187500.02235174447,-187500.02235174447,-187500.02235174447,-187500.02235174447,-187500.02235174447,-187500.02235174447,-187500.02235174447,-187500.02235174447,-187500.02235174447,-187500.02235174447,-187500.02235174447,-187500.02235174447,-187500.02235174447,-187500.02235174447,-187500.02235174447,-187500.02235174447,-187500.02235174447,-187500.02235174447,-187500.02235174447,-187500.02235174447,-187500.02235174447,-187500.02235174447,-187500.02235174447,-187500.02235174447,-187500.02235174447,-187500.02235174447,-187500.02235174447,-187500.02235174447,-187500.02235174447,-187500.02235174447,-187500.02235174447,-187500.02235174447,-187500.02235174447,-187500.02235174447,-187500.02235174447,-187500.02235174447,-187500.02235174447,-187500.02235174447,-187500.02235174447,-187500.02235174447,-187500.02235174447,-187500.02235174447,-187500.02235174447,-187500.02235174447,-187500.02235174447,-187500.02235174447,-187500.02235174447,-187500.02235174447,-187500.02235174447,-187500.02235174447,-187500.02235174447,-187500.02235174447,-187500.02235174447,-187500.02235174447,-187500.02235174447,-187500.02235174447,-187500.02235174447,-187500.02235174447,-187500.02235174447,-187500.02235174447,-187500.02235174447,-187500.02235174447,-187500.02235174447,-187500.02235174447,-187500.02235174447,-187500.02235174447,-187500.02235174447,-187500.02235174447,-187500.02235174447,-187500.02235174447,-187500.02235174447,-187500.02235174447,-187500.02235174447,-187500.02235174447,-187500.02235174447,-187500.02235174447,-187500.02235174447,-187500.02235174447,-187500.02235174447,-187500.02235174447,-187500.02235174447,-187500.02235174447,-187500.02235174447,-187500.02235174447,-187500.02235174447,-187500.02235174447,-187500.02235174447,-187500.02235174447,-187500.02235174447,-187500.02235174447,-187500.02235174447,-187500.02235174447,-187500.02235174447,-187500.02235174447,-187500.02235174447,-187500.02235174447,-187500.02235174447,-187500.02235174447,-187500.02235174447,-187500.02235174447,-187500.02235174447,-187500.02235174447,-187500.02235174447,-187500.02235174447,-187500.02235174447,-187500.02235174447,-187500.02235174447,-187500.02235174447,-187500.02235174447,-187500.02235174447,-187500.02235174447,-187500.02235174447,-187500.02235174447,-187500.02235174447,-187500.02235174447,-187500.02235174447,-187500.02235174447,-187500.02235174447,-187500.02235174447,-187500.02235174447,-187500.02235174447,-187500.02235174447,-187500.02235174447,-187500.02235174447,-187500.02235174447,-187500.02235174447,-187500.02235174447,-187500.02235174447,-187500.02235174447,-187500.02235174447,-187500.02235174447,-187500.02235174447,-187500.02235174447,-187500.02235174447,-187500.02235174447,-187500.02235174447,-187500.02235174447,-187500.02235174447,-187500.02235174447,-187500.02235174447,-187500.02235174447,-187500.02235174447,-187500.02235174447,-187500.02235174447,-187500.02235174447,-187500.02235174447,-187500.02235174447,-187500.02235174447,-187500.02235174447,-187500.02235174447,-187500.02235174447,-187500.02235174447,-187500.02235174447,-187500.02235174447,-187500.02235174447,-187500.02235174447,-187500.02235174447,-187500.02235174447,-187500.02235174447,-187500.02235174447,-187500.02235174447,-187500.02235174447,-187500.02235174447,-187500.02235174447,-187500.02235174447,-187500.02235174447,-187500.02235174447,-187500.02235174447,-187500.02235174447,-187500.02235174447,-187500.02235174447,-187500.02235174447,-187500.02235174447,-187500.02235174447,-187500.02235174447,-187500.02235174447,-187500.02235174447,-187500.02235174447,-187500.02235174447,-187500.02235174447,-187500.02235174447,-187500.02235174447,-187500.02235174447,-187500.02235174447,-187500.02235174447,-187500.02235174447,-187500.02235174447,-187500.02235174447,-187500.02235174447,-187500.02235174447,-187500.02235174447,-187500.02235174447,-187500.02235174447,-187500.02235174447,-187500.02235174447,-187500.02235174447,-187500.02235174447,-187500.02235174447,-187500.02235174447,-187500.02235174447,-187500.02235174447,-187500.02235174447,-187500.02235174447,-187500.02235174447,-187500.02235174447,-187500.02235174447,-187500.02235174447,-187500.02235174447,-187500.02235174447,-187500.02235174447,-187500.02235174447,-187500.02235174447,-187500.02235174447,-187500.02235174447,-187500.02235174447,-187500.02235174447,-187500.02235174447,-187500.02235174447,-187500.02235174447,-187500.02235174447,-187500.02235174447,-187500.02235174447,-187500.02235174447,-187500.02235174447,-187500.02235174447,-187500.02235174447,-187500.02235174447,-187500.02235174447,-187500.02235174447,-187500.02235174447,-187500.02235174447,-187500.02235174447,-187500.02235174447,-187500.02235174447,-187500.02235174447,-187500.02235174447,-187500.02235174447,-187500.02235174447,-187500.02235174447,-187500.02235174447,-187500.02235174447,-187500.02235174447,-187500.02235174447,-187500.02235174447,-187500.02235174447,-187500.02235174447,-187500.02235174447,-187500.02235174447,-187500.02235174447,-187500.02235174447,-187500.02235174447,-187500.02235174447,-187500.02235174447,-187500.02235174447,-187500.02235174447,-187500.02235174447,-187500.02235174447,-187500.02235174447,-187500.02235174447,-187500.02235174447,-187500.02235174447,-187500.02235174447,-187500.02235174447,-187500.02235174447,-187500.02235174447,-187500.02235174447,-187500.02235174447,-187500.02235174447,-187500.02235174447,-187500.02235174447,-187500.02235174447,-187500.02235174447,-187500.02235174447,-187500.02235174447,-187500.02235174447,-187500.02235174447,-187500.02235174447,-187500.02235174447,-187500.02235174447,-187500.02235174447,-187500.02235174447,-187500.02235174447,-187500.02235174447,-187500.02235174447,-187500.02235174447,-187500.02235174447,-187500.02235174447,-187500.02235174447,-187500.02235174447,-187500.02235174447,-187500.02235174447,-187500.02235174447,-187500.02235174447,-187500.02235174447,-187500.02235174447,-187500.02235174447,-187500.02235174447,-187500.02235174447,-187500.02235174447,-187500.02235174447,-187500.02235174447,-187500.02235174447,-187500.02235174447,-187500.02235174447,-187500.02235174447,-187500.02235174447,-187500.02235174447,-187500.02235174447,-187500.02235174447,-187500.02235174447,-187500.02235174447,-187500.02235174447,-187500.02235174447,-187500.02235174447,-187500.02235174447,-187500.02235174447,-187500.02235174447,-187500.02235174447,-187500.02235174447,-187500.02235174447,-187500.02235174447,-187500.02235174447,-187500.02235174447,-187500.02235174447,-187500.02235174447,-187500.02235174447,-187500.02235174447,-187500.02235174447,-187500.02235174447,-187500.02235174447,-187500.02235174447,-187500.02235174447,-187500.02235174447,-187500.02235174447,-187500.02235174447,-187500.02235174447,-187500.02235174447,-187500.02235174447,-187500.02235174447,-187500.02235174447,-187500.02235174447,-187500.02235174447,-187500.02235174447,-187500.02235174447,-187500.02235174447,-187500.02235174447,-187500.02235174447,-187500.02235174447,-187500.02235174447,-187500.02235174447,-187500.02235174447,-187500.02235174447,-187500.02235174447,-187500.02235174447,-187500.02235174447,-187500.02235174447,-187500.02235174447,-187500.02235174447,-187500.02235174447,-187500.02235174447,-187500.02235174447,-187500.02235174447,-187500.02235174447,-187500.02235174447,-187500.02235174447,-187500.02235174447,-187500.02235174447,-187500.02235174447,-187500.02235174447,-187500.02235174447,-187500.02235174447,-187500.02235174447,-187500.02235174447,-187500.02235174447,-187500.02235174447,-187500.02235174447,-187500.02235174447,-187500.02235174447,-187500.02235174447,-187500.02235174447,-187500.02235174447,-187500.02235174447,-187500.02235174447,-187500.02235174447,-187500.02235174447,-187500.02235174447,-187500.02235174447,-187500.02235174447,-187500.02235174447,-187500.02235174447,-187500.02235174447,-187500.02235174447,-187500.02235174447,-187500.02235174447,-187500.02235174447,-187500.02235174447,-187500.02235174447,-187500.02235174447,-187500.02235174447,-187500.02235174447,-187500.02235174447,-187500.02235174447,-187500.02235174447,-187500.02235174447,-187500.02235174447,-187500.02235174447,-187500.02235174447,-187500.02235174447,-187500.02235174447,-187500.02235174447,-187500.02235174447,-187500.02235174447,-187500.02235174447,-187500.02235174447,-187500.02235174447,-187500.02235174447,-187500.02235174447,-187500.02235174447,-187500.02235174447,-187500.02235174447,-187500.02235174447,-187500.02235174447,-187500.02235174447,-187500.02235174447,-187500.02235174447,-187500.02235174447,-187500.02235174447,-187500.02235174447,-187500.02235174447,-187500.02235174447,-187500.02235174447,-187500.02235174447,-187500.02235174447,-187500.02235174447,-187500.02235174447,-187500.02235174447,-187500.02235174447,-187500.02235174447,-187500.02235174447,-187500.02235174447,-187500.02235174447,-187500.02235174447,-187500.02235174447,-187500.02235174447,-187500.02235174447,-187500.02235174447,-187500.02235174447,-187500.02235174447,-187500.02235174447,-187500.02235174447,-187500.02235174447,-187500.02235174447,-187500.02235174447,-187500.02235174447,-187500.02235174447,-187500.02235174447,-187500.02235174447,-187500.02235174447,-187500.02235174447,-187500.02235174447,-187500.02235174447,-187500.02235174447,-187500.02235174447,-187500.02235174447,-187500.02235174447,-187500.02235174447,-187500.02235174447,-187500.02235174447,-187500.02235174447,-187500.02235174447,-187500.02235174447,-187500.02235174447,-187500.02235174447,-187500.02235174447,-187500.02235174447,-187500.02235174447,-187500.02235174447,-187500.02235174447,-187500.02235174447,-187500.02235174447,-187500.02235174447,-187500.02235174447,-187500.02235174447,-187500.02235174447,-187500.02235174447,-187500.02235174447,-187500.02235174447,-187500.02235174447,-187500.02235174447,-187500.02235174447,-187500.02235174447,-187500.02235174447,-187500.02235174447,-187500.02235174447,-187500.02235174447,-187500.02235174447,-187500.02235174447,-187500.02235174447,-187500.02235174447,-187500.02235174447,-187500.02235174447,-187500.02235174447,-187500.02235174447,-187500.02235174447,-187500.02235174447,-187500.02235174447,-187500.02235174447,-187500.02235174447,-187500.02235174447,-187500.02235174447,-187500.02235174447,-187500.02235174447,-187500.02235174447,-187500.02235174447,-187500.02235174447,-187500.02235174447,-187500.02235174447,-187500.02235174447,-187500.02235174447,-187500.02235174447,-187500.02235174447,-187500.02235174447,-187500.02235174447,-187500.02235174447,-187500.02235174447,-187500.02235174447,-187500.02235174447,-187500.02235174447,-187500.02235174447,-187500.02235174447,-187500.02235174447,-187500.02235174447,-187500.02235174447,-187500.02235174447,-187500.02235174447,-187500.02235174447,-187500.02235174447,-187500.02235174447,-187500.02235174447,-187500.02235174447,-187500.02235174447,-187500.02235174447,-187500.02235174447,-187500.02235174447,-187500.02235174447,-187500.02235174447,-187500.02235174447,-187500.02235174447,-187500.02235174447,-187500.02235174447,-187500.02235174447,-187500.02235174447,-187500.02235174447,-187500.02235174447,-187500.02235174447,-187500.02235174447,-187500.02235174447,-187500.02235174447,-187500.02235174447,-187500.02235174447,-187500.02235174447,-187500.02235174447,-187500.02235174447,-187500.02235174447,-187500.02235174447,-187500.02235174447,-187500.02235174447,-187500.02235174447,-187500.02235174447,-187500.02235174447,-187500.02235174447,-187500.02235174447,-187500.02235174447,-187500.02235174447,-187500.02235174447,-187500.02235174447,-187500.02235174447,-187500.02235174447,-187500.02235174447,-187500.02235174447,-187500.02235174447,-187500.02235174447,-187500.02235174447,-187500.02235174447,-187500.02235174447,-187500.02235174447,-187500.02235174447,-187500.02235174447,-187500.02235174447,-187500.02235174447,-187500.02235174447,-187500.02235174447,-187500.02235174447,-187500.02235174447,-187500.02235174447,-187500.02235174447,-187500.02235174447,-187500.02235174447,-187500.02235174447,-187500.02235174447,-187500.02235174447,-187500.02235174447,-187500.02235174447,-187500.02235174447,-187500.02235174447,-187500.02235174447,-187500.02235174447,-187500.02235174447,-187500.02235174447,-187500.02235174447,-187500.02235174447,-187500.02235174447,-187500.02235174447,-187500.02235174447,-187500.02235174447,-187500.02235174447,-187500.02235174447,-187500.02235174447,-187500.02235174447,-187500.02235174447,-187500.02235174447,-187500.02235174447,-187500.02235174447,-187500.02235174447,-187500.02235174447,-187500.02235174447,-187500.02235174447,-187500.02235174447,-187500.02235174447,-187500.02235174447,-187500.02235174447,-187500.02235174447,-187500.02235174447,-187500.02235174447,-187500.02235174447,-187500.02235174447,-187500.02235174447,-187500.02235174447,-187500.02235174447,-187500.02235174447,-187500.02235174447,-187500.02235174447,-187500.02235174447,-187500.02235174447,-187500.02235174447,-187500.02235174447,-187500.02235174447,-187500.02235174447,-187500.02235174447,-187500.02235174447,-187500.02235174447,-187500.02235174447,-187500.02235174447,-187500.02235174447,-187500.02235174447,-187500.02235174447,-187500.02235174447,-187500.02235174447,-187500.02235174447,-187500.02235174447,-187500.02235174447,-187500.02235174447,-187500.02235174447,-187500.02235174447,-187500.02235174447,-187500.02235174447,-187500.02235174447,-187500.02235174447,-187500.02235174447,-187500.02235174447,-187500.02235174447,-187500.02235174447,-187500.02235174447,-187500.02235174447,-187500.02235174447,-187500.02235174447,-187500.02235174447,-187500.02235174447,-187500.02235174447,-187500.02235174447,-187500.02235174447,-187500.02235174447,-187500.02235174447,-187500.02235174447,-187500.02235174447,-187500.02235174447,-187500.02235174447,-187500.02235174447,-187500.02235174447,-187500.02235174447,-187500.02235174447,-187500.02235174447,-187500.02235174447,-187500.02235174447,-187500.02235174447,-187500.02235174447,-187500.02235174447,-187500.02235174447,-187500.02235174447,-187500.02235174447,-187500.02235174447,-187500.02235174447,-187500.02235174447,-187500.02235174447,-187500.02235174447,-187500.02235174447,-187500.02235174447,-187500.02235174447,-187500.02235174447,-187500.02235174447,-187500.02235174447,-187500.02235174447,-187500.02235174447,-187500.02235174447,-187500.02235174447,-187500.02235174447,-187500.02235174447,-187500.02235174447,-187500.02235174447,-187500.02235174447,-187500.02235174447,-187500.02235174447,-187500.02235174447,-187500.02235174447,-187500.02235174447,-187500.02235174447,-187500.02235174447,-187500.02235174447,-187500.02235174447,-187500.02235174447,-187500.02235174447,-187500.02235174447,-187500.02235174447,-187500.02235174447,-187500.02235174447,-187500.02235174447,-187500.02235174447,-187500.02235174447,-187500.02235174447,-187500.02235174447,-187500.02235174447,-187500.02235174447,-187500.02235174447,-187500.02235174447,-187500.02235174447,-187500.02235174447,-187500.02235174447,-187500.02235174447,-187500.02235174447,-187500.02235174447,-187500.02235174447,-187500.02235174447,-187500.02235174447,-187500.02235174447,-187500.02235174447,-187500.02235174447,-187500.02235174447,-187500.02235174447,-187500.02235174447,-187500.02235174447,-187500.02235174447,-187500.02235174447,-187500.02235174447,-187500.02235174447,-187500.02235174447,-187500.02235174447,-187500.02235174447,-187500.02235174447,-187500.02235174447,-187500.02235174447,-187500.02235174447,-187500.02235174447,-187500.02235174447,-187500.02235174447,-187500.02235174447,-187500.02235174447,-187500.02235174447,-187500.02235174447,-187500.02235174447,-187500.02235174447,-187500.02235174447,-187500.02235174447,-187500.02235174447,-187500.02235174447,-187500.02235174447,-187500.02235174447,-187500.02235174447,-187500.02235174447,-187500.02235174447,-187500.02235174447,-187500.02235174447,-187500.02235174447,-187500.02235174447,-187500.02235174447,-187500.02235174447,-187500.02235174447,-187500.02235174447,-187500.02235174447,-187500.02235174447,-187500.02235174447,-187500.02235174447,-187500.02235174447,-187500.02235174447,-187500.02235174447,-187500.02235174447,-187500.02235174447,-187500.02235174447,-187500.02235174447,-187500.02235174447,-187500.02235174447,-187500.02235174447,-187500.02235174447,-187500.02235174447,-187500.02235174447,-187500.02235174447,-187500.02235174447,-187500.02235174447,-187500.02235174447,-187500.02235174447,-187500.02235174447,-187500.02235174447,-187500.02235174447,-187500.02235174447,-187500.02235174447,-187500.02235174447,-187500.02235174447,-187500.02235174447,-187500.02235174447,-187500.02235174447,-187500.02235174447,-187500.02235174447,-187500.02235174447,-187500.02235174447,-187500.02235174447,-187500.02235174447,-187500.02235174447,-187500.02235174447,-187500.02235174447,-187500.02235174447,-187500.02235174447,-187500.02235174447,-187500.02235174447,-187500.02235174447,-187500.02235174447,-187500.02235174447,-187500.02235174447,-187500.02235174447,-187500.02235174447,-187500.02235174447,-187500.02235174447,-187500.02235174447,-187500.02235174447,-187500.02235174447,-187500.02235174447,-187500.02235174447,-187500.02235174447,-187500.02235174447,-187500.02235174447,-187500.02235174447,-187500.02235174447,-187500.02235174447,-187500.02235174447,-187500.02235174447,-187500.02235174447,-187500.02235174447,-187500.02235174447,-187500.02235174447,-187500.02235174447,-187500.02235174447,-187500.02235174447,-187500.02235174447,-187500.02235174447,-187500.02235174447,-187500.02235174447,-187500.02235174447,-187500.02235174447,-187500.02235174447,-187500.02235174447,-187500.02235174447,-187500.02235174447,-187500.02235174447,-187500.02235174447,-187500.02235174447,-187500.02235174447,-187500.02235174447,-187500.02235174447,-187500.02235174447,-187500.02235174447,-187500.02235174447,-187500.02235174447,-187500.02235174447,-187500.02235174447,-187500.02235174447,-187500.02235174447,-187500.02235174447,-187500.02235174447,-187500.02235174447,-187500.02235174447,-187500.02235174447,-187500.02235174447,-187500.02235174447,-187500.02235174447,-187500.02235174447,-187500.02235174447,-187500.02235174447,-187500.02235174447,-187500.02235174447,-187500.02235174447,-187500.02235174447,-187500.02235174447,-187500.02235174447,-187500.02235174447,-187500.02235174447,-187500.02235174447,-187500.02235174447,-187500.02235174447,-187500.02235174447,-187500.02235174447,-187500.02235174447,-187500.02235174447,-187500.02235174447,-187500.02235174447,-187500.02235174447,-187500.02235174447,-187500.02235174447,-187500.02235174447,-187500.02235174447,-187500.02235174447,-187500.02235174447,-187500.02235174447,-187500.02235174447,-187500.02235174447,-187500.02235174447,-187500.02235174447,-187500.02235174447,-187500.02235174447,-187500.02235174447,-187500.02235174447,-187500.02235174447,-187500.02235174447,-187500.02235174447,-187500.02235174447,-187500.02235174447,-187500.02235174447,-187500.02235174447,-187500.02235174447,-187500.02235174447,-187500.02235174447,-187500.02235174447,-187500.02235174447,-187500.02235174447,-187500.02235174447,-187500.02235174447,-187500.02235174447,-187500.02235174447,-187500.02235174447,-187500.02235174447,-187500.02235174447,-187500.02235174447,-187500.02235174447,-187500.02235174447,-187500.02235174447,-187500.02235174447,-187500.02235174447,-187500.02235174447,-187500.02235174447,-187500.02235174447,-187500.02235174447,-187500.02235174447,-187500.02235174447,-187500.02235174447,-187500.02235174447,-187500.02235174447,-187500.02235174447,-187500.02235174447,-187500.02235174447,-187500.02235174447,-187500.02235174447,-187500.02235174447,-187500.02235174447,-187500.02235174447,-187500.02235174447,-187500.02235174447,-187500.02235174447,-187500.02235174447,-187500.02235174447,-187500.02235174447,-187500.02235174447,-187500.02235174447,-187500.02235174447,-187500.02235174447,-187500.02235174447,-187500.02235174447,-187500.02235174447,-187500.02235174447,-187500.02235174447,-187500.02235174447,-187500.02235174447,-187500.02235174447,-187500.02235174447,-187500.02235174447,-187500.02235174447,-187500.02235174447,-187500.02235174447,-187500.02235174447,-187500.02235174447,-187500.02235174447,-187500.02235174447,-187500.02235174447,-187500.02235174447,-187500.02235174447,-187500.02235174447,-187500.02235174447,-187500.02235174447,-187500.02235174447,-187500.02235174447,-187500.02235174447,-187500.02235174447,-187500.02235174447,-187500.02235174447,-187500.02235174447,-187500.02235174447,-187500.02235174447,-187500.02235174447,-187500.02235174447,-187500.02235174447,-187500.02235174447,-187500.02235174447,-187500.02235174447,-187500.02235174447,-187500.02235174447,-187500.02235174447,-187500.02235174447,-187500.02235174447,-187500.02235174447,-187500.02235174447,-187500.02235174447,-187500.02235174447,-187500.02235174447,-187500.02235174447,-187500.02235174447,-187500.02235174447,-187500.02235174447,-187500.02235174447,-187500.02235174447,-187500.02235174447,-187500.02235174447,-187500.02235174447,-187500.02235174447,-187500.02235174447,-187500.02235174447,-187500.02235174447,-187500.02235174447,-187500.02235174447,-187500.02235174447,-187500.02235174447,-187500.02235174447,-187500.02235174447,-187500.02235174447,-187500.02235174447,-187500.02235174447,-187500.02235174447,-187500.02235174447,-187500.02235174447,-187500.02235174447,-187500.02235174447,-187500.02235174447,-187500.02235174447,-187500.02235174447,-187500.02235174447,-187500.02235174447,-187500.02235174447,-187500.02235174447,-187500.02235174447,-187500.02235174447,-187500.02235174447,-187500.02235174447,-187500.02235174447,-187500.02235174447,-187500.02235174447,-187500.02235174447,-187500.02235174447,-187500.02235174447,-187500.02235174447,-187500.02235174447,-187500.02235174447,-187500.02235174447,-187500.02235174447,-187500.02235174447,-187500.02235174447,-187500.02235174447,-187500.02235174447,-187500.02235174447,-187500.02235174447,-187500.02235174447,-187500.02235174447,-187500.02235174447,-187500.02235174447,-187500.02235174447,-187500.02235174447,-187500.02235174447,-187500.02235174447,-187500.02235174447,-187500.02235174447,-187500.02235174447,-187500.02235174447,-187500.02235174447,-187500.02235174447,-187500.02235174447,-187500.02235174447,-187500.02235174447,-187500.02235174447,-187500.02235174447,-187500.02235174447,-187500.02235174447,-187500.02235174447,-187500.02235174447,-187500.02235174447,-187500.02235174447,-187500.02235174447,-187500.02235174447,-187500.02235174447,-187500.02235174447,-187500.02235174447,-187500.02235174447,-187500.02235174447,-187500.02235174447,-187500.02235174447,-187500.02235174447,-187500.02235174447,-187500.02235174447,-187500.02235174447,-187500.02235174447,-187500.02235174447,-187500.02235174447,-187500.02235174447,-187500.02235174447,-187500.02235174447,-187500.02235174447,-187500.02235174447,-187500.02235174447,-187500.02235174447,-187500.02235174447,-187500.02235174447,-187500.02235174447,-187500.02235174447,-187500.02235174447,-187500.02235174447,-187500.02235174447,-187500.02235174447,-187500.02235174447,-187500.02235174447,-187500.02235174447,-187500.02235174447,-187500.02235174447,-187500.02235174447,-187500.02235174447,-187500.02235174447,-187500.02235174447,-187500.02235174447,-187500.02235174447,-187500.02235174447,-187500.02235174447,-187500.02235174447,-187500.02235174447,-187500.02235174447,-187500.02235174447,-187500.02235174447,-187500.02235174447,-187500.02235174447,-187500.02235174447,-187500.02235174447,-187500.02235174447,-187500.02235174447,-187500.02235174447,-187500.02235174447,-187500.02235174447,-187500.02235174447,-187500.02235174447,-187500.02235174447,-187500.02235174447,-187500.02235174447,-187500.02235174447,-187500.02235174447,-187500.02235174447,-187500.02235174447,-187500.02235174447,-187500.02235174447,-187500.02235174447,-187500.02235174447,-187500.02235174447,-187500.02235174447,-187500.02235174447,-187500.02235174447,-187500.02235174447,-187500.02235174447,-187500.02235174447,-187500.02235174447,-187500.02235174447,-187500.02235174447,-187500.02235174447,-187500.02235174447,-187500.02235174447,-187500.02235174447,-187500.02235174447,-187500.02235174447,-187500.02235174447,-187500.02235174447,-187500.02235174447,-187500.02235174447,-187500.02235174447,-187500.02235174447,-187500.02235174447,-187500.02235174447,-187500.02235174447,-187500.02235174447,-187500.02235174447,-187500.02235174447,-187500.02235174447,-187500.02235174447,-187500.02235174447,-187500.02235174447,-187500.02235174447,-187500.02235174447,-187500.02235174447,-187500.02235174447,-187500.02235174447,-187500.02235174447,-187500.02235174447,-187500.02235174447,-187500.02235174447,-187500.02235174447,-187500.02235174447,-187500.02235174447,-187500.02235174447,-187500.02235174447,-187500.02235174447,-187500.02235174447,-187500.02235174447,-187500.02235174447,-187500.02235174447,-187500.02235174447,-187500.02235174447,-187500.02235174447,-187500.02235174447,-187500.02235174447,-187500.02235174447,-187500.02235174447,-187500.02235174447,-187500.02235174447,-187500.02235174447,-187500.02235174447,-187500.02235174447,-187500.02235174447,-187500.02235174447,-187500.02235174447,-187500.02235174447,-187500.02235174447,-187500.02235174447,-187500.02235174447,-187500.02235174447,-187500.02235174447,-187500.02235174447,-187500.02235174447,-187500.02235174447,-187500.02235174447,-187500.02235174447,-187500.02235174447,-187500.02235174447,-187500.02235174447,-187500.02235174447,-187500.02235174447,-187500.02235174447,-187500.02235174447,-187500.02235174447,-187500.02235174447,-187500.02235174447,-187500.02235174447,-187500.02235174447,-187500.02235174447,-187500.02235174447,-187500.02235174447,-187500.02235174447,-187500.02235174447,-187500.02235174447,-187500.02235174447,-187500.02235174447,-187500.02235174447,-187500.02235174447,-187500.02235174447,-187500.02235174447,-187500.02235174447,-187500.02235174447,-187500.02235174447,-187500.02235174447,-187500.02235174447,-187500.02235174447,-187500.02235174447,-187500.02235174447,-187500.02235174447,-187500.02235174447,-187500.02235174447,-187500.02235174447,-187500.02235174447,-187500.02235174447,-187500.02235174447,-187500.02235174447,-187500.02235174447,-187500.02235174447,-187500.02235174447,-187500.02235174447,-187500.02235174447,-187500.02235174447,-187500.02235174447,-187500.02235174447,-187500.02235174447,-187500.02235174447,-187500.02235174447,-187500.02235174447,-187500.02235174447,-187500.02235174447,-187500.02235174447,-187500.02235174447,-187500.02235174447,-187500.02235174447,-187500.02235174447,-187500.02235174447,-187500.02235174447,-187500.02235174447,-187500.02235174447,-187500.02235174447,-187500.02235174447,-187500.02235174447,-187500.02235174447,-187500.02235174447,-187500.02235174447,-187500.02235174447,-187500.02235174447,-187500.02235174447,-187500.02235174447,-187500.02235174447,-187500.02235174447,-187500.02235174447,-187500.02235174447,-187500.02235174447,-187500.02235174447,-187500.02235174447,-187500.02235174447,-187500.02235174447,-187500.02235174447,-187500.02235174447,-187500.02235174447,-187500.02235174447,-187500.02235174447,-187500.02235174447,-187500.02235174447,-187500.02235174447,-187500.02235174447,-187500.02235174447,-187500.02235174447,-187500.02235174447,-187500.02235174447,-187500.02235174447,-187500.02235174447,-187500.02235174447,-187500.02235174447,-187500.02235174447,-187500.02235174447,-187500.02235174447,-187500.02235174447,-187500.02235174447,-187500.02235174447,-187500.02235174447,-187500.02235174447,-187500.02235174447,-187500.02235174447,-187500.02235174447,-187500.02235174447,-187500.02235174447,-187500.02235174447,-187500.02235174447,-187500.02235174447,-187500.02235174447,-187500.02235174447,-187500.02235174447,-187500.02235174447,-187500.02235174447,-187500.02235174447,-187500.02235174447,-187500.02235174447,-187500.02235174447,-187500.02235174447,-187500.02235174447,-187500.02235174447,-187500.02235174447,-187500.02235174447,-187500.02235174447,-187500.02235174447,-187500.02235174447,-187500.02235174447,-187500.02235174447,-187500.02235174447,-187500.02235174447,-187500.02235174447,-187500.02235174447,-187500.02235174447,-187500.02235174447,-187500.02235174447,-187500.02235174447,-187500.02235174447,-187500.02235174447,-187500.02235174447,-187500.02235174447,-187500.02235174447,-187500.02235174447,-187500.02235174447,-187500.02235174447,-187500.02235174447,-187500.02235174447,-187500.02235174447,-187500.02235174447,-187500.02235174447,-187500.02235174447,-187500.02235174447,-187500.02235174447,-187500.02235174447,-187500.02235174447,-187500.02235174447,-187500.02235174447,-187500.02235174447,-187500.02235174447,-187500.02235174447,-187500.02235174447,-187500.02235174447,-187500.02235174447,-187500.02235174447,-187500.02235174447,-187500.02235174447,-187500.02235174447,-187500.02235174447,-187500.02235174447,-187500.02235174447,-187500.02235174447,-187500.02235174447,-187500.02235174447,-187500.02235174447,-187500.02235174447,-187500.02235174447,-187500.02235174447,-187500.02235174447,-187500.02235174447,-187500.02235174447,-187500.02235174447,-187500.02235174447,-187500.02235174447,-187500.02235174447,-187500.02235174447,-187500.02235174447,-187500.02235174447,-187500.02235174447,-187500.02235174447,-187500.02235174447,-187500.02235174447,-187500.02235174447,-187500.02235174447,-187500.02235174447,-187500.02235174447,-187500.02235174447,-187500.02235174447,-187500.02235174447,-187500.02235174447,-187500.02235174447,-187500.02235174447,-187500.02235174447,-187500.02235174447,-187500.02235174447,-187500.02235174447,-187500.02235174447,-187500.02235174447,-187500.02235174447,-187500.02235174447,-187500.02235174447,-187500.02235174447,-187500.02235174447,-187500.02235174447,-187500.02235174447,-187500.02235174447,-187500.02235174447,-187500.02235174447,-187500.02235174447,-187500.02235174447,-187500.02235174447,-187500.02235174447,-187500.02235174447,-187500.02235174447,-187500.02235174447,-187500.02235174447,-187500.02235174447,-187500.02235174447,-187500.02235174447,-187500.02235174447,-187500.02235174447,-187500.02235174447,-187500.02235174447,-187500.02235174447,-187500.02235174447,-187500.02235174447,-187500.02235174447,-187500.02235174447,-187500.02235174447,-187500.02235174447,-187500.02235174447,-187500.02235174447,-187500.02235174447,-187500.02235174447,-187500.02235174447,-187500.02235174447,-187500.02235174447,-187500.02235174447,-187500.02235174447,-187500.02235174447,-187500.02235174447,-187500.02235174447,-187500.02235174447,-187500.02235174447,-187500.02235174447,-187500.02235174447,-187500.02235174447,-187500.02235174447,-187500.02235174447,-187500.02235174447,-187500.02235174447,-187500.02235174447,-187500.02235174447,-187500.02235174447,-187500.02235174447,-187500.02235174447,-187500.02235174447,-187500.02235174447,-187500.02235174447,-187500.02235174447,-187500.02235174447,-187500.02235174447,-187500.02235174447,-187500.02235174447,-187500.02235174447,-187500.02235174447,-187500.02235174447,-187500.02235174447,-187500.02235174447,-187500.02235174447,-187500.02235174447,-187500.02235174447,-187500.02235174447,-187500.02235174447,-187500.02235174447,-187500.02235174447,-187500.02235174447,-187500.02235174447,-187500.02235174447,-187500.02235174447,-187500.02235174447,-187500.02235174447,-187500.02235174447,-187500.02235174447,-187500.02235174447,-187500.02235174447,-187500.02235174447,-187500.02235174447,-187500.02235174447,-187500.02235174447,-187500.02235174447,-187500.02235174447,-187500.02235174447,-187500.02235174447,-187500.02235174447,-187500.02235174447,-187500.02235174447,-187500.02235174447,-187500.02235174447,-187500.02235174447,-187500.02235174447,-187500.02235174447,-187500.02235174447,-187500.02235174447,-187500.02235174447,-187500.02235174447,-187500.02235174447,-187500.02235174447,-187500.02235174447,-187500.02235174447,-187500.02235174447,-187500.02235174447,-187500.02235174447,-187500.02235174447,-187500.02235174447,-187500.02235174447,-187500.02235174447,-187500.02235174447,-187500.02235174447,-187500.02235174447,-187500.02235174447,-187500.02235174447,-187500.02235174447,-187500.02235174447,-187500.02235174447,-187500.02235174447,-187500.02235174447,-187500.02235174447,-187500.02235174447,-187500.02235174447,-187500.02235174447,-187500.02235174447,-187500.02235174447,-187500.02235174447,-187500.02235174447,-187500.02235174447,-187500.02235174447,-187500.02235174447,-187500.02235174447,-187500.02235174447,-187500.02235174447,-187500.02235174447,-187500.02235174447,-187500.02235174447,-187500.02235174447,-187500.02235174447,-187500.02235174447,-187500.02235174447,-187500.02235174447,-187500.02235174447,-187500.02235174447,-187500.02235174447,-187500.02235174447,-187500.02235174447,-187500.02235174447,-187500.02235174447,-187500.02235174447,-187500.02235174447,-187500.02235174447,-187500.02235174447,-187500.02235174447,-187500.02235174447,-187500.02235174447,-187500.02235174447,-187500.02235174447,-187500.02235174447,-187500.02235174447,-187500.02235174447,-187500.02235174447,-187500.02235174447,-187500.02235174447,-187500.02235174447,-187500.02235174447,-187500.02235174447,-187500.02235174447,-187500.02235174447,-187500.02235174447,-187500.02235174447,-187500.02235174447,-187500.02235174447,-187500.02235174447,-187500.02235174447,-187500.02235174447,-187500.02235174447,-187500.02235174447,-187500.02235174447,-187500.02235174447,-187500.02235174447,-187500.02235174447,-187500.02235174447,-187500.02235174447,-187500.02235174447,-187500.02235174447,-187500.02235174447,-187500.02235174447,-187500.02235174447,-187500.02235174447,-187500.02235174447,-187500.02235174447,-187500.02235174447,-187500.02235174447,-187500.02235174447,-187500.02235174447,-187500.02235174447,-187500.02235174447,-187500.02235174447,-187500.02235174447,-187500.02235174447,-187500.02235174447,-187500.02235174447,-187500.02235174447,-187500.02235174447,-187500.02235174447,-187500.02235174447,-187500.02235174447,-187500.02235174447,-187500.02235174447,-187500.02235174447,-187500.02235174447,-187500.02235174447,-187500.02235174447,-187500.02235174447,-187500.02235174447,-187500.02235174447,-187500.02235174447,-187500.02235174447,-187500.02235174447,-187500.02235174447,-187500.02235174447,-187500.02235174447,-187500.02235174447,-187500.02235174447,-187500.02235174447,-187500.02235174447,-187500.02235174447,-187500.02235174447,-187500.02235174447,-187500.02235174447,-187500.02235174447,-187500.02235174447,-187500.02235174447,-187500.02235174447,-187500.02235174447,-187500.02235174447,-187500.02235174447,-187500.02235174447,-187500.02235174447,-187500.02235174447,-187500.02235174447,-187500.02235174447,-187500.02235174447,-187500.02235174447,-187500.02235174447,-187500.02235174447,-187500.02235174447,-187500.02235174447,-187500.02235174447,-187500.02235174447,-187500.02235174447,-187500.02235174447,-187500.02235174447,-187500.02235174447,-187500.02235174447,-187500.02235174447,-187500.02235174447,-187500.02235174447,-187500.02235174447,-187500.02235174447,-187500.02235174447,-187500.02235174447,-187500.02235174447,-187500.02235174447,-187500.02235174447,-187500.02235174447,-187500.02235174447,-187500.02235174447,-187500.02235174447,-187500.02235174447,-187500.02235174447,-187500.02235174447,-187500.02235174447,-187500.02235174447,-187500.02235174447,-187500.02235174447,-187500.02235174447,-187500.02235174447,-187500.02235174447,-187500.02235174447,-187500.02235174447,-187500.02235174447,-187500.02235174447,-187500.02235174447,-187500.02235174447,-187500.02235174447,-187500.02235174447,-187500.02235174447,-187500.02235174447,-187500.02235174447,-187500.02235174447,-187500.02235174447,-187500.02235174447,-187500.02235174447,-187500.02235174447,-187500.02235174447,-187500.02235174447,-187500.02235174447,-187500.02235174447,-187500.02235174447,-187500.02235174447,-187500.02235174447,-187500.02235174447,-187500.02235174447,-187500.02235174447,-187500.02235174447,-187500.02235174447,-187500.02235174447,-187500.02235174447,-187500.02235174447,-187500.02235174447,-187500.02235174447,-187500.02235174447,-187500.02235174447,-187500.02235174447,-187500.02235174447,-187500.02235174447,-187500.02235174447,-187500.02235174447,-187500.02235174447,-187500.02235174447,-187500.02235174447,-187500.02235174447,-187500.02235174447,-187500.02235174447,-187500.02235174447,-187500.02235174447,-187500.02235174447,-187500.02235174447,-187500.02235174447,-187500.02235174447,-187500.02235174447,-187500.02235174447,-187500.02235174447,-187500.02235174447,-187500.02235174447,-187500.02235174447,-187500.02235174447,-187500.02235174447,-187500.02235174447,-187500.02235174447,-187500.02235174447,-187500.02235174447,-187500.02235174447,-187500.02235174447,-187500.02235174447,-187500.02235174447,-187500.02235174447,-187500.02235174447,-187500.02235174447,-187500.02235174447,-187500.02235174447,-187500.02235174447,-187500.02235174447,-187500.02235174447,-187500.02235174447,-187500.02235174447,-187500.02235174447,-187500.02235174447,-187500.02235174447,-187500.02235174447,-187500.02235174447,-187500.02235174447,-187500.02235174447,-187500.02235174447,-187500.02235174447,-187500.02235174447,-187500.02235174447,-187500.02235174447,-187500.02235174447,-187500.02235174447,-187500.02235174447,-187500.02235174447,-187500.02235174447,-187500.02235174447,-187500.02235174447,-187500.02235174447,-187500.02235174447,-187500.02235174447,-187500.02235174447,-187500.02235174447,-187500.02235174447,-187500.02235174447,-187500.02235174447,-187500.02235174447,-187500.02235174447,-187500.02235174447,-187500.02235174447,-187500.02235174447,-187500.02235174447,-187500.02235174447,-187500.02235174447,-187500.02235174447,-187500.02235174447,-187500.02235174447,-187500.02235174447,-187500.02235174447,-187500.02235174447,