-39624.25614884569,-39691.49019616726,-39757.62900801051,-39716.3229842571,-39652.307588137104,-39696.16171075842,-39761.160583634446,-39696.89931832544,-39661.42709987487,-39720.9274436149,-39836.28479674873,-39815.140046494016,-39777.49970883128,-39794.28586891721,-39874.550983256224,-39835.815410115174,-39831.635633902035,-39812.14491273701,-39836.77653512675,-39913.26420465281,-39899.18260564597,-39844.82316313066,-39935.168914219015,-39931.14560021706,-39908.458579594924,-39935.54889387475,-39991.160034079556,-40067.33477918324,-40010.76251396686,-39931.43617289498,-39960.71695813143,-40036.57877881274,-40050.302749908304,-40070.866354807185,-40112.2170820495,-40212.4423041871,-40294.18263366016,-40239.08558357783,-40207.90490006267,-40365.21647753912,-40368.14455606277,-40298.72003778458,-40231.48599046302,-40245.96992087006,-40364.188297294175,-40390.764521451536,-40235.66576667616,-40113.04409659435,-40271.31679908238,-40720.29628995613,-40841.08511699261,-40608.22464325722,-40761.4682032428,-40762.69754918785,-40527.2666248401,-40477.84691784941,-40713.30019394162,-40696.558737344596,-40536.453191811226,-40399.48170178911,-40413.38448684031,-40321.831741551374,-40185.39669339618,-40346.91039883022,-40620.56280619655,-40340.294282471456,-39881.122396126084,-39393.228518155636,-39338.89142738479,-39423.291614448026,-39640.505867064705,-39863.12924183956,-40113.8711111392,-40308.21952917809,-40322.50229388503,-40409.69644900518,-40772.15233709244,-40779.7742819517,-40520.33758405895,-40406.075466403425,-40503.529072228564,-40696.91636525588,-40677.09036792402,-40647.34019605401,-40938.7622402623,-41225.40101115716,-41399.09641731935,-41367.871030315284,-41100.767684074366,-41048.956340426965,-41124.728754130454,-41376.18587925266,-41530.45761948319,-41753.863305313986,-41985.98617148235,-42256.21876194701,-42620.68630703525,-42456.40098528874,-42064.48549800939,-41683.85764167996,-41352.582437107856,-41256.939322583596,-41244.221179988526,-41121.107771528696,-41167.15236510663,-41322.38523034874,-41413.44623725966,-41419.481208262594,-41623.23971071717,-41933.68308945693,-42445.98507237257,-43034.238282947335,-43088.351856273635,-42842.57207424308,-42465.945180171155,-41690.943144672296,-41002.24119451537,-40608.20229151277,-41064.11082316766,-41595.5682510815,-41646.418469717326,-41833.90490220844,-42260.353834671245,-42615.81362674399,-42839.15225734142,-42817.49341696423,-42575.356969279885,-42245.84755251975,-41709.13746465892,-41349.02850973946,-41201.81992075681,-41100.767684074366,-41013.26060453184,-40948.0158624668,-40979.598877382145,-41102.868748053166,-41021.79897091377,-40847.209494973366,-40704.784179304144,-40725.52659815867,-40675.3022283676,-40577.96038126473,-40564.79520378056,-40642.020480873645,-40743.89973210094,-40808.45157008786,-40777.31559006162,-40867.28136149423,-40957.87298177159,-40959.92934226148,-40928.88276921306,-41013.70763942094,-41132.641271667635,-41071.46454709346,-40867.41547196096,-40678.498527824704,-40942.49498158634,-41078.594753574704,-41025.77758142681,-40987.28787747477,-41121.64421339562,-41064.58020980123,-43191.50515693488,-43072.079786310176,-43015.23930016033,-43184.486709175915,-43205.452645474994,-43112.58114726319,-43104.89214717056,-43242.780058715354,-43303.107417000225,-43245.08228839425,-43215.108599079686,-43238.13089586865,-43355.99164438149,-43282.78968129036,-43219.95892762648,-43257.01811993338,-43355.745775192474,-43300.04522800985,-43217.92491888105,-43289.80812904932,-43403.287935648914,-43386.01003718496,-43331.360021991735,-43327.38141147869,-43480.9155441422,-43555.57037062292,-43537.21958842511,-43508.49759680004,-43680.04723549452,-43673.38641564684,-43616.90355740828,-43684.51758438559,-43765.74382373617,-43827.41228668836,-43796.43276887331,-43810.89434753589,-43930.85616002753,-44118.186130307455,-44159.82743022769,-44142.661290486016,-44207.883680806604,-44352.812391854815,-44231.35301248467,-44168.097575676155,-44245.30050102479,-44450.48951512451,-44532.02867889746,-44604.78360709949,-44593.83125231639,-44642.13337208431,-44677.829107979436,-44651.61051173336,-44634.37731675831,-44720.54329163353,-44715.76001832009,-44663.1440118723,-44674.18577363322,-44773.0698911035,-44860.53226715711,-44786.63739998787,-44761.73755666466,-44887.2426017812,-45064.7378045008,-44996.14030076746,-44940.663271029385,-45032.08190585159,-45260.852010351664,-45473.104175699256,-45573.32939783685,-45653.34864298686,-45814.28120306507,-45850.71454652722,-46021.10189451002,-46259.8185252927,-46769.03596747351,-46834.19130256073,-46348.17497112453,-46074.29904631365,-46126.266852172244,-46191.91392563748,-46213.304545081206,-46221.08295215166,-46391.47030013446,-46527.39125816718,-46566.93149410862,-46580.186078570616,-46654.6620910957,-46731.99912691106,-46683.83111760987,-46632.757381529496,-46646.90603576971,-46836.06884909497,-46805.51401442457,-46654.88560854025,-46398.689913593524,-46614.920689454164,-46620.28510812344,-46451.48473399696,-46481.279609355886,-46757.86009524585,-46878.24659088214,-46893.51283234511,-46894.3174951455,-47025.20931067578,-47104.6697622144,-46994.69917949429,-46914.38936166637,-47045.437639407835,-47176.41886191593,-47130.016640426715,-47074.092575799536,-47134.39758233995,-47217.09903682459,-47161.420841386425,-47113.14107336296,-47132.810608483625,-47272.37490086257,-47232.16411258747,-47099.43945401185,-47057.954616302806,-46983.94799041128,-46995.70500799477,-47115.84563444205,-46967.43005125881,-46907.05798948503,-47036.42988639235,-47377.293989335776,-47369.00149214286,-47403.17730941502,-47426.73604807092,-47400.919783225036,-47355.99277686987,-47156.4811058618,-47022.90708099688,-47097.33839003306,-47036.69810732581,-47007.73024651173,-47017.00622046068,-47271.234961895345,-47411.0898269522,-47327.673116645,-47325.23677649937,-47512.74556073494,-47610.46738749354,-47616.07767535182,-47679.511926115985,-47669.163068433176,-47784.69923552266,-47736.84415064385,-47658.41187935018,-47651.7957629914,-47840.13156177182,-47730.49625521854,-47663.28455964143,-47692.96767627808,-47759.46411603262,-47690.710150088096,-47588.87560234971,-47570.97185504101,-47720.50502544702,-47779.133651153286,-47706.82575784037,-47624.66074522266,-47791.44946234816,-47831.1908639897,-47729.64688892924,-47669.788917277925,-47735.92772912118,-47878.24128606812,-48186.58360082908,-48249.59316844859,-48130.92775713537,-48242.26179626725,-48124.57986171006,-47925.09054244644,-47906.359780592895,-47971.649226146845,-47685.14456571872,-47642.20686462008,-48111.32527724806,-48778.01075911651,-48980.517563881585,-48976.471898135176,-49119.90304230488,-49490.49496537387,-49358.26204517628,-49117.01966727015,-48942.31843260747,-49028.3726487604,-49104.01095199716,-49097.10426296047,-49125.71449586326,-49263.49064868577,-49420.31048778421,-49340.559463567675,-49309.155262607965,-49419.72934242837,-49630.93097578657,-49531.398657727084,-49398.517536940286,-49399.568068929686,-49416.98007786037,-49257.74625036076,-49083.849678498475,-48975.73429056815,-49130.05073428759,-49143.81940887206,-49036.41927676431,-49013.240517764156,-49173.36841504198,-49050.143247859865,-48859.438164167186,-48726.758209080486,-48813.52768105599,-48846.31769017193,-48736.43651442963,-48632.74677190147,-48704.83114776983,-48785.409186531215,-48595.50876563892,-48533.437971286534,-48602.437806420065,-48772.534581724954,-48602.303695953335,-48411.50920528283,-48398.20991733193,-48548.681861005054,-48503.93366860553,-48304.354942364094,-48172.41259484441,-48194.07143522161,-48038.07861066802,-47886.89141117232,-47729.557481951415,-47813.98002075911,-47867.646559196306,-47806.71570381114,-47756.044299130954,-46285.56773490521,-46216.41143756049,-46400.5004048944,-46604.66123874918,-46880.66057928331,-46805.17873825774,-46700.505518973536,-46803.92704056824,-46766.08553720541,-46678.33258847387,-46655.01971900699,-46844.54016024353,-46878.85008798243,-46823.887148366826,-46726.81352219743,-46868.210657621705,-46894.205736423224,-46720.33151630539,-46725.78534195248,-46867.27188435458,-46916.803350067545,-46784.391615914305,-46726.2770803305,-46807.27980223654,-46912.80238781004,-46790.672456106244,-46749.94757770868,-46815.59465117391,-46911.28246918708,-46847.736459700645,-46772.88046751982,-46797.42268293175,-46938.08221078899,-46914.322306433,-46788.14670898279,-46730.94859492166,-46875.43027108077,-46832.134942070836,-46753.16622891024,-46774.13216520932,-46899.30193415903,-46860.029919151064,-46670.4647744256,-46345.22454085643,-46580.85663090427,-46735.35188857936,-46750.70753702016,-46775.49562162109,-46858.55470401701,-46946.57587368201,-46825.496473967614,-46839.08633459644,-46888.975428220685,-47079.56875319109,-46997.91783069585,-46850.35161380191,-46889.31070438751,-47050.667947610375,-47093.71740743129,-47092.4657097418,-47084.37437824898,-47222.46345549387,-47227.42554276295,-47202.90567909547,-47187.57238239913,-47353.869361146615,-47373.516544522834,-47303.35441867762,-47309.50114840283,-47423.38328640262,-47508.92341243308,-47269.44682233892,-47172.21673395833,-47278.096947443126,-47360.19490482747,-47281.44970911142,-47251.63248200804,-47342.15704705204,-47410.53103334082,-47296.537136618754,-47233.3487550436,-47225.21272006187,-47351.03068960079,-47276.44291835343,-47153.39656512697,-47096.33256153257,-47143.919425477914,-47007.28321162263,-46891.769396277596,-46714.63182146929,-46734.36841182333,-46654.2597596955,-46469.232019094474,-46305.90782235954,-46354.1428868941,-46401.03684676133,-46279.085729013175,-46176.737091152325,-46350.63366301461,-46478.50799304342,-46575.80513665738,-46604.97416317155,-46770.35472039637,-47261.06491816818,-47175.68125434891,-46983.50095552218,-46813.15831102828,-46816.26520350757,-46662.21698072159,-46390.732692567435,-46140.884893046015,-46007.17675771436,-45786.45328121821,-45709.42916982522,-45769.26478973208,-46098.84126172558,-46332.66286047255,-46328.21486332594,-46572.51943022245,-46450.4118502631,-46573.189982556105,-46761.8387057589,-46671.76117560401,-46582.778880927435,-46725.49476927457,-46775.160345454264,-46670.97886454807,-46680.74657687504,-46821.227290776646,-46951.537960951086,-46882.247553139634,-46834.168950816274,-47020.604851317985,-47483.35301677621,-47244.68108948244,-47151.0272802147,-47203.06214130666,-47341.86647437412,-47456.37446121866,-47382.07726264921,-47308.89765130254,-47451.948815816504,-47505.101264131226,-47410.37457112963,-47415.06843746525,-47548.68716581907,-47603.158367056654,-47522.759142250914,-47485.25291505491,-47633.512036026965,-47863.75735566108,-47814.82938704841,-47730.38449649626,-47752.08804036237,-47917.22272839818,-47787.06852043492,-47637.31183258437,-47596.54225069789,-47689.078472742855,-47706.89281307373,-47516.54535729234,-47462.63294966614,-47586.84159360428,-47569.00490152895,-47491.53375524685,-47433.06159175177,-47259.79086873423,-47344.61573894212,-47328.38837246757,-47251.74424073032,-47381.47376554892,-47453.02169955036,-47331.20469226893,-47162.449021631364,-47132.43062882789,-47234.175769588444,-47095.81847141009,-46941.412620712836,-46907.59443135196,-47033.03242123514,-46922.83832107048,-46669.8165738364,-46621.58150930185,-46776.009711743565,-46704.1712050642,-46586.37751178474,-46433.53628319935,-46576.38628201321,-46563.53402895141,-46477.09983314274,-46383.69189306401,-46382.820175030254,-46445.94150137204,-46300.94573509046,-46156.32994846463,-46245.62516756358,-46378.72980579494,-46226.06739116519,-46138.06857324464,-46180.916867365464,-46253.15770544502,-46253.224760678386,-46117.30380264566,-46087.7771482202,-46203.313315309686,-46243.4123448625,-46072.75677594623,-45951.409155298374,-46062.34086303006,-46004.62865884646,-45814.52707225407,-45702.56718427744,-45842.55615980103,-45883.45985215424,-45732.20559742518,-45567.80851695639,-45692.531251017004,-45777.73610088064,-45636.94246255666,-45516.801836109385,-45606.65584881972,-45800.44547324723,-45833.816627719,-45721.09678043089,-45650.55467492994,-45660.456497723644,-45392.03439855986,-45122.31589821767,-45023.230615047294,-45139.280872259245,-45036.28403380919,-44769.98535036866,-44539.5612167789,-44513.34262053283,-44319.75416180542,-43770.61650402743,-43350.98485362349,-43472.06425333789,-43678.92964827176,-43768.224867370714,-43913.51120633021,-44207.21312847294,-44399.75105521096,-44304.689086042534,-44175.49600309086,-44266.35584430169,-44375.56646771031,-44293.177937648055,-44162.017901184314,-44329.946557277035,-44646.64842446428,-44477.13279451523,-44228.223768260934,-44132.20067408093,-44236.31509975375,-44181.35216013815,-44053.43312662043,-44027.728620496826,-44185.19666018447,-44219.774808856826,-44072.65562685199,-43957.812363840625,-44102.29403999973,-44174.400767612555,-44057.14351620001,-43924.0165262242,-44118.119075074086,-44247.26745453685,-44309.025324466864,-44235.55514044227,-44168.99164545437,-44244.07115507974,-44118.52140647428,-43919.926156988884,-43963.51205867673,-44157.03346217078,-44077.19303097642,-43878.44131927983,-43864.002092361705,-44045.92294048345,-44029.963794942356,-43852.468592222765,-43760.20059111126,-43953.52082890521,-43977.75011989476,-43757.585437009984,-43702.287221227554,-43933.40425889543,-43911.812473751605,-43790.174280425825,-43599.24567928859,-43722.33673600396,-43886.577354261564,-43827.68050762183,-43707.09284628545,-43779.825422743015,-43959.84637258606,-43900.346028846034,-43770.594152282974,-43836.28592923712,-44022.18538787191,-43986.73552116579,-43842.745583384705,-43823.36662094195,-44064.72075757036,-44125.808075166715,-44004.97454464132,-43822.472551163744,-44032.400135087984,-44075.71781584237,-43951.41976492641,-43835.32480422554,-43980.16410829593,-44021.58189077162,-43848.35587124299,-43699.426197937275,-43810.782588813614,-43929.38094489348,-43850.59104568852,-43716.70409640123,-43736.351279777446,-43898.177909633865,-43875.84851692302,-43720.10156155843,-43693.68179961226,-43848.57938868754,-43782.418225099835,-43643.03274667654,-43582.37011222483,-43803.40651314337,-43792.118882193434,-43621.552720254986,-43535.05146921295,-43717.12877954588,-43737.379460022385,-43659.75185152911,-43595.91526936475,-43701.54961366053,-43801.12663520892,-43685.74693033063,-43528.770629021004,-43551.74822232106,-43775.3327221075,-43667.910238255296,-43514.06318116942,-43571.641274886286,-43713.2172242662,-43621.64212723281,-43454.92046534067,-43426.24317720452,-43633.33208958293,-43612.477912006136,-43454.71929964057,-43379.6397900152,-43592.115472807345,-43590.05911231746,-43455.74747988552,-43334.44456272657,-43531.85516975584,-43565.3827864388,-43388.17815639712,-43278.922829499585,-43397.02944720143,-43503.17788161968,-43460.351939243315,-43270.78679451785,-43398.616421057755,-43553.5810653664,-43449.13136352675,-43324.25216725495,-43315.71380087302,-43404.83020601633,-43298.03357100887,-43152.09903146017,-43075.991341589855,-43206.92786060904,-43186.096034776696,-43068.794079875246,-42994.94391619491,-43260.21441939049,-43288.31056217082,-43042.061393506694,-42957.37063376554,-43200.82583437274,-43263.99186420344,-43068.995245575345,-42985.01974165675,-43106.05443788224,-43257.44280307803,-43121.09716190066,-42909.85082505355,-43018.301489150705,-43187.45949118847,-43057.37233845858,-42874.24449613625,-42893.668162067916,-42990.67473300394,-42799.29909697761,-42482.3290088569,-42208.45308404602,-42186.660133202095,-41987.79666278323,-41751.06933725707,-41781.49006146075,-42225.6192237877,-42537.15783800576,-42605.57652778346,-42625.78250477106,-42746.839552741,-42864.63324602047,-42790.71602710677,-42645.65320559183,-42791.00659978469,-42923.66420312694,-42639.50647586662,-42338.719050731546,-42610.583318541445,-42863.58271403107,-42842.057984120605,-42707.276965055105,-42724.2866425856,-42860.162897129405,-42841.163914342396,-42749.90174173138,-42679.91842984181,-42818.34278325353,-42840.53806549765,-42686.10986305593,-42608.48225456265,-42813.20188202881,-42819.32626000956,-42691.4295782363,-42591.62903924335,-42711.85907266844,-42772.5440588646,-42630.07403970647,-42508.592308591884,-42623.524978581074,-42690.24493578016,-42616.10419942191,-42504.390180634284,-42560.20248653919,-42713.66956396933,-42603.743684738125,-42449.89662765225,-42435.72562166758,-42605.420065572274,-42500.16570093223,-42414.93849932415,-42401.639211373236,-42547.86432359985,-42510.31339291494,-42368.60333306829,-42293.4344164651,-42490.33093337189,-42486.10645366985,-42378.25928667299,-42282.929096571104,-42420.30291799342,-42527.36777393434,-42695.8775753829,-42576.78748092502,-42634.075001963975,-42743.2409218837,-42641.24991193413,-42481.9266774567,-42599.4521498027,-42753.634483055415,-42687.40626423434,-42542.27638748603,-42592.61251599938,-42733.9872996792,-42672.9223338273,-42570.93132387773,-42544.35509972037,-42761.390538381405,-42758.730680791225,-42619.56871981248,-42578.82148967046,-42759.17771568033,-42811.436094216835,-42686.26632526712,-42552.46878295765,-42710.562671490035,-42724.957194919254,-42618.495836078626,-42512.570919104925,-42574.57465822395,-42714.340116302985,-42623.14499892533,-42500.32216314342,-42537.247244983584,-42653.20809521772,-42547.28317824402,-42405.908394564205,-42460.26783707951,-42653.07398475099,-42633.00211823012,-42563.823469140945,-42492.07436943941,-42694.558822460036,-42663.98163604518,-42537.71663161715,-42477.43397682119,-42620.84276924643,-42610.82918773046,-42544.91389333176,-42439.793639158444,-42549.13837303381,-42586.84576592991,-42502.311468399945,-42434.764496656004,-42472.024854663,-42412.77038011198,-42331.298271572385,-42299.55879444585,-42422.82866511687,-42621.58037681346,-42543.058698541965,-42405.97544979757,-42400.63338287275,-42568.47263198765,-42568.60674245438,-42449.091964851854,-42370.86085925828,-42510.80513129296,-42487.67107578171,-42358.88032423024,-42304.543233459386,-42451.125973597285,-42534.69914611568,-42383.57900185335,-42301.07871306881,-42381.74615880801,-42505.68658181269,-42459.46317427912,-42349.693757259105,-42396.945345037624,-42510.827483037414,-42431.63525243226,-42326.17972209212,-42335.85802744127,-42511.85566328236,-42419.14062728174,-42303.22448053652,-42236.1692471706,-42426.98608958555,-42487.67107578171,-42381.567344852374,-42211.22470035848,-42409.23880448804,-42503.25024166706,-42392.81027231339,-42360.109670175276,-42496.20944216364,-42405.84133933084,-42119.11316145815,-41797.44920700183,-41691.90426968387,-41654.643911676874,-41450.81835398893,-41340.57955033536,-41624.67022236231,-42110.35127763168,-42244.01470947441,-42285.164271016634,-42404.857862574805,-42559.59898943889,-42545.27152124304,-42423.92390059518,-42511.36392490434,-42698.78330216209,-42694.625877693405,-42567.444451742704,-42493.46017759564,-42668.80961284752,-42717.15643610435,-42588.656257230796,-42529.04415476849,-42684.38877873287,-42805.602288914,-42655.55502838553,-42522.83036980991,-42625.35782162641,-42721.91735767333,-42654.75036558513,-42508.61466033634,-42619.09933317892,-42778.17669846734,-42719.32455531652,-42581.168422838266,-42615.09837092142,-42821.00264084371,-42727.12531413142,-42601.217937614674,-42590.57850725395,-42822.12022806647,-42830.300966537114,-42661.65705462183,-42519.924643030725,-42708.21573832223,-42762.21755292625,-42641.47342937868,-42584.52118450656,-42696.90575562784,-42796.32631496505,-42668.474336680694,-42482.03843617898,-42586.197565340706,-42711.70261045726,-42584.85646067339,-42476.27168610951,-42528.239491968096,-42695.98933410518,-42605.80004522801,-42449.00255787403,-42481.30082861195,-42727.326479831514,-42679.00200831914,-42615.16542615479,-42582.57658273895,-43021.43073337445,-43120.85129271165,-42902.72061857231,-42801.578974912045,-42958.44351749939,-43017.42977111695,-42954.59901745308,-42839.48753350825,-42971.76515719476,-43077.24303927935,-42999.16839589696,-42884.32513288559,-42955.06840408664,-43118.37024907712,-43089.268277796305,-42962.22096231234,-42981.91284917747,-43129.814342238235,-43051.20325698892,-42922.47956067081,-42917.38336293499,-43125.07577241371,-43056.99235880284,-42887.32026664261,-42816.15231229691,-43071.72215839889,-43119.7784089778,-42989.26657310326,-42925.16177000544,-43060.56863791569,-43122.23710086788,-42987.970171924855,-42887.655542809436,-43042.44137316244,-43112.31292632972,-42947.35705224956,-42834.61485321699,-42947.625273183025,-43107.12732161609,-43043.961291785396,-42893.33288590108,-42947.66997667193,-43062.33442572766,-42691.25076428065,-42635.259644420104,-42812.7548471397,-43024.247053175815,-43056.85824833611,-42886.00151371974,-42752.785116766114,-42892.170595189404,-42961.885686145506,-42830.54683572613,-42701.912546385836,-42892.170595189404,-43007.17032041196,-42932.47079044233,-42815.68292566334,-42941.25502601326,-43033.344213169126,-42919.931461802895,-42773.549887365094,-42864.58854253156,-43044.05069876322,-42977.129575864026,-42819.840350132035,-42840.91804515339,-43013.13823618153,-42919.39501993597,-42869.617685034005,-42880.860612495024,-43102.14288260256,-43199.68589540552,-43016.8039222722,-42999.66013427498,-43260.21441939049,-43308.4718356695,-43149.595636081176,-43004.666925032965,-43189.96288656746,-43364.75352820796,-43234.5546167558,-43070.62692292058,-43250.89374195263,-43346.045118098875,-43259.05212867881,-43227.469113763465,-43252.570122786776,-43431.87581680725,-43353.08591760229,-43099.5724319902,-42972.14513685049,-42974.11209036256,-42723.280814085105,-42332.013527394956,-42141.75547859138,-42464.6711307372,-42614.360763354394,-42719.92805241681,-42861.05696690762,-43185.22431674294,-43375.325903335324,-43245.28345409435,-43166.717072333944,-43382.5902202833,-43476.758119673505,-43318.843045096764,-43235.67220397857,-43372.91191493415,-43554.83276305589,-43506.91062294372,-43384.51247030646,-43441.77763960095,-43607.426417759234,-43558.38669042429,-43447.8573140928,-43493.343114059346,-43617.50705450858,-43597.45753973217,-43537.26429191403,-43460.01666307648,-43671.15124120131,-43701.90724157182,-43608.901632893285,-43623.47497027814,-43802.0877602205,-43886.9573339173,-43801.707780564764,-43705.50587242912,-43909.35378186152,-44034.165922899956,-43925.31292740261,-43827.68050762183,-43978.152451294955,-44111.145330804036,-44026.611033274065,-43908.30324987212,-44023.48178905032,-44166.30943611973,-44096.303772485706,-44013.22233834533,-44038.94919621339,-44178.379378125595,-44163.04608142925,-44143.153028864035,-44102.450502210915,-44312.37808613516,-44339.75897309291,-44236.58332068722,-44192.908012021544,-44383.03195035839,-44458.55849487287,-44405.4283983026,-44614.752485126555,-44903.17939557784,-44907.26976481316,-44755.6131786839,-44660.685319982214,-44866.36607245995,-44983.35510293902,-44980.22585871528,-44954.722518291775,-45085.01083672176,-45240.24370196387,-45175.9600849104,-45160.403270769515,-45170.97564589687,-45346.414488126575,-45353.81291554128,-45248.08916426768,-45237.80736181824,-45436.84964619275,-45498.562812633856,-45426.5231402544,-45383.205459500015,-45599.68210454966,-45616.468264635594,-45485.84467003879,-45414.54260522635,-45624.96192752862,-45780.44066195973,-45793.40467374381,-45718.1910536517,-45848.434668592774,-46065.47010725381,-46049.39920299044,-45994.77153954167,-46052.617854192,-46253.44827812294,-46242.1159436841,-46167.88580034802,-46227.8108272327,-46433.916262855084,-46429.33415524175,-46359.21673288545,-46391.55970711228,-46624.12960816975,-46670.48712617006,-46633.02560246296,-46608.282221350935,-46863.47208779718,-47006.143272655405,-46871.988102434654,-46561.388261483706,-46857.05713713851,-47070.69511064233,-47061.083860526545,-47098.38892202246,-47225.235071806324,-47448.70781287048,-47424.120893969644,-47365.894599663574,-47446.919673314056,-47639.994041919,-47607.40519850316,-47609.75213167097,-47677.14264120372,-47915.23342314165,-47891.94290541922,-47862.93034111623,-47877.548381990004,-48099.85883234249,-48235.04218280819,-48195.47959512229,-48197.35714165654,-48415.934850684986,-48524.20670082649,-48543.585663269245,-48569.15605892611,-48759.14588679623,-48924.07940913194,-48890.21651628215,-48936.618737771365,-49057.85459969695,-49225.09035171156,-49229.471293624796,-49195.60840077501,-49226.34204940106,-49431.016973378304,-49405.915964354994,-49356.74212655331,-49279.76271864924,-49461.92943595999,-49360.698385321906,-49141.85245535999,-48978.282389436055,-48993.97331404368,-48853.29143444198,-48632.99264109047,-48644.43673425159,-49038.386230276374,-49407.50293821132,-49495.79232880978,-49467.785593007284,-49627.175882718075,-49772.66338737767,-49664.503295958435,-49593.44710033502,-49708.80445346886,-49884.086833487374,-49796.982085345044,-49665.64323492566,-49690.20780208204,-49887.48429864458,-49911.579479167405,-49754.960805769064,-49722.23785188649,-49883.14806022025,-49874.9226182607,-49727.19993915557,-49659.11652554471,-49876.598999094844,-49962.60851175887,-49835.38238231926,-49741.01331722896,-49912.69706639017,-50025.171044489274,-49901.297676717964,-49791.48355620904,-49888.89245854527,-50066.23119905367,-49993.856250507386,-49868.999405980045,-49958.9428256682,-50191.333912770024,-50140.64015634539,-49991.5987243174,-50093.70149298925,-50354.47929554931,-50383.98359823032,-50299.69516988935,-50278.84099231255,-50543.70916410794,-50612.70899924148,-50513.86958526011,-50437.426619222955,-50665.056784755805,-50766.19842841607,-50640.089886199225,-50533.539120380774,-50764.92437898212,-50985.536096756,-50913.04938948744,-50851.716202702075,-51046.31048992998,-51271.34785310601,-51343.40987722992,-51607.07105482472,-51734.99008834244,-51909.33369509384,-51899.32011357786,-51824.084141741296,-51858.93051134712,-52172.12315465488,-52258.46794348573,-52206.410730649324,-52246.84503636898,-52553.19804587341,-52650.338727276176,-52623.2707647408,-52661.96163439294,-52948.95803319908,-53070.68563350268,-53035.25811854102,-53015.5662316759,-53254.52873164758,-53455.985004423266,-53446.91019617441,-53428.38060002096,-53627.3558291621,-53904.495108663454,-53956.038231377395,-53967.079993138315,-54165.51878041253,-54475.7609934522,-54596.77333793323,-54561.25641599375,-58870.00219464329,-59266.92447268063,-59890.001701116766,-60186.31877736077,-60283.526513996905,-60522.69017966869,-61083.629558519075,-61403.50537341898,-61587.683747730705,-61839.45379727529,-62370.84416995575,-62792.12984944938,-62941.93124078885,-63169.7625720218,-63739.03915155401,-64215.511288107795,-64414.888848649134,-64631.23138323205,-65170.243700771774,-65763.99544048255,-66082.61955769296,-66363.80450294072,-66952.57180363797,-67689.46411484052,-68233.12559522696,-68652.86900435317,-69314.30182627462,-70261.16642489034,-71025.37256781728,-71719.61775059912,-72638.40855817897,-73824.79445037775,-74812.60744483561,-75642.48301297224,-76572.09206486847,-77823.58858866556,-79017.01528036778,-80140.21279099141,-81480.11046410924,-83317.1109339131,-85161.95686602079,-86896.45223575261,-88692.59371669218,-90648.88544665402,-92555.01986205815,-94086.09200550223,-95388.10347176832,-96783.65698857988,-98219.5777558777,-99344.65281303559,-100361.9924619189,-101432.12693120562,-102490.07969976422,-103225.02740919917,-103715.8270139488,-104161.02906000962,-104958.18167426369,-105489.52734345525,-105787.61020751121,-106126.97674357615,-106678.79661068876,-107079.80925796143,-107297.85052512295,-107514.81890855062,-108003.45039408808,-108564.14390374946,-108845.4406077195,-108971.1691702806,-109390.0185096286,-109792.61813075759,-109907.97548389144,-109946.01815295436,-110199.48693507754,-110550.00699162568,-110629.62390537548,-110632.88726006595,-110850.52619582727,-111307.19468679365,-111435.94073485622,-111500.85020075443,-111688.8060198791,-112105.48724001495,-112302.49551564403,-112366.06387687492,-112607.01568210313,-113049.58022231821,-113337.69420834711,-113415.1206511403,-113441.69687529765,-113784.41617303088,-114063.34359208865,-114137.68549414701,-114095.23953142638,-114283.28475752888,-114514.40179519675,-114586.91085420977,-114663.08559931346,-114844.47000556828,-115090.33919457665,-115064.34411577514,-115087.63463349755,-115185.28940502279,-115607.3350438279,-115822.20236327677,-115650.63037283784,-115530.51209813502,-115836.99921810618,-115961.78900740016,-115956.64810617545,-115942.90178333543,-116200.9303213275,-116375.2739280789,-116383.87934969418,-116325.8095175993,-116563.98970651504,-116721.23422875813,-116652.56966979142,-116688.98066150912,-116933.93342899483,-117157.56263227019,-117185.74818202833,-117164.1116933956,-117296.29991010427,-117623.68591114116,-117672.63623149828,-117612.57709414687,-117677.21833911161,-117907.7318796792,-117995.01544177717,-118030.39825324992,-118040.70240744382,-118413.82007763626,-118664.31607774689,-118771.49269241009,-118899.14350499434,-119219.19813384989,-119525.2605706764,-119622.37890033472,-119498.03614592984,-119677.83357832833,-119865.72234221964,-119853.98767638061,-119832.77587089252,-119941.7629768566,-120156.29502013863,-120198.67392762589,-120106.2941677921,-119987.2711285676,-120344.4520049634,-120465.53140467781,-120480.64118392959,-120569.89169953963,-120880.80446491296,-121071.59895558345,-121088.8321505585,-121104.76894435514,-121345.69839783889,-121469.34824816564,-121416.15109636201,-121426.45525055591,-121632.3148169893,-121736.02691126191,-121643.87066887268,-121619.97665404995,-121918.73007043959,-122130.53520089808,-122162.54289895808,-122121.01335776012,-122288.98671734176,-122523.1212405111,-122480.27294639028,-122431.79201266672,-122520.2155137319,-122811.45874398456,-122870.84732900231,-122879.27393666196,-122946.03859734997,-123227.11178387544,-123345.73249169976,-123263.88040350443,-123176.86506233992,-123403.91408251693,-123603.00107038034,-123596.36260227712,-123629.57729453771,-123988.4122000232,-124137.09600413991,-124077.05921853296,-124066.82211957242,-124276.19090988529,-124449.5733916251,-124385.42388503837,-124384.7086292158,-124563.61199183608,-124841.84650681574,-124932.46047883756,-125005.3048140174,-125118.91873108373,-125382.98224007872,-125467.74005505325,-125399.7460484202,-125481.44167440436,-125858.42619638756,-125985.47351187153,-125991.32966891881,-125959.00904643645,-126115.89594076824,-126131.43040316468,-125912.98680460297,-125556.49883228527,-125557.16938461893,-125547.51343101425,-125485.80026457313,-125565.30541960067,-126024.07497454585,-126513.04173625015,-126663.31251422317,-126738.0120441928,-126867.0933684222,-127138.84587750983,-127152.92747651666,-127133.57086581837,-127231.09152687687,-127479.88879440891,-127596.9672318658,-127551.90611504391,-127573.7661211212,-127861.85775540564,-127939.7982883213,-127879.82855794771,-127881.86256669315,-128154.33033160334,-128343.73901411761,-128319.12974347231,-128320.71671732864,-128635.27281704819,-128870.167299529,-128841.98174977086,-128814.44440060192,-129000.27680400334,-129266.41902523268,-129287.60847897631,-129180.02953291293,-129385.039733057,-129716.42669635138,-129731.84940002555,-129563.74192997719,-129601.31521240655,-129942.40283279454,-129938.58068449268,-129883.7071518549,-129993.49892061937,-130229.22041764503,-130342.05202365543,-130283.04341829341,-130175.64328618566,-130429.60380668686,-130579.20403232623,-130466.28301933802,-130390.01886725651,-130696.1483593164,-131000.55676705323,-131038.66649134953,-131025.79188654327,-131192.80412111332,-131470.77041515952,-131478.30295304095,-131412.29825166444,-131580.78570136856,-132186.38386564064,-132446.08878446685,-132277.08724464028,-132186.83090052975,-132563.033111457,-132694.1707961763,-132665.24763885114,-132652.61890323387,-132958.8378022716,-133088.410864879,-133072.25055363783,-133123.88308332957,-133509.1601025057,-133798.078751335,-133838.5354087991,-133773.2236115007,-133946.56138975162,-134282.7986815928,-134216.95044242745,-134135.2101129544,-134182.52875596628,-134386.6672380766,-134371.66921754708,-134342.9025224331,-134442.81482014834,-134590.44809227565,-134599.29938307995,-134528.82433281236,-134575.02538860147,-134824.49320846717,-134875.61164803646,-134831.19873180374,-134751.26889363158,-134859.16076411735,-134721.54107350603,-134741.16590513778,-134828.44946723574,-134846.82260117802,-134826.86249337942,-134772.14542295283,-134699.7034191732,-134338.7003944755,-134099.98376369284,-134113.5512725772,-134327.2115978255,-134322.2048070675,-133953.93746542186,-133645.6845576387,-133409.60543270176,-133222.47662812195,-132931.45691531384,-132899.35981027602,-133202.42711334553,-133525.1639515357,-133573.4213678147,-133709.1635118918,-134046.1831147889,-134484.36671309074,-134741.59058828242,-134992.82419596007,-135267.92946671598,-135577.43407218863,-135646.88094221128,-135577.6575896332,-135734.70094617616,-136061.6175605795,-136198.72316106834,-136145.92834066492,-136281.4693190419,-136566.65522654715,-136702.44207411315,-136535.2733773319,-136462.965484019,-136537.0838686328,-136517.28022304538,-136143.22377958582,-135779.4044350868,-135424.34697441425,-134878.1373951599,-134008.40866665944,-133249.4104801906,-132755.70514866177,-132414.57282478487,-131906.94235646038,-131369.8522889438,-131049.44003217698,-130828.15776206944,-130394.95860278113,-129927.27070179829,-129729.86009476903,-129665.44236724882,-129465.43895786275,-129156.96253263505,-129054.52448779637,-129071.44475834904,-128952.60053308017,-128519.82605693652,-128159.0018461945,-127801.2174726984,-127239.24991360307,-126192.56242424995,-125093.1248179823,-124145.14263214382,-123157.97783827518,-121650.41972999809,-120072.81125459805,-118704.34805206634,-117395.74282118594,-115456.63958271022,-113223.90147732514,-111389.22558894464,-109679.47360032483,-107548.57004267813,-105114.12979532836,-102531.18455781753,-99836.83822594145,-96868.92889367687,-93496.63180072687,-90029.47390430856,-86667.03393066334,-83328.06328869621,-79883.92768906686,-76775.20236673384,-73905.90893100607,-70898.10173488877,-67581.81811354376,-64614.55698186839,-61636.902289021295,-58454.9973553416,-55368.53437048607,-52410.616267993006,-49851.9673767051,-47853.76612588956,-45695.25816384055,-43424.99147951502,-41268.40576748917,-39171.208640481076,-36769.64780922506,-33856.36614040925,-30872.810587025953,-28495.9260816486,-26852.31290487205,-25800.037479405106,-25772.678944191808,-26361.2227274445,-27169.484158692856,-27874.301716602055,-28917.032947186584,-30326.265731604784,-31907.539893095483,-33235.38997595191,-34751.7546715444,-36579.76974007723,-38507.49594062519,-40137.42984979509,-41865.934952012896,-43983.71803566433,-46300.8786798571,-48284.12661363204,-50133.21937718623,-52207.103634727435,-54408.43753915281,-56303.70900675166,-57943.00829684833,-59794.425641825874,-61800.24883750068,-63545.31658235986,-64924.03923559657,-66462.77802738882,-68160.61653621394,-69668.75578984688,-70703.99918603888,-71824.38037686114,-73157.23725047556,-74480.34876350746,-75434.20945813769,-76476.18072941074,-77778.77334103268,-79130.24921777836,-80036.88067637452,-80890.60555584497,-81991.87600515796,-83193.55049056417,-84032.52321869413,-84712.08330536883,-85667.66508432211,-86804.47480731903,-87638.19487550198,-88107.58150906343,-88838.48355275198,-89833.76202985788,-90598.9292977964,-90915.92173766157,-91448.96613943174,-92322.62877495632,-93145.97763371201,-93517.46362655921,-94029.58679551921,-94888.60903842558,-95795.68753191085,-96292.56681115233,-96864.615006997,-97732.35443024093,-98691.13250865132,-99239.64431758456,-99712.83074770341,-100494.80652747233,-101510.80507168832,-102256.86159811755,-102854.21196868563,-103722.68899949659,-104779.6806430436,-105566.68556531497,-106025.03043711549,-106661.83163664718,-107494.67998679639,-108193.08259404691,-108565.75322935024,-109132.48171001456,-109948.27567914435,-110699.40605156495,-111007.48014539244,-111426.21772601816,-112158.05854297383,-112887.95475816188,-113043.05351293726,-113305.32888237583,-114038.77902493227,-114904.55149466413,-115324.54077297937,-115731.72250172168,-116436.92003928663,-117236.7772146198,-117579.38475363073,-117696.44083934318,-117838.7096928012,-117874.20426299624,-117178.59562380263,-116322.32264546427,-116028.77718553272,-115933.35758845301,-115430.08571029732,-114642.2537734811,-114478.63900406826,-114960.76613196924,-115616.32044509894,-116071.35725872008,-117266.92971789,-117966.98635423022,-117221.913304557,-115046.82034812217,-112071.22201576496,-109559.06475294409,-107583.43876402841,-105556.22494890988,-104066.90586410831,-103946.29585102748,-104670.26885393487,-105611.65727515904,-106701.03659642179,-108078.41814499118,-109454.6374028489,-110356.68675383172,-110843.99948644632,-111602.01419615916,-112665.1972729203,-113674.40088682187,-114452.30864909991,-115654.2513554396,-117105.72893687832,-118471.4652265865,-119231.17866887792,-120151.93642996985,-121363.06570328066,-122841.32067457685,-123806.02196526791,-124768.33161930223,-126360.1781559203,-128252.45448976214,-129495.85968206641,-130465.76892921556,-131456.6888161527,-132670.6567610093,-133552.1201553488,-134371.53510708036,-135855.2662557681,-138301.55292767918,-141702.1473291096,-144956.89659796914,-147127.5862607463,-148379.95450257714,-148848.7376390383,-148253.22011151555,-147129.21793809152,-146276.0742039769,-146062.7715066399,-146015.7210845615,-146332.98174536013,-146852.88332139055,-147106.9779523585,-146558.35438470298,-145991.31297961628,-145930.82915912024,-146161.4544584101,-146031.85904405822,-145724.90253745348,-145608.874631986,-145688.51389748024,-145406.50193768763,-144871.06589926075,-144678.23739984483,-144749.94179605745,-144704.03131294626,-144573.25125613823,-144843.5956053252,-145376.72941407317,-145876.20149567147,-145964.0662031253,-146155.9559292741,-146712.1790900444,-147387.02295863902,-147750.30586127113,-148315.24620237903,-149269.6880423651,-150295.94603728605,-150878.43249779136,-151371.1767043086,-152074.0496604502,-152906.8533071105,-153327.35667554816,-153528.5894308793,-154055.9117860689,-154856.46186548017,-155401.41974704503,-155695.2557796545,-156331.87816523053,-157277.78163883468,-158124.7786432241,-158572.68525036398,-159234.833328108,-159958.4039996152,-160295.26714030115,-160156.9545456117,-160109.0324054995,-160432.79742393465,-160696.34684280716,-160365.38456265745,-160367.21740570277,-160939.06443584734,-161501.65784378743,-161478.47908478728,-161381.15958942886,-161502.32839612107,-161929.71610185102,-162210.20814302066,-162281.71137353318,-162599.86610411003,-163060.0438189559,-163223.36801569082,-163007.24899855244,-163176.04937267894,-163713.38530938452,-164135.1403755117,-164186.08000112535,-164424.1037278299,-164903.7274603519,-165339.1841458302,-165405.8370477959,-165721.9577696273,-166352.99221908956,-167027.00907313934,-167234.29915121786,-167410.34149054784,-167805.38622205093,-168285.25582376192,-168385.43634241063,-168458.92887817966,-168868.09991217853,-169435.32013122085,-169586.9767173501,-169473.36280028376,-169633.6918632617,-170028.31191162014,-170216.9382830785,-170179.9684977494,-170483.37107698573,-171095.69711633888,-171582.92044197567,-171700.2223968771,-172030.75999388218,-172649.03159726044,-173229.6405112315,-173404.74407729437,-173693.52861565695,-174263.74396845629,-174912.70451697166,-175174.46579628775,-175455.62838979106,-176006.73300108113,-176675.67600913954,-176991.84143445987,-177212.9225388673,-177678.688189827,-178291.03658092458,-178608.38664870104,-178690.84223399666,-178954.9951499695,-179396.4868064507,-179594.72442802484,-179469.44290035285,-179545.79645941217,-179861.73836728794,-180115.0730389444,-180055.57269520435,-180188.96790611363,-180649.4361936374,-181088.06682682835,-181095.86758564325,-181135.6089872848,-181400.3654003579,-181668.69809254387,-181492.1863665803,-181250.76517471854,-181305.32578293394,-181454.076642284,-181255.8837241988,-180881.6484667836,-180707.1931013099,-180722.660508473,-180460.7427669457,-179950.78771719788,-179728.83489475667,-179696.93895541894,-179508.89372931645,-179076.18630840618,-178856.37925343268,-178922.20514085356,-178970.88724027722,-178738.92083632003,-178684.427283338,-178872.4725094405,-179167.15790833926,-179192.7506557406,-179103.12016047482,-179014.1155140538,-178635.8569426366,-178493.49868220076,-178747.88388584662,-178673.5196320438,-178450.8739055245,-178435.3617948725,-178451.43269913588,-178354.00144505518,-178288.62259252343,-178343.42906992784,-178462.69797834134,-178418.35211734203,-178264.81798467852,-178428.45510583583,-178922.227492598,-179199.03149593252,-179447.26996985317,-179900.74216136243,-180410.76426634364,-180651.3360919161,-180652.87836228352,-180786.1618144705,-181274.81565175243,-181606.113208069,-181609.28715578167,-181387.84842346294,-181574.77606234266,-181508.45843654376,-181131.47391456057,-180753.81884024368,-180696.28545001574,-180539.51031440622,-180075.30928555838,-179517.40974395393,-179494.4768541428,-179684.7572546908,-179794.32550601073,-180075.68926521414,-180185.2798682785,-179890.72857984647,-179818.51009351137,-180053.91866611465,-180262.23692443813,-180032.30452922639,-179968.4902988065,-180179.4907664646,-180471.80688045107,-180331.95201539423,-180177.5908681859,-180126.00304198303,-180003.20255794557,-179330.39269809637,-178661.8296696937,-178438.8039635186,-178400.04603863313,-177867.60513396325,-177116.29594758703,-176646.2387616919,-176444.3354540271,-176004.58723361342,-175214.2071979293,-174786.52891952146,-174816.3237948804,-174764.82537565535,-174254.1774218294,-174019.48410504867,-174212.0667352756,-174390.9030426625,-173986.80585465502,-173741.20488658012,-173951.42304318227,-174303.2395009088,-174078.42565517733,-173891.27449885305,-174202.7237060933,-174786.21599509908,-174832.3723473993,-174752.5095644605,-175175.8963079329,-175957.93914293518,-176286.48743468375,-176285.63806839444,-176762.98192298197,-177676.67653282604,-178262.26988581062,-178343.25025597218,-178831.21118917599,-179785.83184311772,-180577.08359683558,-180703.72858091936,-181125.6401092577,-182064.50278335845,-183001.37615220263,-183200.37373308823,-183561.55557174154,-184456.67588194323,-185487.51598447753,-185760.98957788822,-185990.5419934442,-186738.6772321078,-187500.02235174447,-187500.02235174447,-187500.02235174447,-187500.02235174447,-187500.02235174447,-187500.02235174447,-187500.02235174447,-187500.02235174447,-187500.02235174447,-187500.02235174447,-187500.02235174447,-187500.02235174447,-187500.02235174447,-187500.02235174447,-187500.02235174447,-187500.02235174447,-187500.02235174447,-187500.02235174447,-187500.02235174447,-187500.02235174447,-187500.02235174447,-187500.02235174447,-187500.02235174447,-187500.02235174447,-187500.02235174447,-187500.02235174447,-187500.02235174447,-187500.02235174447,-187500.02235174447,-187500.02235174447,-187500.02235174447,-187500.02235174447,-187500.02235174447,-187500.02235174447,-187500.02235174447,-187500.02235174447,-187500.02235174447,-187500.02235174447,-187500.02235174447,-186167.3889955746,-184837.90723537293,-184633.85816024043,-184661.30610243155,-184156.0672707638,-184099.83028171424,-184507.48139709013,-184912.0479717312,-184641.1895324218,-184151.2616457059,-183889.38860766753,-183839.38775532102,-183098.04744697185,-181712.01577329825,-180447.10820282798,-179291.3218487885,-177464.46907096735,-175127.2812637426,-172509.15438045913,-169842.01012158516,-166176.23462393697,-161659.5058631308,-157353.50934904927,-153190.02755761475,-149211.34998933674,-144533.42044751887,-140226.37340144796,-136891.0684455715,-133884.26707795466,-130405.48627441959,-126784.77189359331,-123864.739997952,-121363.49038642531,-117519.70559593507,-112913.14517416302,-108306.94238030224,-103138.74967560169,-96906.83745227307,-90417.41078107487,-84568.42864375457,-79631.95647382218,-75301.79772398445,-69878.41515283765,-63953.23591866922,-60045.56984252571,-57661.17515101137,-53176.94582664321,-48692.135356919214,-44935.209445382294,-42588.209222341684,-40916.92458592947,-40005.75572320887,-39668.0655679781,-39281.648609834745,-38462.524230781106,-39319.333650986395,-42556.02271032604,-46117.21439566784,-48197.24538293426,-50439.952366346406,-53809.008456350384,-57770.005794764256,-61249.09952272171,-63991.34564296552,-66942.02178025506,-69966.97276436958,-72499.60422511151,-74149.07355893536,-75506.22677877269,-76713.5562555261,-77569.47160595318,-77914.7390025543,-78337.1422692707,-78925.03785193418,-79404.46041875606,-79520.73419341257,-80011.01970803973,-80826.59015972498,-81611.29285231743,-81912.34849838597,-81382.72391351748,-80842.59400875498,-81445.33114973678,-82163.11271943006,-82852.08289052044,-83679.27624932244,-84830.10051609285,-85623.85566518971,-85983.96462010917,-86883.37646524626,-88031.27265349301,-88845.92668365559,-89194.34567622491,-89791.51723283736,-90678.74737724631,-91388.6164294024,-91827.80585620474,-92836.38362126156,-94525.16967358228,-96335.37040178424,-97691.85306928791,-99268.05338478726,-101400.90154420157,-103745.42072360763,-105672.61048228867,-107419.26520100418,-109482.8900078404,-111683.82158086558,-113503.32063476094,-115215.82188794874,-117295.9869856819,-119578.12244631321,-121411.18900909294,-122836.22447684105,-124487.05726707666,-126277.20848050219,-127707.11662854155,-128716.96844303233,-130188.11555959172,-132467.255886466,-134277.1436902456,-135275.931391231,-136333.01244175583,-137629.2795096969,-138801.29323021093,-139580.31857971175,-140446.87336049957,-141787.48628943996,-143308.43309264578,-144320.7659507711,-145200.4188538097,-146447.8697118604,-147859.6505951465,-148871.20114221587,-149669.69486113728,-150806.12460447845,-152211.3787783836,-153337.41496055305,-154105.91263841544,-155063.9531092588,-156291.62267346654,-157297.80880186663,-157892.4099078667,-158547.2713169183,-159335.19266071235,-160018.08315731087,-160153.33356300995,-160378.1027052525,-160919.95369433807,-161796.36559443065,-162752.14853908404,-162867.12591256213,-162892.0481076298,-162962.92548929757,-162573.8710253085,-162083.07142055887,-162218.09830881338,-162540.41046385892,-162696.8950267905,-163522.1884873138,-164083.9772324535,-163298.58163578293,-161630.42624359444,-159627.8887543546,-157533.91027854805,-154901.47827881316,-151142.92068993102,-146896.84920273416,-142508.46415859036,-138180.13825179797,-134103.91767071697,-130789.57865113959,-127228.74459370907,-123443.74489113629,-119672.8491393148,-115869.72217198876,-112500.26375058458,-109952.2542896574,-107619.51447957927,-105083.66436763578,-102940.93673717222,-101908.84493694842,-101646.39075355421,-101795.85686872684,-102341.57470960317,-103578.2967303153,-105366.68215592888,-107240.83122501746,-109169.27268138799,-111802.12936426752,-115067.87569139907,-118076.71106776132,-120578.47476941047,-123627.96796893692,-127299.89019631031,-131087.81797740675,-134666.7792995905,-138511.3464011367,-142681.84664033016,-147020.58846003874,-151102.73225340038,-154727.13467206177,-158234.01161837718,-161595.78103968874,-164338.80947098846,-166778.25650909622,-169472.91576539466,-172340.8233929662,-174827.2761496635,-176890.6550873107,-178984.2982869504,-181159.72651955206,-183172.52345949694,-184829.79355213567,-186635.07689655744,-187500.02235174447,-187500.02235174447,-187500.02235174447,-187500.02235174447,-187500.02235174447,-187500.02235174447,-187500.02235174447,-187500.02235174447,-187500.02235174447,-187500.02235174447,-187500.02235174447,-187500.02235174447,-187500.02235174447,-187500.02235174447,-187500.02235174447,-187500.02235174447,-187500.02235174447,-187500.02235174447,-187500.02235174447,-187500.02235174447,-187500.02235174447,-187500.02235174447,-187500.02235174447,-187500.02235174447,-187500.02235174447,-187500.02235174447,-187500.02235174447,-187500.02235174447,-187500.02235174447,-187500.02235174447,-187500.02235174447,-187500.02235174447,-187500.02235174447,-187500.02235174447,-187500.02235174447,-187500.02235174447,-187500.02235174447,-187500.02235174447,-187500.02235174447,-187500.02235174447,-187500.02235174447,-187500.02235174447,-187500.02235174447,-187019.392790722,-186119.15393104005,-185543.52945608253,-185287.78079602492,-185504.95034515267,-185204.60995490671,-184881.89546846098,-184797.0258947642,-184569.9098193538,-183939.3224047807,-183372.34805492737,-182963.71346279545,-182485.3637797074,-181624.44163852234,-180798.70114310994,-180202.91539465374,-179696.60367925212,-179038.52361899897,-178397.67675372085,-178190.1184547089,-178310.12497068942,-178125.38780276632,-177609.75540992685,-177257.51426905565,-177244.50555378266,-177017.41183011673,-176409.75730535475,-176077.45392053772,-175752.14663173517,-175329.96688246334,-175366.1543567365,-175806.88605390623,-176502.91937624448,-177161.15589870882,-177330.0009763242,-177547.52815336327,-177982.7166179081,-178430.60087330354,-178498.05843806965,-178564.0407877017,-178864.7611576034,-179199.56793779947,-179223.73017355564,-179205.8040745025,-179624.22873070583,-180206.73754295558,-180434.21124627726,-180348.84993420244,-180648.2962546702,-180987.4169215461,-180845.8856756551,-180354.4602220607,-180071.46478551207,-179744.39170889757,-179347.0894512045,-178892.90200387264,-178642.62952120657,-178497.94667934737,-178419.33559409805,-178012.69030722266,-177835.46332543652,-177764.1612606241,-177466.99481809078,-176882.07201743984,-176706.52141648787,-177066.2503917516,-177320.83676109754,-177039.92003678324,-176541.05145228523,-175922.15400006223,-175217.7164218088,-174258.69247420938,-173075.7040471678,-172184.51764399026,-171613.65409060172,-170884.20491030277,-170042.97465598283,-169605.1933890812,-169565.0720077839,-169612.45770602915,-169464.01977110145,-169637.06697667445,-170226.16955353852,-170901.81808493353,-171373.5963551517,-172119.0270327362,-173277.83087227715,-174535.16120137708,-175434.84126744763,-176322.25022581223,-177405.5722243276,-178523.80764768217,-179282.69407542874,-179923.16096105112,-180827.87016962413,-181830.18944623345,-182482.70392211725,-182789.12398685503,-183302.96824013809,-183931.43223898797,-184242.233245639,-184199.09437884027,-184384.03271246346,-184812.96268856083,-185129.93277668153,-185111.447884017,-185301.37065665374,-185763.69413896732,-186250.98451983745,-186391.53228897243,-186674.2148010987,-187266.24545648642,-187500.02235174447,-187500.02235174447,-187500.02235174447,-187500.02235174447,-187500.02235174447,-187500.02235174447,-187500.02235174447,-187500.02235174447,-187500.02235174447,-187500.02235174447,-187500.02235174447,-187500.02235174447,-187500.02235174447,-187500.02235174447,-187500.02235174447,-187500.02235174447,-187500.02235174447,-187500.02235174447,-187500.02235174447,-187500.02235174447,-187500.02235174447,-187500.02235174447,-187500.02235174447,-187500.02235174447,-187500.02235174447,-187500.02235174447,-187500.02235174447,-187500.02235174447,-187500.02235174447,-187500.02235174447,-187500.02235174447,-187500.02235174447,-187500.02235174447,-187500.02235174447,-187500.02235174447,-187500.02235174447,-187500.02235174447,-187500.02235174447,-187500.02235174447,-187500.02235174447,-187500.02235174447,-187500.02235174447,-187500.02235174447,-187500.02235174447,-187500.02235174447,-187500.02235174447,-187500.02235174447,-187500.02235174447,-187500.02235174447,-187500.02235174447,-187500.02235174447,-187500.02235174447,-187500.02235174447,-187500.02235174447,-187500.02235174447,-187500.02235174447,-187500.02235174447,-187500.02235174447,-187500.02235174447,-187500.02235174447,-187500.02235174447,-187500.02235174447,-187500.02235174447,-187500.02235174447,-187500.02235174447,-187500.02235174447,-187500.02235174447,-187500.02235174447,-187500.02235174447,-187500.02235174447,-187500.02235174447,-187500.02235174447,-187500.02235174447,-187500.02235174447,-187500.02235174447,-187500.02235174447,-187500.02235174447,-187500.02235174447,-187500.02235174447,-187500.02235174447,-187500.02235174447,-187500.02235174447,-187500.02235174447,-187500.02235174447,-187500.02235174447,-187491.72985455155,-187116.1087889801,-186950.19178988837,-186661.00492012562,-186127.04409683277,-185530.96777569863,-184911.6009368421,-184049.22593226744,-182732.19409372736,-181913.9414327075,-181304.65523060027,-181004.33719209878,-180526.90393053342,-180109.84273074183,-180107.1605214072,-180120.70567854712,-179767.14578475308,-179505.2727467147,-179615.2433294348,-179793.74436065488,-179748.70559557746,-179731.45004885795,-179971.4854325635,-180305.3981429813,-180502.2946598881,-180463.58143849153,-180591.05343712014,-180785.93829702598,-180929.4588481735,-180914.93021427756,-181109.23392882754,-181442.90077005635,-181564.3601494265,-181409.5296155846,-181617.13261808548,-182018.4134862916,-182181.62592430424,-182002.02965760586,-181919.17174091004,-182030.1705038751,-182231.04563129492,-182103.0371907994,-181801.0651232082,-181693.12854923352,-181565.88006804945,-181224.524226728,-180733.3222905782,-180535.48700040425,-180452.67378719733,-180164.6268564018,-179609.05189622068,-179211.4590658497,-178988.72393235256,-178757.67394991804,-178027.8671417078,-164923.24053326139,-149686.0339863341,-154968.46645694572,-158364.38934378498,-160231.1176337144,-161479.88724468797,-162278.51507407607,-162602.45890646684,-163063.86596725773,-163824.54053456074,-164597.57561654755,-165122.30516938033,-165738.05102563513,-166725.08170903704,-167702.70230802326,-168295.09059132225,-168807.34787074898,-169671.91334628026,-170616.45336347262,-171387.67795415854,-172065.74047395473,-172877.5558325715,-173725.49161022803,-174774.81660542687,-175523.93532084647,-176310.4038012509,-177288.2479176817,-178454.58429510408,-179374.17976548432,-180300.12313128987,-181265.80789873697,-182297.09503616038,-183002.27022198084,-183791.04093206418,-184905.36480013907,-186077.24441018637,-186820.70813425878,-187282.56222993878,-187500.02235174447,-187500.02235174447,-187500.02235174447,-187500.02235174447,-187500.02235174447,-187500.02235174447,-187500.02235174447,-187500.02235174447,-187500.02235174447,-187500.02235174447,-187500.02235174447,-187500.02235174447,-187500.02235174447,-187500.02235174447,-186612.72515210215,-185148.14944841262,-183863.66174979947,-183042.1010306002,-182080.99837076647,-180382.5787165855,-178662.63433249408,-177503.18229236393,-176568.43233924298,-174822.09054494984,-172544.31367448732,-170927.79081199062,-169803.72158333322,-168367.242022424,-166754.8542326515,-166075.71882912147,-166231.80106065288,-166430.86569677183,-166281.3548781103,-166435.783080552,-166793.7239162593,-167144.78041467434,-167475.07214249042,-168346.92428671411,-169737.40395753432,-170913.28452983912,-171514.1441242867,-172115.9648437458,-173240.68227299242,-174786.97595441056,-175864.84412727883,-176673.64200039412,-178226.6635568933,-179993.41249387414,-181066.81031785134,-181850.26131275433,-183165.50501173796,-184610.7688082181,-185347.28113976493,-185392.27520135348,-185962.91523729745,-186976.74566230128,-187500.02235174447,-187500.02235174447,-187500.02235174447,-187500.02235174447,-187500.02235174447,-187500.02235174447,-187500.02235174447,-187500.02235174447,-187500.02235174447,-187500.02235174447,-187500.02235174447,-187500.02235174447,-187500.02235174447,-187500.02235174447,-187500.02235174447,-187500.02235174447,-187500.02235174447,-187500.02235174447,-187500.02235174447,-187500.02235174447,-187500.02235174447,-187500.02235174447,-187500.02235174447,-187500.02235174447,-187500.02235174447,-187500.02235174447,-187500.02235174447,-187500.02235174447,-187500.02235174447,-187500.02235174447,-187500.02235174447,-187500.02235174447,-187500.02235174447,-187500.02235174447,-187500.02235174447,-187500.02235174447,-187500.02235174447,-187500.02235174447,-187500.02235174447,-187500.02235174447,-187500.02235174447,-187500.02235174447,-187500.02235174447,-187500.02235174447,-187500.02235174447,-187500.02235174447,-187500.02235174447,-187500.02235174447,-187500.02235174447,-187500.02235174447,-187500.02235174447,-187500.02235174447,-187500.02235174447,-187500.02235174447,-187500.02235174447,-187500.02235174447,-187500.02235174447,-187500.02235174447,-187500.02235174447,-187500.02235174447,-187500.02235174447,-187500.02235174447,-187500.02235174447,-187500.02235174447,-187500.02235174447,-187500.02235174447,-187500.02235174447,-187500.02235174447,-187500.02235174447,-187500.02235174447,-187500.02235174447,-187500.02235174447,-187500.02235174447,-187500.02235174447,-187500.02235174447,-187500.02235174447,-187500.02235174447,-187500.02235174447,-187500.02235174447,-187500.02235174447,-187500.02235174447,-187500.02235174447,-187500.02235174447,-187500.02235174447,-187500.02235174447,-187500.02235174447,-187500.02235174447,-187500.02235174447,-187500.02235174447,-187500.02235174447,-187500.02235174447,-187500.02235174447,-187500.02235174447,-187500.02235174447,-187500.02235174447,-187500.02235174447,-187500.02235174447,-187500.02235174447,-187500.02235174447,-187500.02235174447,-187500.02235174447,-187500.02235174447,-187500.02235174447,-187500.02235174447,-187500.02235174447,-187500.02235174447,-187500.02235174447,-187500.02235174447,-187500.02235174447,-187500.02235174447,-187500.02235174447,-187500.02235174447,-187500.02235174447,-187500.02235174447,-187500.02235174447,-187500.02235174447,-187500.02235174447,-187500.02235174447,-187500.02235174447,-187500.02235174447,-187500.02235174447,-187500.02235174447,-187500.02235174447,-187500.02235174447,-187500.02235174447,-187500.02235174447,-187500.02235174447,-187500.02235174447,-187500.02235174447,-187500.02235174447,-187500.02235174447,-187500.02235174447,-187500.02235174447,-187500.02235174447,-187500.02235174447,-187500.02235174447,-187500.02235174447,-187500.02235174447,-187500.02235174447,-187500.02235174447,-187500.02235174447,-187500.02235174447,-187500.02235174447,-187500.02235174447,-187500.02235174447,-187500.02235174447,-187500.02235174447,-187500.02235174447,-187500.02235174447,-187500.02235174447,-187500.02235174447,-187500.02235174447,-187500.02235174447,-187500.02235174447,-187500.02235174447,-187500.02235174447,-187500.02235174447,-187500.02235174447,-187500.02235174447,-187500.02235174447,-187500.02235174447,-187500.02235174447,-187500.02235174447,-187500.02235174447,-185880.7725764242,-184510.43182735823,-183828.5471592602,-182376.28726676552,-179820.25352957888,-178364.4397097158,-177686.39954166408,-176600.931775681,-174122.77151617667,-172525.85113356725,-171791.68573518822,-170995.74011513474,-168702.831113676,-167002.55626470523,-166276.07986641885,-165757.76526424472,-163774.27146128076,-161951.08436955028,-161171.27670899354,-160793.62163467667,-159144.24170783063,-157224.04804516412,-156421.68747445196,-156211.35755912753,-155073.2067314633,-153340.49950128788,-152738.9470027622,-152813.69123622077,-152276.95879661548,-150691.84013507847,-150138.92503248752,-150379.22863712654,-150319.79534861987,-148920.77731141774,-148471.1943234437,-149030.25615575985,-149682.99414908816,-149083.43095581903,-148919.61502070606,-149673.96404432823,-150713.38721673336,-150521.67630454022,-150428.9165650507,-151345.22632899598,-152782.30938700552,-153222.14701439705,-153516.07245398432,-154764.9761754246,-156502.8913620581,-157421.12337602657,-157618.48927956691,-158720.3632259802,-160429.53406924417,-161643.14438618952,-161818.2032487635,-162754.09314085165,-164317.6870724782,-165664.17851021036,-165777.52420634322,-166470.45063620218,-167872.59791762804,-169333.59734220474,-169508.87972222327,-170002.96503340782,-171355.15616597608,-173045.61859913095,-173390.81894049872,-173739.23793306804,-174942.8346684974,-176513.53645486076,-177061.60122890488,-177240.72810896972,-178246.28838852508,-179747.34213916567,-180511.48122685927,-180559.24690476025,-181508.32432607704,-183032.1545043176,-184108.74862775192,-184155.9108085526,-185033.79792377926,-186584.18197443272,-187500.02235174447,-187500.02235174447,-187500.02235174447,-187500.02235174447,-187500.02235174447,-187500.02235174447,-187500.02235174447,-187500.02235174447,-187500.02235174447,-187500.02235174447,-187500.02235174447,-187500.02235174447,-187500.02235174447,-187500.02235174447,-187500.02235174447,-187500.02235174447,-187500.02235174447,-187500.02235174447,-187500.02235174447,-187500.02235174447,-187500.02235174447,-187500.02235174447,-187500.02235174447,-187500.02235174447,-187500.02235174447,-187500.02235174447,-187500.02235174447,-187500.02235174447,-187500.02235174447,-187500.02235174447,-187500.02235174447,-187500.02235174447,-187500.02235174447,-187500.02235174447,-187500.02235174447,-187500.02235174447,-187500.02235174447,-187500.02235174447,-187500.02235174447,-187500.02235174447,-187500.02235174447,-187500.02235174447,-187500.02235174447,-187500.02235174447,-187500.02235174447,-187500.02235174447,-187500.02235174447,-187500.02235174447,-187500.02235174447,-187500.02235174447,-187500.02235174447,-187500.02235174447,-187500.02235174447,-187500.02235174447,-187500.02235174447,-187500.02235174447,-187500.02235174447,-187500.02235174447,-187500.02235174447,-187500.02235174447,-187500.02235174447,-187500.02235174447,-187500.02235174447,-187500.02235174447,-187500.02235174447,-187500.02235174447,-187500.02235174447,-187500.02235174447,-187500.02235174447,-187500.02235174447,-187500.02235174447,-187500.02235174447,-187500.02235174447,-187500.02235174447,-187500.02235174447,-187500.02235174447,-187500.02235174447,-187500.02235174447,-187500.02235174447,-187500.02235174447,-187500.02235174447,-187500.02235174447,-187500.02235174447,-187500.02235174447,-187500.02235174447,-187500.02235174447,-187500.02235174447,-187500.02235174447,-187500.02235174447,-187500.02235174447,-187500.02235174447,-187500.02235174447,-187500.02235174447,-187500.02235174447,-187500.02235174447,-187500.02235174447,-187500.02235174447,-187500.02235174447,-187500.02235174447,-187500.02235174447,-187500.02235174447,-187500.02235174447,-187500.02235174447,-187500.02235174447,-187500.02235174447,-187500.02235174447,-187500.02235174447,-187500.02235174447,-187500.02235174447,-187500.02235174447,-187500.02235174447,-187500.02235174447,-187500.02235174447,-187500.02235174447,-187500.02235174447,-187500.02235174447,-187500.02235174447,-187500.02235174447,-187500.02235174447,-187500.02235174447,-187500.02235174447,-187500.02235174447,-187500.02235174447,-187500.02235174447,-187500.02235174447,-187500.02235174447,-187500.02235174447,-187500.02235174447,-187500.02235174447,-187500.02235174447,-187500.02235174447,-187500.02235174447,-187500.02235174447,-187500.02235174447,-187500.02235174447,-187500.02235174447,-187500.02235174447,-187500.02235174447,-187500.02235174447,-187500.02235174447,-187500.02235174447,-187500.02235174447,-187500.02235174447,-187500.02235174447,-187500.02235174447,-187500.02235174447,-187500.02235174447,-187500.02235174447,-187500.02235174447,-187500.02235174447,-187500.02235174447,-187500.02235174447,-187500.02235174447,-187500.02235174447,-187500.02235174447,-187500.02235174447,-187500.02235174447,-187500.02235174447,-187500.02235174447,-187500.02235174447,-187500.02235174447,-187500.02235174447,-187500.02235174447,-187500.02235174447,-187500.02235174447,-187500.02235174447,-187500.02235174447,-187500.02235174447,-187500.02235174447,-187500.02235174447,-187500.02235174447,-187500.02235174447,-187500.02235174447,-187500.02235174447,-187500.02235174447,-187500.02235174447,-187500.02235174447,-187500.02235174447,-187500.02235174447,-187500.02235174447,-187500.02235174447,-187500.02235174447,-187500.02235174447,-187500.02235174447,-187500.02235174447,-187500.02235174447,-187500.02235174447,-187500.02235174447,-187500.02235174447,-187500.02235174447,-187500.02235174447,-187500.02235174447,-187500.02235174447,-187500.02235174447,-187500.02235174447,-187500.02235174447,-187500.02235174447,-187500.02235174447,-187500.02235174447,-187500.02235174447,-187500.02235174447,-187500.02235174447,-187500.02235174447,-187500.02235174447,-187500.02235174447,-187500.02235174447,-187500.02235174447,-187500.02235174447,-187500.02235174447,-187500.02235174447,-187500.02235174447,-187500.02235174447,-187500.02235174447,-187500.02235174447,-187500.02235174447,-187500.02235174447,-187500.02235174447,-187500.02235174447,-187500.02235174447,-187500.02235174447,-187500.02235174447,-187500.02235174447,-187500.02235174447,-187500.02235174447,-187500.02235174447,-187500.02235174447,-187500.02235174447,-187500.02235174447,-187500.02235174447,-187500.02235174447,-187500.02235174447,-187500.02235174447,-187500.02235174447,-187500.02235174447,-187500.02235174447,-187500.02235174447,-187500.02235174447,-187500.02235174447,-187500.02235174447,-187500.02235174447,-187500.02235174447,-187500.02235174447,-187500.02235174447,-187500.02235174447,-187500.02235174447,-187500.02235174447,-187500.02235174447,-187500.02235174447,-187500.02235174447,-187500.02235174447,-187500.02235174447,-187500.02235174447,-187500.02235174447,-187500.02235174447,-187500.02235174447,-187500.02235174447,-187500.02235174447,-187500.02235174447,-187500.02235174447,-187500.02235174447,-187500.02235174447,-187500.02235174447,-187500.02235174447,-187500.02235174447,-187500.02235174447,-187500.02235174447,-187500.02235174447,-187500.02235174447,-187500.02235174447,-187500.02235174447,-187500.02235174447,-187500.02235174447,-187500.02235174447,-187500.02235174447,-187500.02235174447,-187500.02235174447,-187500.02235174447,-187500.02235174447,-187500.02235174447,-187500.02235174447,-187500.02235174447,-187500.02235174447,-187500.02235174447,-187500.02235174447,-187500.02235174447,-187500.02235174447,-187500.02235174447,-187500.02235174447,-187500.02235174447,-187500.02235174447,-187500.02235174447,-187500.02235174447,-187500.02235174447,-187500.02235174447,-187500.02235174447,-187500.02235174447,-187500.02235174447,-187500.02235174447,-187500.02235174447,-187500.02235174447,-187500.02235174447,-187500.02235174447,-187500.02235174447,-187500.02235174447,-187500.02235174447,-187500.02235174447,-187500.02235174447,-187500.02235174447,-187500.02235174447,-187500.02235174447,-187500.02235174447,-187500.02235174447,-187500.02235174447,-187500.02235174447,-187500.02235174447,-187500.02235174447,-187500.02235174447,-187500.02235174447,-187500.02235174447,-187500.02235174447,-187500.02235174447,-187500.02235174447,-187500.02235174447,-187500.02235174447,-187500.02235174447,-187500.02235174447,-187500.02235174447,-187500.02235174447,-187500.02235174447,-187500.02235174447,-187500.02235174447,-187500.02235174447,-187500.02235174447,-187500.02235174447,-187500.02235174447,-187500.02235174447,-187500.02235174447,-187500.02235174447,-187500.02235174447,-187500.02235174447,-187500.02235174447,-187500.02235174447,-187500.02235174447,-187500.02235174447,-187500.02235174447,-187500.02235174447,-187500.02235174447,-187500.02235174447,-187500.02235174447,-187500.02235174447,-187500.02235174447,-187500.02235174447,-187500.02235174447,-187500.02235174447,-187500.02235174447,-187500.02235174447,-187500.02235174447,-187500.02235174447,-187500.02235174447,-187500.02235174447,-187500.02235174447,-187500.02235174447,-187500.02235174447,-187500.02235174447,-187500.02235174447,-187500.02235174447,-187500.02235174447,-187500.02235174447,-187500.02235174447,-187500.02235174447,-187500.02235174447,-187500.02235174447,-187500.02235174447,-187500.02235174447,-187500.02235174447,-187500.02235174447,-187500.02235174447,-187500.02235174447,-187500.02235174447,-187500.02235174447,-187500.02235174447,-187500.02235174447,-187500.02235174447,-187500.02235174447,-187500.02235174447,-187500.02235174447,-187500.02235174447,-187500.02235174447,-187500.02235174447,-187500.02235174447,-187500.02235174447,-187500.02235174447,-187500.02235174447,-187500.02235174447,-187500.02235174447,-187500.02235174447,-187500.02235174447,-187500.02235174447,-187500.02235174447,-187500.02235174447,-187500.02235174447,-187500.02235174447,-187500.02235174447,-187500.02235174447,-187500.02235174447,-187500.02235174447,-187500.02235174447,-187500.02235174447,-187500.02235174447,-187500.02235174447,-187500.02235174447,-187500.02235174447,-187500.02235174447,-187500.02235174447,-187500.02235174447,-187500.02235174447,-187500.02235174447,-187500.02235174447,-187500.02235174447,-187500.02235174447,-187500.02235174447,-187500.02235174447,-187500.02235174447,-187500.02235174447,-187500.02235174447,-187500.02235174447,-187500.02235174447,-187500.02235174447,-187500.02235174447,-187500.02235174447,-187500.02235174447,-187500.02235174447,-187500.02235174447,-187500.02235174447,-187500.02235174447,-187500.02235174447,-187500.02235174447,-187500.02235174447,-187500.02235174447,-187500.02235174447,-187500.02235174447,-187500.02235174447,-187500.02235174447,-187500.02235174447,-187500.02235174447,-187500.02235174447,-187500.02235174447,-187500.02235174447,-187500.02235174447,-187500.02235174447,-187500.02235174447,-187500.02235174447,-187500.02235174447,-187500.02235174447,-187500.02235174447,-187500.02235174447,-187500.02235174447,-187500.02235174447,-187500.02235174447,-187500.02235174447,-187500.02235174447,-187500.02235174447,-187500.02235174447,-187500.02235174447,-187500.02235174447,-187500.02235174447,-187500.02235174447,-187500.02235174447,-187500.02235174447,-187500.02235174447,-187500.02235174447,-187500.02235174447,-187500.02235174447,-187500.02235174447,-187500.02235174447,-187500.02235174447,-187500.02235174447,-187500.02235174447,-187500.02235174447,-187500.02235174447,-187500.02235174447,-187500.02235174447,-187500.02235174447,-187500.02235174447,-187500.02235174447,-187500.02235174447,-187500.02235174447,-187500.02235174447,-187500.02235174447,-187500.02235174447,-187500.02235174447,-187500.02235174447,-187500.02235174447,-187500.02235174447,-187500.02235174447,-187500.02235174447,-187500.02235174447,-187500.02235174447,-187500.02235174447,-187500.02235174447,-187500.02235174447,-187500.02235174447,-187500.02235174447,-187500.02235174447,-187500.02235174447,-187500.02235174447,-187500.02235174447,-187500.02235174447,-187500.02235174447,-187500.02235174447,-187500.02235174447,-187500.02235174447,-187500.02235174447,-187500.02235174447,-187500.02235174447,-187500.02235174447,-187500.02235174447,-187500.02235174447,-187500.02235174447,-187500.02235174447,-187500.02235174447,-187500.02235174447,-187500.02235174447,-187500.02235174447,-187500.02235174447,-187500.02235174447,-187500.02235174447,-187500.02235174447,-187500.02235174447,-187500.02235174447,-187500.02235174447,-187500.02235174447,-187500.02235174447,-187500.02235174447,-187500.02235174447,-187500.02235174447,-187500.02235174447,-187500.02235174447,-187500.02235174447,-187500.02235174447,-187500.02235174447,-187500.02235174447,-187500.02235174447,-187500.02235174447,-187500.02235174447,-187500.02235174447,-187500.02235174447,-187500.02235174447,-187500.02235174447,-187500.02235174447,-187500.02235174447,-187500.02235174447,-187500.02235174447,-187500.02235174447,-187500.02235174447,-187500.02235174447,-187500.02235174447,-187500.02235174447,-187500.02235174447,-187500.02235174447,-187500.02235174447,-187500.02235174447,-187500.02235174447,-187500.02235174447,-187500.02235174447,-187500.02235174447,-187500.02235174447,-187500.02235174447,-187500.02235174447,-187500.02235174447,-187500.02235174447,-187500.02235174447,-187500.02235174447,-187500.02235174447,-187500.02235174447,-187500.02235174447,-187500.02235174447,-187500.02235174447,-187500.02235174447,-187500.02235174447,-187500.02235174447,-187500.02235174447,-187500.02235174447,-187500.02235174447,-187500.02235174447,-187500.02235174447,-187500.02235174447,-187500.02235174447,-187500.02235174447,-187500.02235174447,-187500.02235174447,-187500.02235174447,-187500.02235174447,-187500.02235174447,-187500.02235174447,-187500.02235174447,-187500.02235174447,-187500.02235174447,-187500.02235174447,-187500.02235174447,-187500.02235174447,-187500.02235174447,-187500.02235174447,-187500.02235174447,-187500.02235174447,-187500.02235174447,-187500.02235174447,-187500.02235174447,-187500.02235174447,-187500.02235174447,-187500.02235174447,-187500.02235174447,-187500.02235174447,-187500.02235174447,-187500.02235174447,-187500.02235174447,-187500.02235174447,-187500.02235174447,-187500.02235174447,-187500.02235174447,-187500.02235174447,-187500.02235174447,-187500.02235174447,-187500.02235174447,-187500.02235174447,-187500.02235174447,-187500.02235174447,-187500.02235174447,-187500.02235174447,-187500.02235174447,-187500.02235174447,-187500.02235174447,-187500.02235174447,-187500.02235174447,-187500.02235174447,-187500.02235174447,-187500.02235174447,-187500.02235174447,-187500.02235174447,-187500.02235174447,-187500.02235174447,-187500.02235174447,-187500.02235174447,-187500.02235174447,-187500.02235174447,-187500.02235174447,-187500.02235174447,-187500.02235174447,-187500.02235174447,-187500.02235174447,-187500.02235174447,-187500.02235174447,-187500.02235174447,-187500.02235174447,-187500.02235174447,-187500.02235174447,-187500.02235174447,-187500.02235174447,-187500.02235174447,-187500.02235174447,-187500.02235174447,-187500.02235174447,-187500.02235174447,-187500.02235174447,-187500.02235174447,-187500.02235174447,-187500.02235174447,-187500.02235174447,-187500.02235174447,-187500.02235174447,-187500.02235174447,-187500.02235174447,-187500.02235174447,-187500.02235174447,-187500.02235174447,-187500.02235174447,-187500.02235174447,-187500.02235174447,-187500.02235174447,-187500.02235174447,-187500.02235174447,-187500.02235174447,-187500.02235174447,-187500.02235174447,-187500.02235174447,-187500.02235174447,-187500.02235174447,-187500.02235174447,-187500.02235174447,-187500.02235174447,-187500.02235174447,-187500.02235174447,-187500.02235174447,-187500.02235174447,-187500.02235174447,-187500.02235174447,-187500.02235174447,-187500.02235174447,-187500.02235174447,-187500.02235174447,-187500.02235174447,-187500.02235174447,-187500.02235174447,-187500.02235174447,-187500.02235174447,-187500.02235174447,-187500.02235174447,-187500.02235174447,-187500.02235174447,-187500.02235174447,-187500.02235174447,-187500.02235174447,-187500.02235174447,-187500.02235174447,-187500.02235174447,-187500.02235174447,-187500.02235174447,-187500.02235174447,-187500.02235174447,-187500.02235174447,-187500.02235174447,-187500.02235174447,-187500.02235174447,-187500.02235174447,-187500.02235174447,-187500.02235174447,-187500.02235174447,-187500.02235174447,-187500.02235174447,-187500.02235174447,-187500.02235174447,-187500.02235174447,-187500.02235174447,-187500.02235174447,-187500.02235174447,-187500.02235174447,-187500.02235174447,-187500.02235174447,-187500.02235174447,-187500.02235174447,-187500.02235174447,-187500.02235174447,-187500.02235174447,-187500.02235174447,-187500.02235174447,-187500.02235174447,-187500.02235174447,-187500.02235174447,-187500.02235174447,-187500.02235174447,-187500.02235174447,-187500.02235174447,-187500.02235174447,-187500.02235174447,-187500.02235174447,-187500.02235174447,-187500.02235174447,-187500.02235174447,-187500.02235174447,-187500.02235174447,-187500.02235174447,-187500.02235174447,-187500.02235174447,-187500.02235174447,-187500.02235174447,-187500.02235174447,-187500.02235174447,-187500.02235174447,-187500.02235174447,-187500.02235174447,-187500.02235174447,-187500.02235174447,-187500.02235174447,-187500.02235174447,-187500.02235174447,-187500.02235174447,-187500.02235174447,-187500.02235174447,-187500.02235174447,-187500.02235174447,-187500.02235174447,-187500.02235174447,-187500.02235174447,-187500.02235174447,-187500.02235174447,-187500.02235174447,-187500.02235174447,-187500.02235174447,-187500.02235174447,-187500.02235174447,-187500.02235174447,-187500.02235174447,-187500.02235174447,-187500.02235174447,-187500.02235174447,-187500.02235174447,-187500.02235174447,-187500.02235174447,-187500.02235174447,-187500.02235174447,-187500.02235174447,-187500.02235174447,-187500.02235174447,-187500.02235174447,-187500.02235174447,-187500.02235174447,-187500.02235174447,-187500.02235174447,-187500.02235174447,-187500.02235174447,-187500.02235174447,-187500.02235174447,-187500.02235174447,-187500.02235174447,-187500.02235174447,-187500.02235174447,-187500.02235174447,-187500.02235174447,-187500.02235174447,-187500.02235174447,-187500.02235174447,-187500.02235174447,-187500.02235174447,-187500.02235174447,-187500.02235174447,-187500.02235174447,-187500.02235174447,-187500.02235174447,-187500.02235174447,-187500.02235174447,-187500.02235174447,-187500.02235174447,-187500.02235174447,-187500.02235174447,-187500.02235174447,-187500.02235174447,-187500.02235174447,-187500.02235174447,-187500.02235174447,-187500.02235174447,-187500.02235174447,-187500.02235174447,-187500.02235174447,-187500.02235174447,-187500.02235174447,-187500.02235174447,-187500.02235174447,-187500.02235174447,-187500.02235174447,-187500.02235174447,-187500.02235174447,-187500.02235174447,-187500.02235174447,-187500.02235174447,-187500.02235174447,-187500.02235174447,-187500.02235174447,-187500.02235174447,-187500.02235174447,-187500.02235174447,-187500.02235174447,-187500.02235174447,-187500.02235174447,-187500.02235174447,-187500.02235174447,-187500.02235174447,-187500.02235174447,-187500.02235174447,-187500.02235174447,-187500.02235174447,-187500.02235174447,-187500.02235174447,-187500.02235174447,-187500.02235174447,-187500.02235174447,-187500.02235174447,-187500.02235174447,-187500.02235174447,-187500.02235174447,-187500.02235174447,-187500.02235174447,-187500.02235174447,-187500.02235174447,-187500.02235174447,-187500.02235174447,-187500.02235174447,-187500.02235174447,-187500.02235174447,-187500.02235174447,-187500.02235174447,-187500.02235174447,-187500.02235174447,-187500.02235174447,-187500.02235174447,-187500.02235174447,-187500.02235174447,-187500.02235174447,-187500.02235174447,-187500.02235174447,-187500.02235174447,-187500.02235174447,-187500.02235174447,-187500.02235174447,-187500.02235174447,-187500.02235174447,-187500.02235174447,-187500.02235174447,-187500.02235174447,-187500.02235174447,-187500.02235174447,-187500.02235174447,-187500.02235174447,-187500.02235174447,-187500.02235174447,-187500.02235174447,-187500.02235174447,-187500.02235174447,-187500.02235174447,-187500.02235174447,-187500.02235174447,-187500.02235174447,-187500.02235174447,-187500.02235174447,-187500.02235174447,-187500.02235174447,-187500.02235174447,-187500.02235174447,-187500.02235174447,-187500.02235174447,-187500.02235174447,-187500.02235174447,-187500.02235174447,-187500.02235174447,-187500.02235174447,-187500.02235174447,-187500.02235174447,-187500.02235174447,-187500.02235174447,-187500.02235174447,-187500.02235174447,-187500.02235174447,-187500.02235174447,-187500.02235174447,-187500.02235174447,-187500.02235174447,-187500.02235174447,-187500.02235174447,-187500.02235174447,-187500.02235174447,-187500.02235174447,-187500.02235174447,-187500.02235174447,-187500.02235174447,-187500.02235174447,-187500.02235174447,-187500.02235174447,-187500.02235174447,-187500.02235174447,-187500.02235174447,-187500.02235174447,-187500.02235174447,-187500.02235174447,-187500.02235174447,-187500.02235174447,-187500.02235174447,-187500.02235174447,-187500.02235174447,-187500.02235174447,-187500.02235174447,-187500.02235174447,-187500.02235174447,-187500.02235174447,-187500.02235174447,-187500.02235174447,-187500.02235174447,-187500.02235174447,-187500.02235174447,-187500.02235174447,-187500.02235174447,-187500.02235174447,-187500.02235174447,-187500.02235174447,-187500.02235174447,-187500.02235174447,-187500.02235174447,-187500.02235174447,-187500.02235174447,-187500.02235174447,-187500.02235174447,-187500.02235174447,-187500.02235174447,-187500.02235174447,-187500.02235174447,-187500.02235174447,-187500.02235174447,-187500.02235174447,-187500.02235174447,-187500.02235174447,-187500.02235174447,-187500.02235174447,-187500.02235174447,-187500.02235174447,-187500.02235174447,-187500.02235174447,-187500.02235174447,-187500.02235174447,-187500.02235174447,-187500.02235174447,-187500.02235174447,-187500.02235174447,-187500.02235174447,-187500.02235174447,-187500.02235174447,-187500.02235174447,-187500.02235174447,-187500.02235174447,-187500.02235174447,-187500.02235174447,-187500.02235174447,-187500.02235174447,-187500.02235174447,-187500.02235174447,-187500.02235174447,-187500.02235174447,-187500.02235174447,-187500.02235174447,-187500.02235174447,-187500.02235174447,-187500.02235174447,-187500.02235174447,-187500.02235174447,-187500.02235174447,-187500.02235174447,-187500.02235174447,-187500.02235174447,-187500.02235174447,-187500.02235174447,-187500.02235174447,-187500.02235174447,-187500.02235174447,-187500.02235174447,-187500.02235174447,-187500.02235174447,-187500.02235174447,-187500.02235174447,-187500.02235174447,-187500.02235174447,-187500.02235174447,-187500.02235174447,-187500.02235174447,-187500.02235174447,-187500.02235174447,-187500.02235174447,-187500.02235174447,-187500.02235174447,-187500.02235174447,-187500.02235174447,-187500.02235174447,-187500.02235174447,-187500.02235174447,-187500.02235174447,-187500.02235174447,-187500.02235174447,-187500.02235174447,-187500.02235174447,-187500.02235174447,-187500.02235174447,-187500.02235174447,-187500.02235174447,-187500.02235174447,-187500.02235174447,-187500.02235174447,-187500.02235174447,-187500.02235174447,-187500.02235174447,-187500.02235174447,-187500.02235174447,-187500.02235174447,-187500.02235174447,-187500.02235174447,-187500.02235174447,-187500.02235174447,-187500.02235174447,-187500.02235174447,-187500.02235174447,-187500.02235174447,-187500.02235174447,-187500.02235174447,-187500.02235174447,-187500.02235174447,-187500.02235174447,-187500.02235174447,-187500.02235174447,-187500.02235174447,-187500.02235174447,-187500.02235174447,-187500.02235174447,-187500.02235174447,-187500.02235174447,-187500.02235174447,-187500.02235174447,-187500.02235174447,-187500.02235174447,-187500.02235174447,-187500.02235174447,-187500.02235174447,-187500.02235174447,-187500.02235174447,-187500.02235174447,-187500.02235174447,-187500.02235174447,-187500.02235174447,-187500.02235174447,-187500.02235174447,-187500.02235174447,-187500.02235174447,-187500.02235174447,-187500.02235174447,-187500.02235174447,-187500.02235174447,-187500.02235174447,-187500.02235174447,-187500.02235174447,-187500.02235174447,-187500.02235174447,-187500.02235174447,-187500.02235174447,-187500.02235174447,-187500.02235174447,-187500.02235174447,-187500.02235174447,-187500.02235174447,-187500.02235174447,-187500.02235174447,-187500.02235174447,-187500.02235174447,-187500.02235174447,-187500.02235174447,-187500.02235174447,-187500.02235174447,-187500.02235174447,-187500.02235174447,-187500.02235174447,-187500.02235174447,-187500.02235174447,-187500.02235174447,-187500.02235174447,-187500.02235174447,-187500.02235174447,-187500.02235174447,-187500.02235174447,-187500.02235174447,-187500.02235174447,-187500.02235174447,-187500.02235174447,-187500.02235174447,-187500.02235174447,-187500.02235174447,-187500.02235174447,-187500.02235174447,-187500.02235174447,-187500.02235174447,-187500.02235174447,-187500.02235174447,-187500.02235174447,-187500.02235174447,-187500.02235174447,-187500.02235174447,-187500.02235174447,-187500.02235174447,-187500.02235174447,-187500.02235174447,-187500.02235174447,-187500.02235174447,-187500.02235174447,-187500.02235174447,-187500.02235174447,-187500.02235174447,-187500.02235174447,-187500.02235174447,-187500.02235174447,-187500.02235174447,-187500.02235174447,-187500.02235174447,-187500.02235174447,-187500.02235174447,-187500.02235174447,-187500.02235174447,-187500.02235174447,-187500.02235174447,-187500.02235174447,-187500.02235174447,-187500.02235174447,-187500.02235174447,-187500.02235174447,-187500.02235174447,-187500.02235174447,-187500.02235174447,-187500.02235174447,-187500.02235174447,-187500.02235174447,-187500.02235174447,-187500.02235174447,-187500.02235174447,-187500.02235174447,-187500.02235174447,-187500.02235174447,-187500.02235174447,-187500.02235174447,-187500.02235174447,-187500.02235174447,-187500.02235174447,-187500.02235174447,-187500.02235174447,-187500.02235174447,-187500.02235174447,-187500.02235174447,-187500.02235174447,-187500.02235174447,-187500.02235174447,-187500.02235174447,-187500.02235174447,-187500.02235174447,-187500.02235174447,-187500.02235174447,-187500.02235174447,-187500.02235174447,-187500.02235174447,-187500.02235174447,-187500.02235174447,-187500.02235174447,-187500.02235174447,-187500.02235174447,-187500.02235174447,-187500.02235174447,-187500.02235174447,-187500.02235174447,-187500.02235174447,-187500.02235174447,-187500.02235174447,-187500.02235174447,-187500.02235174447,-187500.02235174447,-187500.02235174447,-187500.02235174447,-187500.02235174447,-187500.02235174447,-187500.02235174447,-187500.02235174447,-187500.02235174447,-187500.02235174447,-187500.02235174447,-187500.02235174447,-187500.02235174447,-187500.02235174447,-187500.02235174447,-187500.02235174447,-187500.02235174447,-187500.02235174447,-187500.02235174447,-187500.02235174447,-187500.02235174447,-187500.02235174447,-187500.02235174447,-187500.02235174447,-187500.02235174447,-187500.02235174447,-187500.02235174447,-187500.02235174447,-187500.02235174447,-187500.02235174447,-187500.02235174447,-187500.02235174447,-187500.02235174447,-187500.02235174447,-187500.02235174447,-187500.02235174447,-187500.02235174447,-187500.02235174447,-187500.02235174447,-187500.02235174447,-187500.02235174447,-187500.02235174447,-187500.02235174447,-187500.02235174447,-187500.02235174447,-187500.02235174447,-187500.02235174447,-187500.02235174447,-187500.02235174447,-187500.02235174447,-187500.02235174447,-187500.02235174447,-187500.02235174447,-187500.02235174447,-187500.02235174447,-187500.02235174447,-187500.02235174447,-187500.02235174447,-187500.02235174447,-187500.02235174447,-187500.02235174447,-187500.02235174447,-187500.02235174447,-187500.02235174447,-187500.02235174447,-187500.02235174447,-187500.02235174447,-187500.02235174447,-187500.02235174447,-187500.02235174447,-187500.02235174447,-187500.02235174447,-187500.02235174447,-187500.02235174447,-187500.02235174447,-187500.02235174447,-187500.02235174447,-187500.02235174447,-187500.02235174447,-187500.02235174447,-187500.02235174447,-187500.02235174447,-187500.02235174447,-187500.02235174447,-187500.02235174447,-187500.02235174447,-187500.02235174447,-187500.02235174447,-187500.02235174447,-187500.02235174447,-187500.02235174447,-187500.02235174447,-187500.02235174447,-187500.02235174447,-187500.02235174447,-187500.02235174447,-187500.02235174447,-187500.02235174447,-187500.02235174447,-187500.02235174447,-187500.02235174447,-187500.02235174447,-187500.02235174447,-187500.02235174447,-187500.02235174447,-187500.02235174447,-187500.02235174447,-187500.02235174447,-187500.02235174447,-187500.02235174447,-187500.02235174447,-187500.02235174447,-187500.02235174447,-187500.02235174447,-187500.02235174447,-187500.02235174447,-187500.02235174447,-187500.02235174447,-187500.02235174447,-187500.02235174447,-187500.02235174447,-187500.02235174447,-187500.02235174447,-187500.02235174447,-187500.02235174447,-187500.02235174447,-187500.02235174447,-187500.02235174447,-187500.02235174447,-187500.02235174447,-187500.02235174447,-187500.02235174447,-187500.02235174447,-187500.02235174447,-187500.02235174447,-187500.02235174447,-187500.02235174447,-187500.02235174447,-187500.02235174447,-187500.02235174447,-187500.02235174447,-187500.02235174447,-187500.02235174447,-187500.02235174447,-187500.02235174447,-187500.02235174447,-187500.02235174447,-187500.02235174447,-187500.02235174447,-187500.02235174447,-187500.02235174447,-187500.02235174447,-187500.02235174447,-187500.02235174447,-187500.02235174447,-187500.02235174447,-187500.02235174447,-187500.02235174447,-187500.02235174447,-187500.02235174447,-187500.02235174447,-187500.02235174447,-187500.02235174447,-187500.02235174447,-187500.02235174447,-187500.02235174447,-187500.02235174447,-187500.02235174447,-187500.02235174447,-187500.02235174447,-187500.02235174447,-187500.02235174447,-187500.02235174447,-187500.02235174447,-187500.02235174447,-187500.02235174447,-187500.02235174447,-187500.02235174447,-187500.02235174447,-187500.02235174447,-187500.02235174447,-187500.02235174447,-187500.02235174447,-187500.02235174447,-187500.02235174447,-187500.02235174447,-187500.02235174447,-187500.02235174447,-187500.02235174447,-187500.02235174447,-187500.02235174447,-187500.02235174447,-187500.02235174447,-187500.02235174447,-187500.02235174447,-187500.02235174447,-187500.02235174447,-187500.02235174447,-187500.02235174447,-187500.02235174447,-187500.02235174447,-187500.02235174447,-187500.02235174447,-187500.02235174447,-187500.02235174447,-187500.02235174447,-187500.02235174447,-187500.02235174447,-187500.02235174447,-187500.02235174447,-187500.02235174447,-187500.02235174447,-187500.02235174447,-187500.02235174447,-187500.02235174447,-187500.02235174447,-187500.02235174447,-187500.02235174447,-187500.02235174447,-187500.02235174447,-187500.02235174447,-187500.02235174447,-187500.02235174447,-187500.02235174447,-187500.02235174447,-187500.02235174447,-187500.02235174447,-187500.02235174447,-187500.02235174447,-187500.02235174447,-187500.02235174447,-187500.02235174447,-187500.02235174447,-187500.02235174447,-187500.02235174447,-187500.02235174447,-187500.02235174447,-187500.02235174447,-187500.02235174447,-187500.02235174447,-187500.02235174447,-187500.02235174447,-187500.02235174447,-187500.02235174447,-187500.02235174447,-187500.02235174447,-187500.02235174447,-187500.02235174447,-187500.02235174447,-187500.02235174447,-187500.02235174447,-187500.02235174447,-187500.02235174447,-187500.02235174447,-187500.02235174447,-187500.02235174447,-187500.02235174447,-187500.02235174447,-187500.02235174447,-187500.02235174447,-187500.02235174447,-187500.02235174447,-187500.02235174447,-187500.02235174447,-187500.02235174447,-187500.02235174447,-187500.02235174447,-187500.02235174447,-187500.02235174447,-187500.02235174447,-187500.02235174447,-187500.02235174447,-187500.02235174447,-187500.02235174447,-187500.02235174447,-187500.02235174447,-187500.02235174447,-187500.02235174447,-187500.02235174447,-187500.02235174447,-187500.02235174447,-187500.02235174447,-187500.02235174447,-187500.02235174447,-187500.02235174447,-187500.02235174447,-187500.02235174447,-187500.02235174447,-187500.02235174447,-187500.02235174447,-187500.02235174447,-187500.02235174447,-187500.02235174447,-187500.02235174447,-187500.02235174447,-187500.02235174447,-187500.02235174447,-187500.02235174447,-187500.02235174447,-187500.02235174447,-187500.02235174447,-187500.02235174447,-187500.02235174447,-187500.02235174447,-187500.02235174447,-187500.02235174447,-187500.02235174447,-187500.02235174447,-187500.02235174447,-187500.02235174447,-187500.02235174447,-187500.02235174447,-187500.02235174447,-187500.02235174447,-187500.02235174447,-187500.02235174447,-187500.02235174447,-187500.02235174447,-187500.02235174447,-187500.02235174447,-187500.02235174447,-187500.02235174447,-187500.02235174447,-187500.02235174447,-187500.02235174447,-187500.02235174447,-187500.02235174447,-187500.02235174447,-187500.02235174447,-187500.02235174447,-187500.02235174447,-187500.02235174447,-187500.02235174447,-187500.02235174447,-187500.02235174447,-187500.02235174447,-187500.02235174447,-187500.02235174447,-187500.02235174447,-187500.02235174447,-187500.02235174447,-187500.02235174447,-187500.02235174447,-187500.02235174447,-187500.02235174447,-187500.02235174447,-187500.02235174447,-187500.02235174447,-187500.02235174447,-187500.02235174447,-187500.02235174447,-187500.02235174447,-187500.02235174447,-187500.02235174447,-187500.02235174447,-187500.02235174447,-187500.02235174447,-187500.02235174447,-187500.02235174447,-187500.02235174447,-187500.02235174447,-187500.02235174447,-187500.02235174447,-187500.02235174447,-187500.02235174447,-187500.02235174447,-187500.02235174447,-187500.02235174447,-187500.02235174447,-187500.02235174447,-187500.02235174447,-187500.02235174447,-187500.02235174447,-187500.02235174447,-187500.02235174447,-187500.02235174447,-187500.02235174447,-187500.02235174447,-187500.02235174447,-187500.02235174447,-187500.02235174447,-187500.02235174447,-187500.02235174447,-187500.02235174447,-187500.02235174447,-187500.02235174447,-187500.02235174447,-187500.02235174447,-187500.02235174447,-187500.02235174447,-187500.02235174447,-187500.02235174447,-187500.02235174447,-187500.02235174447,-187500.02235174447,-187500.02235174447,-187500.02235174447,-187500.02235174447,-187500.02235174447,-187500.02235174447,-187500.02235174447,-187500.02235174447,-187500.02235174447,-187500.02235174447,-187500.02235174447,-187500.02235174447,-187500.02235174447,-187500.02235174447,-187500.02235174447,-187500.02235174447,-187500.02235174447,-187500.02235174447,-187500.02235174447,-187500.02235174447,-187500.02235174447,-187500.02235174447,-187500.02235174447,-187500.02235174447,-187500.02235174447,-187500.02235174447,-187500.02235174447,-187500.02235174447,-187500.02235174447,-187500.02235174447,-187500.02235174447,-187500.02235174447,-187500.02235174447,-187500.02235174447,-187500.02235174447,-187500.02235174447,-187500.02235174447,-187500.02235174447,-187500.02235174447,-187500.02235174447,-187500.02235174447,-187500.02235174447,-187500.02235174447,-187500.02235174447,-187500.02235174447,-187500.02235174447,-187500.02235174447,-187500.02235174447,-187500.02235174447,-187500.02235174447,-187500.02235174447,-187500.02235174447,-187500.02235174447,-187500.02235174447,-187500.02235174447,-187500.02235174447,-187500.02235174447,-187500.02235174447,-187500.02235174447,-187500.02235174447,-187500.02235174447,-187500.02235174447,-187500.02235174447,-187500.02235174447,-187500.02235174447,-187500.02235174447,-187500.02235174447,-187500.02235174447,-187500.02235174447,-187500.02235174447,-187500.02235174447,-187500.02235174447,-187500.02235174447,-187500.02235174447,-187500.02235174447,-187500.02235174447,-187500.02235174447,-187500.02235174447,-187500.02235174447,-187500.02235174447,-187500.02235174447,-187500.02235174447,-187500.02235174447,-187500.02235174447,-187500.02235174447,-187500.02235174447,-187500.02235174447,-187500.02235174447,-187500.02235174447,-187500.02235174447,-187500.02235174447,-187500.02235174447,-187500.02235174447,-187500.02235174447,-187500.02235174447,-187500.02235174447,-187500.02235174447,-187500.02235174447,-187500.02235174447,-187500.02235174447,-187500.02235174447,-187500.02235174447,-187500.02235174447,-187500.02235174447,-187500.02235174447,-187500.02235174447,-187500.02235174447,-187500.02235174447,-187500.02235174447,-187500.02235174447,-187500.02235174447,-187500.02235174447,-187500.02235174447,-187500.02235174447,-187500.02235174447,-187500.02235174447,-187500.02235174447,-187500.02235174447,-187500.02235174447,-187500.02235174447,-187500.02235174447,-187500.02235174447,-187500.02235174447,-187500.02235174447,-187500.02235174447,-187500.02235174447,-187500.02235174447,-187500.02235174447,-187500.02235174447,-187500.02235174447,-187500.02235174447,-187500.02235174447,-187500.02235174447,-187500.02235174447,-187500.02235174447,-187500.02235174447,-187500.02235174447,-187500.02235174447,-187500.02235174447,-187500.02235174447,-187500.02235174447,-187500.02235174447,-187500.02235174447,-187500.02235174447,-187500.02235174447,-187500.02235174447,-187500.02235174447,-187500.02235174447,-187500.02235174447,-187500.02235174447,-187500.02235174447,-187500.02235174447,-187500.02235174447,-187500.02235174447,-187500.02235174447,-187500.02235174447,-187500.02235174447,-187500.02235174447,-187500.02235174447,-187500.02235174447,-187500.02235174447,-187500.02235174447,-187500.02235174447,-187500.02235174447,-187500.02235174447,-187500.02235174447,-187500.02235174447,-187500.02235174447,-187500.02235174447,-187500.02235174447,-187500.02235174447,-187500.02235174447,-187500.02235174447,-187500.02235174447,-187500.02235174447,-187500.02235174447,-187500.02235174447,-187500.02235174447,-187500.02235174447,-187500.02235174447,-187500.02235174447,-187500.02235174447,-187500.02235174447,-187500.02235174447,-187500.02235174447,-187500.02235174447,-187500.02235174447,-187500.02235174447,-187500.02235174447,-187500.02235174447,-187500.02235174447,-187500.02235174447,-187500.02235174447,-187500.02235174447,-187500.02235174447,-187500.02235174447,-187500.02235174447,-187500.02235174447,-187500.02235174447,-187500.02235174447,-187500.02235174447,-187500.02235174447,-187500.02235174447,-187500.02235174447,-187500.02235174447,-187500.02235174447,-187500.02235174447,-187500.02235174447,-187500.02235174447,-187500.02235174447,-187500.02235174447,-187500.02235174447,-187500.02235174447,-187500.02235174447,-187500.02235174447,-187500.02235174447,-187500.02235174447,-187500.02235174447,-187500.02235174447,-187500.02235174447,-187500.02235174447,-187500.02235174447,-187500.02235174447,-187500.02235174447,-187500.02235174447,-187500.02235174447,-187500.02235174447,-187500.02235174447,-187500.02235174447,-187500.02235174447,-187500.02235174447,-187500.02235174447,-187500.02235174447,-187500.02235174447,-187500.02235174447,-187500.02235174447,-187500.02235174447,-187500.02235174447,-187500.02235174447,-187500.02235174447,-187500.02235174447,-187500.02235174447,-187500.02235174447,-187500.02235174447,-187500.02235174447,-187500.02235174447,-187500.02235174447,-187500.02235174447,-187500.02235174447,-187500.02235174447,-187500.02235174447,-187500.02235174447,-187500.02235174447,-187500.02235174447,-187500.02235174447,-187500.02235174447,-187500.02235174447,-187500.02235174447,-187500.02235174447,-187500.02235174447,-187500.02235174447,-187500.02235174447,-187500.02235174447,-187500.02235174447,-187500.02235174447,-187500.02235174447,-187500.02235174447,-187500.02235174447,-187500.02235174447,-187500.02235174447,-187500.02235174447,-187500.02235174447,-187500.02235174447,-187500.02235174447,-187500.02235174447,-187500.02235174447,-187500.02235174447,-187500.02235174447,-187500.02235174447,-187500.02235174447,-187500.02235174447,-187500.02235174447,-187500.02235174447,-187500.02235174447,-187500.02235174447,-187500.02235174447,-187500.02235174447,-187500.02235174447,-187500.02235174447,-187500.02235174447,-187500.02235174447,-187500.02235174447,-187500.02235174447,-187500.02235174447,-187500.02235174447,-187500.02235174447,-187500.02235174447,-187500.02235174447,-187500.02235174447,-187500.02235174447,-187500.02235174447,-187500.02235174447,-187500.02235174447,-187500.02235174447,-187500.02235174447,-187500.02235174447,-187500.02235174447,-187500.02235174447,-187500.02235174447,-187500.02235174447,-187500.02235174447,-187500.02235174447,-187500.02235174447,-187500.02235174447,-187500.02235174447,-187500.02235174447,-187500.02235174447,-187500.02235174447,-187500.02235174447,-187500.02235174447,-187500.02235174447,-187500.02235174447,-187500.02235174447,-187500.02235174447,-187500.02235174447,-187500.02235174447,-187500.02235174447,-187500.02235174447,-187500.02235174447,-187500.02235174447,-187500.02235174447,-187500.02235174447,-187500.02235174447,-187500.02235174447,-187500.02235174447,-187500.02235174447,-187500.02235174447,-187500.02235174447,-187500.02235174447,-187500.02235174447,-187500.02235174447,-187500.02235174447,-187500.02235174447,-187500.02235174447,-187500.02235174447,-187500.02235174447,-187500.02235174447,-187500.02235174447,-187500.02235174447,-187500.02235174447,-187500.02235174447,-187500.02235174447,-187500.02235174447,-187500.02235174447,-187500.02235174447,-187500.02235174447,-187500.02235174447,-187500.02235174447,-187500.02235174447,-187500.02235174447,-187500.02235174447,-187500.02235174447,-187500.02235174447,-187500.02235174447,-187500.02235174447,-187500.02235174447,-187500.02235174447,-187500.02235174447,-187500.02235174447,-187500.02235174447,-187500.02235174447,-187500.02235174447,-187500.02235174447,-187500.02235174447,-187500.02235174447,-187500.02235174447,-187500.02235174447,-187500.02235174447,-187500.02235174447,-187500.02235174447,-187500.02235174447,-187500.02235174447,-187500.02235174447,-187500.02235174447,-187500.02235174447,-187500.02235174447,-187500.02235174447,-187500.02235174447,-187500.02235174447,-187500.02235174447,-187500.02235174447,-187500.02235174447,-187500.02235174447,-187500.02235174447,-187500.02235174447,-187500.02235174447,-187500.02235174447,-187500.02235174447,-187500.02235174447,-187500.02235174447,-187500.02235174447,-187500.02235174447,-187500.02235174447,-187500.02235174447,-187500.02235174447,-187500.02235174447,-187500.02235174447,-187500.02235174447,-187500.02235174447,-187500.02235174447,-187500.02235174447,-187500.02235174447,-187500.02235174447,-187500.02235174447,-187500.02235174447,-187500.02235174447,-187500.02235174447,-187500.02235174447,-187500.02235174447,-187500.02235174447,-187500.02235174447,-187500.02235174447,-187500.02235174447,-187500.02235174447,-187500.02235174447,-187500.02235174447,-187500.02235174447,-187500.02235174447,-187500.02235174447,-187500.02235174447,-187500.02235174447,-187500.02235174447,-187500.02235174447,-187500.02235174447,-187500.02235174447,-187500.02235174447,-187500.02235174447,-187500.02235174447,-187500.02235174447,-187500.02235174447,-187500.02235174447,-187500.02235174447,-187500.02235174447,-187500.02235174447,-187500.02235174447,-187500.02235174447,-187500.02235174447,-187500.02235174447,-187500.02235174447,-187500.02235174447,-187500.02235174447,-187500.02235174447,-187500.02235174447,-187500.02235174447,-187500.02235174447,-187500.02235174447,-187500.02235174447,-187500.02235174447,-187500.02235174447,-187500.02235174447,-187500.02235174447,-187500.02235174447,-187500.02235174447,-187500.02235174447,-187500.02235174447,-187500.02235174447,-187500.02235174447,-187500.02235174447,-187500.02235174447,-187500.02235174447,-187500.02235174447,-187500.02235174447,-187500.02235174447,-187500.02235174447,-187500.02235174447,-187500.02235174447,-187500.02235174447,-187500.02235174447,-187500.02235174447,-187500.02235174447,-187500.02235174447,-187500.02235174447,-187500.02235174447,-187500.02235174447,-187500.02235174447,-187500.02235174447,-187500.02235174447,-187500.02235174447,-187500.02235174447,-187500.02235174447,-187500.02235174447,-187500.02235174447,-187500.02235174447,-187500.02235174447,-187500.02235174447,-187500.02235174447,-187500.02235174447,-187500.02235174447,-187500.02235174447,-187500.02235174447,-187500.02235174447,-187500.02235174447,-187500.02235174447,-187500.02235174447,-187500.02235174447,-187500.02235174447,-187500.02235174447,-187500.02235174447,-187500.02235174447,-187500.02235174447,-187500.02235174447,-187500.02235174447,-187500.02235174447,-187500.02235174447,-187500.02235174447,-187500.02235174447,-187500.02235174447,-187500.02235174447,-187500.02235174447,-187500.02235174447,-187500.02235174447,-187500.02235174447,-187500.02235174447,-187500.02235174447,-187500.02235174447,-187500.02235174447,-187500.02235174447,-187500.02235174447,-187500.02235174447,-187500.02235174447,-187500.02235174447,-187500.02235174447,-187500.02235174447,-187500.02235174447,-187500.02235174447,-187500.02235174447,-187500.02235174447,-187500.02235174447,-187500.02235174447,-187500.02235174447,-187500.02235174447,-187500.02235174447,-187500.02235174447,-187500.02235174447,-187500.02235174447,-187500.02235174447,-187500.02235174447,-187500.02235174447,-187500.02235174447,-187500.02235174447,-187500.02235174447,-187500.02235174447,-187500.02235174447,-187500.02235174447,-187500.02235174447,-187500.02235174447,-187500.02235174447,-187500.02235174447,-187500.02235174447,-187500.02235174447,-187500.02235174447,-187500.02235174447,-187500.02235174447,-187500.02235174447,-187500.02235174447,-187500.02235174447,-187500.02235174447,-187500.02235174447,-187500.02235174447,-187500.02235174447,-187500.02235174447,-187500.02235174447,-187500.02235174447,-187500.02235174447,-187500.02235174447,-187500.02235174447,-187500.02235174447,-187500.02235174447,-187500.02235174447,-187500.02235174447,-187500.02235174447,-187500.02235174447,-187500.02235174447,-187500.02235174447,-187500.02235174447,-187500.02235174447,-187500.02235174447,-187500.02235174447,-187500.02235174447,-187500.02235174447,-187500.02235174447,-187500.02235174447,-187500.02235174447,-187500.02235174447,-187500.02235174447,-187500.02235174447,-187500.02235174447,-187500.02235174447,-187500.02235174447,-187500.02235174447,-187500.02235174447,-187500.02235174447,-187500.02235174447,-187500.02235174447,-187500.02235174447,-187500.02235174447,-187500.02235174447,-187500.02235174447,-187500.02235174447,-187500.02235174447,-187500.02235174447,-187500.02235174447,-187500.02235174447,-187500.02235174447,-187500.02235174447,-187500.02235174447,-187500.02235174447,-187500.02235174447,-187500.02235174447,-187500.02235174447,-187500.02235174447,-187500.02235174447,-187500.02235174447,-187500.02235174447,-187500.02235174447,-187500.02235174447,-187500.02235174447,-187500.02235174447,-187500.02235174447,-187500.02235174447,-187500.02235174447,-187500.02235174447,-187500.02235174447,-187500.02235174447,-187500.02235174447,-187500.02235174447,-187500.02235174447,-187500.02235174447,-187500.02235174447,-187500.02235174447,-187500.02235174447,-187500.02235174447,-187500.02235174447,-187500.02235174447,-187500.02235174447,-187500.02235174447,-187500.02235174447,-187500.02235174447,-187500.02235174447,-187500.02235174447,-187500.02235174447,-187500.02235174447,-187500.02235174447,-187500.02235174447,-187500.02235174447,-187500.02235174447,-187500.02235174447,-187500.02235174447,-187500.02235174447,-187500.02235174447,-187500.02235174447,-187500.02235174447,-187500.02235174447,-187500.02235174447,-187500.02235174447,-187500.02235174447,-187500.02235174447,-187500.02235174447,-187500.02235174447,-187500.02235174447,-187500.02235174447,-187500.02235174447,-187500.02235174447,-187500.02235174447,-187500.02235174447,-187500.02235174447,-187500.02235174447,-187500.02235174447,-187500.02235174447,-187500.02235174447,-187500.02235174447,-187500.02235174447,-187500.02235174447,-187500.02235174447,-187500.02235174447,-187500.02235174447,-187500.02235174447,-187500.02235174447,-187500.02235174447,-187500.02235174447,-187500.02235174447,-187500.02235174447,-187500.02235174447,-187500.02235174447,-187500.02235174447,-187500.02235174447,-187500.02235174447,-187500.02235174447,-187500.02235174447,-187500.02235174447,-187500.02235174447,-187500.02235174447,-187500.02235174447,-187500.02235174447,-187500.02235174447,-187500.02235174447,-187500.02235174447,-187500.02235174447,-187500.02235174447,-187500.02235174447,-187500.02235174447,-187500.02235174447,-187500.02235174447,-187500.02235174447,-187500.02235174447,-187500.02235174447,-187500.02235174447,-187500.02235174447,-187500.02235174447,-187500.02235174447,-187500.02235174447,-187500.02235174447,-187500.02235174447,-187500.02235174447,-187500.02235174447,-187500.02235174447,-187500.02235174447,-187500.02235174447,-187500.02235174447,-187500.02235174447,-187500.02235174447,-187500.02235174447,-187500.02235174447,-187500.02235174447,-187500.02235174447,-187500.02235174447,-187500.02235174447,-187500.02235174447,-187500.02235174447,-187500.02235174447,-187500.02235174447,-187500.02235174447,-187500.02235174447,-187500.02235174447,-187500.02235174447,-187500.02235174447,-187500.02235174447,-187500.02235174447,-187500.02235174447,-187500.02235174447,-187500.02235174447,-187500.02235174447,-187500.02235174447,-187500.02235174447,-187500.02235174447,-187500.02235174447,-187500.02235174447,-187500.02235174447,-187500.02235174447,-187500.02235174447,-187500.02235174447,-187500.02235174447,-187500.02235174447,-187500.02235174447,-187500.02235174447,-187500.02235174447,-187500.02235174447,-187500.02235174447,-187500.02235174447,-187500.02235174447,-187500.02235174447,-187500.02235174447,-187500.02235174447,-187500.02235174447,-187500.02235174447,-187500.02235174447,-187500.02235174447,-187500.02235174447,-187500.02235174447,-187500.02235174447,-187500.02235174447,-187500.02235174447,-187500.02235174447,-187500.02235174447,-187500.02235174447,-187500.02235174447,-187500.02235174447,-187500.02235174447,-187500.02235174447,-187500.02235174447,-187500.02235174447,-187500.02235174447,-187500.02235174447,-187500.02235174447,-187500.02235174447,-187500.02235174447,-187500.02235174447,-187500.02235174447,-187500.02235174447,-187500.02235174447,-187500.02235174447,-187500.02235174447,-187500.02235174447,-187500.02235174447,-187500.02235174447,-187500.02235174447,-187500.02235174447,-187500.02235174447,-187500.02235174447,-187500.02235174447,-187500.02235174447,-187500.02235174447,-187500.02235174447,-187500.02235174447,-187500.02235174447,-187500.02235174447,-187500.02235174447,-187500.02235174447,-187500.02235174447,-187500.02235174447,-187500.02235174447,-187500.02235174447,-187500.02235174447,-187500.02235174447,-187500.02235174447,-187500.02235174447,-187500.02235174447,-187500.02235174447,-187500.02235174447,-187500.02235174447,-187500.02235174447,-187500.02235174447,-187500.02235174447,-187500.02235174447,-187500.02235174447,-187500.02235174447,-187500.02235174447,-187500.02235174447,-187500.02235174447,-187500.02235174447,-187500.02235174447,-187500.02235174447,-187500.02235174447,-187500.02235174447,-187500.02235174447,-187500.02235174447,-187500.02235174447,-187500.02235174447,-187500.02235174447,-187500.02235174447,-187500.02235174447,-187500.02235174447,-187500.02235174447,-187500.02235174447,-187500.02235174447,-187500.02235174447,-187500.02235174447,-187500.02235174447,-187500.02235174447,-187500.02235174447,-187500.02235174447,-187500.02235174447,-187500.02235174447,-187500.02235174447,-187500.02235174447,-187500.02235174447,-187500.02235174447,-187500.02235174447,-187500.02235174447,-187500.02235174447,-187500.02235174447,-187500.02235174447,-187500.02235174447,-187500.02235174447,-187500.02235174447,-187500.02235174447,-187500.02235174447,-187500.02235174447,-187500.02235174447,-187500.02235174447,-187500.02235174447,-187500.02235174447,-187500.02235174447,-187500.02235174447,-187500.02235174447,-187500.02235174447,-187500.02235174447,-187500.02235174447,-187500.02235174447,-187500.02235174447,-187500.02235174447,-187500.02235174447,-187500.02235174447,-187500.02235174447,-187500.02235174447,-187500.02235174447,-187500.02235174447,-187500.02235174447,-187500.02235174447,-187500.02235174447,-187500.02235174447,-187500.02235174447,-187500.02235174447,-187500.02235174447,-187500.02235174447,-187500.02235174447,-187500.02235174447,-187500.02235174447,-187500.02235174447,-187500.02235174447,-187500.02235174447,-187500.02235174447,-187500.02235174447,-187500.02235174447,-187500.02235174447,-187500.02235174447,-187500.02235174447,-187500.02235174447,-187500.02235174447,-187500.02235174447,-187500.02235174447,-187500.02235174447,-187500.02235174447,-187500.02235174447,-187500.02235174447,-187500.02235174447,-187500.02235174447,-187500.02235174447,-187500.02235174447,-187500.02235174447,-187500.02235174447,-187500.02235174447,-187500.02235174447,-187500.02235174447,-187500.02235174447,-187500.02235174447,-187500.02235174447,-187500.02235174447,-187500.02235174447,-187500.02235174447,-187500.02235174447,-187500.02235174447,-187500.02235174447,-187500.02235174447,-187500.02235174447,-187500.02235174447,-187500.02235174447,-187500.02235174447,-187500.02235174447,-187500.02235174447,-187500.02235174447,-187500.02235174447,-187500.02235174447,-187500.02235174447,-187500.02235174447,-187500.02235174447,-187500.02235174447,-187500.02235174447,-187500.02235174447,-187500.02235174447,-187500.02235174447,-187500.02235174447,-187500.02235174447,-187500.02235174447,-187500.02235174447,-187500.02235174447,-187500.02235174447,-187500.02235174447,-187500.02235174447,-187500.02235174447,-187500.02235174447,-187500.02235174447,-187500.02235174447,-187500.02235174447,-187500.02235174447,-187500.02235174447,-187500.02235174447,-187500.02235174447,-187500.02235174447,-187500.02235174447,-187500.02235174447,-187500.02235174447,-187500.02235174447,-187500.02235174447,-187500.02235174447,-187500.02235174447,-187500.02235174447,-187500.02235174447,-187500.02235174447,-187500.02235174447,-187500.02235174447,-187500.02235174447,-187500.02235174447,-187500.02235174447,-187500.02235174447,-187500.02235174447,-187500.02235174447,-187500.02235174447,-187500.02235174447,-187500.02235174447,-187500.02235174447,-187500.02235174447,-187500.02235174447,-187500.02235174447,-187500.02235174447,-187500.02235174447,-187500.02235174447,-187500.02235174447,-187500.02235174447,-187500.02235174447,-187500.02235174447,-187500.02235174447,-187500.02235174447,-187500.02235174447,-187500.02235174447,-187500.02235174447,-187500.02235174447,-187500.02235174447,-187500.02235174447,-187500.02235174447,-187500.02235174447,-187500.02235174447,-187500.02235174447,-187500.02235174447,-187500.02235174447,-187500.02235174447,-187500.02235174447,-187500.02235174447,-187500.02235174447,-187500.02235174447,-187500.02235174447,-187500.02235174447,-187500.02235174447,-187500.02235174447,-187500.02235174447,-187500.02235174447,-187500.02235174447,-187500.02235174447,-187500.02235174447,-187500.02235174447,-187500.02235174447,-187500.02235174447,-187500.02235174447,-187500.02235174447,-187500.02235174447,-187500.02235174447,-187500.02235174447,-187500.02235174447,-187500.02235174447,-187500.02235174447,-187500.02235174447,-187500.02235174447,-187500.02235174447,-187500.02235174447,-187500.02235174447,-187500.02235174447,-187500.02235174447,-187500.02235174447,-187500.02235174447,-187500.02235174447,-187500.02235174447,-187500.02235174447,-187500.02235174447,-187500.02235174447,-187500.02235174447,-187500.02235174447,-187500.02235174447,-187500.02235174447,-187500.02235174447,-187500.02235174447,-187500.02235174447,-187500.02235174447,-187500.02235174447,-187500.02235174447,-187500.02235174447,-187500.02235174447,-187500.02235174447,-187500.02235174447,-187500.02235174447,-187500.02235174447,-187500.02235174447,-187500.02235174447,-187500.02235174447,-187500.02235174447,-187500.02235174447,-187500.02235174447,-187500.02235174447,-187500.02235174447,-187500.02235174447,-187500.02235174447,-187500.02235174447,-187500.02235174447,-187500.02235174447,-187500.02235174447,-187500.02235174447,-187500.02235174447,-187500.02235174447,-187500.02235174447,-187500.02235174447,-187500.02235174447,-187500.02235174447,-187500.02235174447,-187500.02235174447,-187500.02235174447,-187500.02235174447,-187500.02235174447,-187500.02235174447,-187500.02235174447,-187500.02235174447,-187500.02235174447,-187500.02235174447,-187500.02235174447,-187500.02235174447,-187500.02235174447,-187500.02235174447,-187500.02235174447,-187500.02235174447,-187500.02235174447,-187500.02235174447,-187500.02235174447,-187500.02235174447,-187500.02235174447,-187500.02235174447,-187500.02235174447,-187500.02235174447,-187500.02235174447,-187500.02235174447,-187500.02235174447,-187500.02235174447,-187500.02235174447,-187500.02235174447,-187500.02235174447,-187500.02235174447,-187500.02235174447,-187500.02235174447,-187500.02235174447,-187500.02235174447,-187500.02235174447,-187500.02235174447,-187500.02235174447,-187500.02235174447,-187500.02235174447,-187500.02235174447,-187500.02235174447,-187500.02235174447,-187500.02235174447,-187500.02235174447,-187500.02235174447,-187500.02235174447,-187500.02235174447,-187500.02235174447,-187500.02235174447,-187500.02235174447,-187500.02235174447,-187500.02235174447,-187500.02235174447,-187500.02235174447,-187500.02235174447,-187500.02235174447,-187500.02235174447,-187500.02235174447,-187500.02235174447,-187500.02235174447,-187500.02235174447,-187500.02235174447,-187500.02235174447,-187500.02235174447,-187500.02235174447,-187500.02235174447,-187500.02235174447,-187500.02235174447,-187500.02235174447,-187500.02235174447,-187500.02235174447,-187500.02235174447,-187500.02235174447,-187500.02235174447,-187500.02235174447,-187500.02235174447,-187500.02235174447,-187500.02235174447,-187500.02235174447,-187500.02235174447,-187500.02235174447,-187500.02235174447,-187500.02235174447,-187500.02235174447,-187500.02235174447,-187500.02235174447,-187500.02235174447,-187500.02235174447,-187500.02235174447,-187500.02235174447,-187500.02235174447,-187500.02235174447,-187500.02235174447,-187500.02235174447,-187500.02235174447,-187500.02235174447,-187500.02235174447,-187500.02235174447,-187500.02235174447,-187500.02235174447,-187500.02235174447,-187500.02235174447,-187500.02235174447,-187500.02235174447,-187500.02235174447,-187500.02235174447,-187500.02235174447,-187500.02235174447,-187500.02235174447,-187500.02235174447,-187500.02235174447,-187500.02235174447,-187500.02235174447,-187500.02235174447,-187500.02235174447,-187500.02235174447,-187500.02235174447,-187500.02235174447,-187500.02235174447,-187500.02235174447,-187500.02235174447,-187500.02235174447,-187500.02235174447,-187500.02235174447,-187500.02235174447,-187500.02235174447,-187500.02235174447,-187500.02235174447,-187500.02235174447,-187500.02235174447,-187500.02235174447,-187500.02235174447,-187500.02235174447,-187500.02235174447,-187500.02235174447,-187500.02235174447,-187500.02235174447,-187500.02235174447,-187500.02235174447,-187500.02235174447,-187500.02235174447,-187500.02235174447,-187500.02235174447,-187500.02235174447,-187500.02235174447,-187500.02235174447,-187500.02235174447,-187500.02235174447,-187500.02235174447,-187500.02235174447,-187500.02235174447,-187500.02235174447,-187500.02235174447,-187500.02235174447,-187500.02235174447,-187500.02235174447,-187500.02235174447,-187500.02235174447,-187500.02235174447,-187500.02235174447,-187500.02235174447,-187500.02235174447,-187500.02235174447,-187500.02235174447,-187500.02235174447,-187500.02235174447,-187500.02235174447,-187500.02235174447,-187500.02235174447,-187500.02235174447,-187500.02235174447,-187500.02235174447,-187500.02235174447,-187500.02235174447,-187500.02235174447,-187500.02235174447,-187500.02235174447,-187500.02235174447,-187500.02235174447,-187500.02235174447,-187500.02235174447,-187500.02235174447,-187500.02235174447,-187500.02235174447,-187500.02235174447,-187500.02235174447,-187500.02235174447,-187500.02235174447,-187500.02235174447,-187500.02235174447,-187500.02235174447,-187500.02235174447,-187500.02235174447,-187500.02235174447,-187500.02235174447,-187500.02235174447,-187500.02235174447,-187500.02235174447,-187500.02235174447,-187500.02235174447,-187500.02235174447,-187500.02235174447,-187500.02235174447,-187500.02235174447,-187500.02235174447,-187500.02235174447,-187500.02235174447,-187500.02235174447,-187500.02235174447,-187500.02235174447,-187500.02235174447,-187500.02235174447,-187500.02235174447,-187500.02235174447,-187500.02235174447,-187500.02235174447,-187500.02235174447,-187500.02235174447,-187500.02235174447,-187500.02235174447,-187500.02235174447,-187500.02235174447,-187500.02235174447,-187500.02235174447,-187500.02235174447,-187500.02235174447,-187500.02235174447,-187500.02235174447,-187500.02235174447,-187500.02235174447,-187500.02235174447,-187500.02235174447,-187500.02235174447,-187500.02235174447,-187500.02235174447,-187500.02235174447,-187500.02235174447,-187500.02235174447,-187500.02235174447,-187500.02235174447,-187500.02235174447,-187500.02235174447,-187500.02235174447,-187500.02235174447,-187500.02235174447,-187500.02235174447,-187500.02235174447,-187500.02235174447,-187500.02235174447,-187500.02235174447,-187500.02235174447,-187500.02235174447,-187500.02235174447,-187500.02235174447,-187500.02235174447,-187500.02235174447,-187500.02235174447,-187500.02235174447,-187500.02235174447,-187500.02235174447,-187500.02235174447,-187500.02235174447,-187500.02235174447,-187500.02235174447,-187500.02235174447,-187500.02235174447,-187500.02235174447,-187500.02235174447,-187500.02235174447,-187500.02235174447,-187500.02235174447,-187500.02235174447,-187500.02235174447,-187500.02235174447,-187500.02235174447,-187500.02235174447,-187500.02235174447,-187500.02235174447,-187500.02235174447,-187500.02235174447,-187500.02235174447,