0.0,-49699.57318300882,-49632.74146708745,-49500.84382305668,-49404.57485968767,-49334.30097512019,-49237.0708867396,-49145.495789706205,-49076.40654759485,-49021.60007019044,-48930.114380134866,-48814.10882641182,-48744.32668022236,-48666.11792637324,-48572.44176536104,-48479.81613633825,-48352.76882085429,-48204.62145860451,-48082.46917515626,-48025.29341283959,-47906.76211199309,-47775.40090982925,-47671.17472543415,-47598.41979723213,-47487.82336566727,-47382.591352771684,-47296.201860451925,-47152.9271784934,-47045.3035289411,-46969.19583907078,-46886.60614330842,-46770.55588609647,-46639.395849632725,-46551.55349392337,-46435.883216367154,-46293.59201116467,-46120.85773001405,-46016.74330434124,-45906.83977685449,-45839.851598721936,-45755.67492910325,-45692.128919616815,-45640.7199073696,-45575.29635134892,-45500.350952190274,-45423.528006497385,-45326.47673207244,-45223.34578315566,-45133.58117742314,-45013.52995795369,-44932.41547732538,-44862.94625555829,-44765.33618752196,-44725.25950971359,-44660.08182288192,-44591.08198774839,-44489.94034408812,-44425.32145086783,-44348.900836575136,-44302.58802206374,-44253.21301856197,-44202.787483070795,-44171.89737223356,-44103.61279292259,-44086.40194969201,-44077.32714144315,-44069.034644250234,-44029.9414431979,-43965.41195695543,-43887.73964497324,-43819.72328659574,-43739.636986212376,-43701.2143374937,-43690.99959027763,-43621.64212723281,-43564.48871666059,-43508.49759680004,-43490.28092506897,-43495.0641983824,-43477.406320262715,-43460.03901482094,-43447.16441001468,-43391.195641898594,-43360.84197292828,-43314.19388225006,-43233.72760221095,-43175.054273015776,-43145.59467382368,-43144.65590055656,-43193.67327614704,-43141.30313888826,-43095.705580199436,-43136.452810341456,-43099.28185931228,-43021.76600954128,-42933.87895034301,-42898.04910398115,-42918.29978445766,-42887.54378408716,-42872.59046704656,-42864.990873931754,-42818.83452163154,-42824.176588556365,-42919.46207516934,-42935.35416547706,-42939.98097657931,-42917.22690072381,-42907.146263974464,-42842.88499866545,-42790.33604745103,-42806.42930345885,-42825.51769322368,-42835.978309628765,-42839.84516141954,-42815.794684385626,-42817.26989951967,-42807.524538937156,-42783.474061903245,-42786.46919566026,-42758.305997646574,-42773.482832131725,-42776.008579255176,-42815.32529775206,-42839.15225734142,-42806.29519299212,-42780.545983379605,-42820.57795769906,-42870.10942341202,-42841.54389399814,-42806.38459996994,-42833.184341571854,-42868.05306292213,-42876.85965023752,-42858.73238548427,-42814.52063495167,-42875.02680719219,-42968.61356122656,-43024.35881189809,-43056.88060008056,-43106.613231493626,-43211.398209500105,-43302.45921641102,-43359.165592094134,-43483.910677899206,-43739.771096679106,-43993.552803224666,-44240.65133817808,-44511.643887954226,-44823.04839170556,-45202.625716045586,-45534.77263865145,-45828.92159568329,-46124.07638121562,-46455.64215846565,-46722.54433900647,-47028.80794153309,-47304.94139253395,-47524.92726146308,-47736.33006052137,-48021.851244193465,-48289.02164566775,-48500.17857553704,-48628.946975344064,-48728.859273059286,-48857.560617632946,-48966.99475848613,-49001.483500180664,-49039.79439017706,-49119.94774579379,-49143.39472572741,-49094.4891088592,-49042.94598614526,-48973.16383995579,-48939.904444206295,-48899.11251057536,-48879.06299579895,-48857.761783333044,-48792.539393012456,-48655.41144077915,-48590.54667836984,-48545.619672014676,-48468.55085713278,-48364.414079715505,-48354.1099255216,-48323.33157340665,-48253.77294466173,-48144.964652653296,-48048.338061373004,-47994.00097060215,-48009.624839976415,-47998.717188682225,-47947.97872876868,-47863.48913472761,-47813.0859509809,-47744.935482136665,-47669.67715855565,-47539.478247103485,-47433.17335047405,-47364.55349499625,-47273.3583776186,-47141.79600975466,-47014.815749504065,-46922.05601001454,-46879.69945427173,-46883.722768273685,-46800.060188777476,-46708.1721673217,-46639.19468393263,-46546.65846188766,-46442.879312381665,-46369.476183590436,-46293.12262453111,-46227.6096615326,-46221.64174576304,-46206.84489093362,-46123.249366670774,-46096.628439024505,-46065.53716248717,-46023.73940035575,-45963.47909730424,-45909.49963444467,-45887.88549755639,-45871.41226189283,-45836.25296786463,-45790.85657487591,-45748.477667388644,-45720.00154495258,-45652.67809065319,-45573.86583970378,-45472.79125127688,-45438.347213071254,-45415.97311687149,-45341.49710434641,-45183.15734662501,-45127.07681978665,-45128.663793642976,-45031.85838840704,-44936.59525353852,-44888.807223893076,-44823.16015042784,-44688.55794531798,-44559.5660280664,-44499.9539256041,-44429.076543936324,-44324.04569674083,-44219.81951234573,-44121.181264064464,-44056.316501655165,-43909.53259581716,-43775.75740525215,-43729.981032607684,-43678.84024129394,-43568.221457984626,-43453.51230543999,-43374.275371345924,-43269.08806193925,-43170.96390378045,-43138.553874320256,-43155.63060708411,-43100.71237095742,-43032.11486722408,-42933.87895034301,-42892.14824344495,-42834.77131542818,-42745.76666900715,-42696.793996905566,-42701.10788358544,-42623.23440590315,-42518.18120696321,-42431.97052859909,-42358.992082952514,-42306.86781488274,-42255.88348578018,-42176.803013897304,-42081.47282379542,-42000.02306700028,-41949.08344138664,-41935.06889761316,-41947.652929741496,-41893.9863913043,-41813.98949789876,-41736.60775859449,-41697.782778475615,-41680.102548611474,-41633.07447827751,-41559.53723901955,-41528.84829388241,-41496.88529931132,-41457.74739477008,-41421.090533863375,-41359.08679474435,-41342.03241372495,-41328.06257344039,-41315.76911398997,-41328.64371879622,-41340.87012301327,-41304.79440746241,-41236.42042117363,-41156.065899856796,-41105.48390215444,-41060.26632312135,-41076.67250355155,-41113.17290224706,-41053.02435791783,-40995.64742990106,-40953.55909509172,-40927.85458896811,-40888.739036171326,-40858.92180906794,-40836.27949193472,-40793.94528793637,-40725.25837722521,-40714.57424337557,-40720.22923472276,-40689.0038477187,-40702.996039747726,-40664.7969084736,-40663.14287938391,-40656.92909442534,-40622.66387017535,-40558.53671533307,-40543.516343059106,-40539.671843012795,-40488.91103135479,-40466.738100855124,-40497.49410122563,-40509.65345020932,-40479.76916787257,-40481.73612138464,-40449.63901634682,-40401.538062278996,-40405.22610011412,-40449.92958902474,-40425.163856168256,-40449.52725762454,-40496.26475528059,-40602.77081761012,-40725.92892955887,-40846.60599787307,-40981.409368683024,-41207.474912104,-41438.8825224498,-41729.678717813345,-42010.26016596081,-42235.386936114664,-42503.65257306726,-42807.81511161508,-43112.80466470774,-43441.37530820075,-43827.792266344106,-44138.86149392861,-44431.06584919284,-44725.86300681389,-45046.61053974755,-45334.97039496546,-45559.89599941921,-45771.72348162216,-45971.19044914132,-46136.816875555145,-46323.00690686786,-46471.221324351,-46633.20441641861,-46679.025492551984,-46734.50252229006,-46754.23911264409,-46728.7804757095,-46752.92035972123,-46767.896028506286,-46828.156331557795,-46895.90446900183,-46935.310594476534,-46871.18343963426,-46770.84645877439,-46745.454877073156,-46747.37712709631,-46703.90298413074,-46721.98554539509,-46704.32766727539,-46638.03239322095,-46571.13362206622,-46554.816848613846,-46542.45633393006,-46526.072505244316,-46525.73722907749,-46534.00737452595,-46564.65161617418,-46536.44371467158,-46499.13865317567,-46470.88604818416,-46498.110472930726,-46508.10170270225,-46504.190147422574,-46472.42831855158,-46403.67435260706,-46334.9874418959,-46284.40544419354,-46210.82350144667,-46097.92484020291,-46001.14178671143,-45891.282962713594,-45738.50878936157,-45623.24084320555,-45500.082731256814,-45367.89451454813,-45220.55181509874,-45076.40541510647,-44973.47563188978,-44919.78674170813,-44880.42531972234,-44803.06593216252,-44614.77483687101,-44457.99970126149,-44350.68897613156,-44214.119817509636,-44077.68476935444,-43942.23319795528,-43800.836062531,-43710.78088412057,-43611.762656183564,-43463.57059044488,-43355.745775192474,-43248.81502971829,-43183.48088067542,-43138.755040020354,-43066.7153676409,-42994.13925339452,-42916.82456932361,-42873.37277810249,-42781.48475664673,-42624.03906870355,-42536.93432056121,-42413.68680163465,-42308.25362303897,-42212.34228758124,-42127.98680400691,-42005.879224047574,-41855.38492862999,-41749.59412212302,-41616.221262958206,-41521.22634902315,-41498.628735378836,-41404.08085633288,-41280.922744384145,-41154.09894634473,-41037.66870947704,-40964.24322894135,-40867.41547196096,-40748.705357158826,-40654.872733935445,-40546.26560762711,-40411.864568217345,-40281.419787576175,-40154.21600988102,-40073.34739844172,-40003.945231907994,-39924.19420769146,-39867.487832008344,-39764.513345302745,-39656.95675098381,-39517.191292904776,-39414.14975096581,-39335.29279652749,-39226.03746962994,-39135.69171854159,-39049.32457796628,-38944.36078600416,-38835.37368004009,-38760.62944658154,-38630.36347989601,-38531.1440862589,-38467.59807677246,-38382.50498563111,-38316.3438220434,-38278.99405705858,-38229.88727449027,-38184.423826268176,-38125.99636626201,-38055.230743316504,-38009.83435032777,-37926.86467490967,-37855.00381648586,-37790.22846105438,-37760.18771650645,-37702.63197453404,-37625.25023522976,-37519.14650430042,-37445.139878408896,-37450.996035456184,-37462.23896291721,-37424.53157002111,-37324.93219672825,-37255.194754027696,-37197.862529499835,-37167.8217849519,-37145.0677090964,-37103.64992662072,-37032.34786180829,-36943.343215387256,-36884.334610025246,-36907.44631379203,-36909.88265393766,-36816.83234177021,-36766.40680627904,-36748.59246594816,-36738.198904776444,-36764.015169622326,-36736.58957917566,-36647.83080194364,-36577.80278656516,-36575.187632463894,-36527.913692940914,-36428.671947559356,-36399.41351406735,-36417.4960753317,-36422.435810856325,-36484.35014299752,-36563.69883581386,-36594.119560017534,-36584.37419943502,-36549.594885062565,-36527.287844096165,-36480.14801503992,-36436.606816840984,-36466.53580266664,-36468.078073034056,-36487.07705582107,-36493.670820435385,-36538.32960585709,-36586.05058026917,-36633.905665147984,-36765.51273650083,-36960.71052082903,-37179.93643044668,-37408.88534890239,-37677.68742772191,-38038.35517625275,-38429.398945498346,-38773.7499205768,-39077.95716261354,-39417.480160889645,-39786.48511010231,-40094.626259163175,-40445.19101920021,-40770.386549280476,-41053.62785501812,-41357.119841232285,-41653.2804552651,-41857.24012341978,-42037.059907562725,-42230.04486918985,-42373.47601335955,-42516.8848057848,-42652.98457777317,-42763.335140149014,-42889.71190329932,-42959.516401233246,-43023.80001828671,-43162.13496472061,-43189.515851678356,-43173.31083694826,-43196.53429943732,-43145.34880463467,-43103.48398726988,-43114.19047286397,-43066.64831240753,-43078.29357126875,-43135.3799266076,-43175.43425267151,-43187.63830514411,-43163.297255432284,-43130.84252248317,-43141.414897610535,-43146.511095346345,-43133.8823597291,-43127.288595114784,-43174.04844451528,-43196.713113392965,-43146.75696453536,-43099.9747633904,-43121.92417644551,-43161.620874598135,-43156.56938035123,-43150.646168070576,-43139.939682476484,-43131.53542656129,-43105.138016359575,-43080.57344920319,-43027.06337297719,-42954.196686052885,-42847.511809767704,-42735.35075609097,-42606.82822547296,-42478.1268808993,-42305.75022765997,-42209.2130433575,-42086.85959420915,-41956.32540659016,-41775.678607902366,-41595.05416095903,-41476.031121734515,-41388.72520789209,-41276.56415421535,-41178.372940823196,-41023.989441870384,-40869.58359117313,-40785.71984597681,-40700.38088564645,-40593.830119828,-40463.83237407594,-40358.30978850243,-40249.03210986043,-40173.37145487922,-40097.39787547563,-40049.63219757464,-39979.49242347389,-39820.59387214111,-39662.656445819914,-39569.24850574118,-39453.57822818497,-39353.62122698084,-39250.80320248642,-39159.80925080887,-39051.53740066736,-38958.442385011,-38859.893543707556,-38741.2951876277,-38624.39556412644,-38529.512408913666,-38448.50968700763,-38341.578941533444,-38256.57525736991,-38132.612482620774,-38010.348440450245,-37933.5031430129,-37819.844522457664,-37705.73886701332,-37547.95790290331,-37405.95727037874,-37246.56698066795,-37118.29031923894,-37075.64319081821,-37021.484914003006,-36914.39770631763,-36831.56214136626,-36738.71299489892,-36621.96983360885,-36525.36559407301,-36452.81183157108,-36326.47977190969,-36182.37807540633,-36098.42492323219,-35995.58454699333,-35900.902557480644,-35829.868713601674,-35720.903959382056,-35672.89241229206,-35636.25790312981,-35582.45725422588,-35514.97733771531,-35416.58495862305,-35315.46566670724,-35240.81084022651,-35138.66336806576,-35063.69561716266,-35001.49071234354,-34889.463769133545,-34788.34447721773,-34764.87514553966,-34757.901401269606,-34704.68189772152,-34598.24289062535,-34546.74447140032,-34549.87371562406,-34527.27610197975,-34466.97109543933,-34381.09569324204,-34319.069602378564,-34309.45835226278,-34285.854910117974,-34209.05431616954,-34149.46456545169,-34114.9534720127,-34111.08662022193,-34038.041119341986,-33978.02668547949,-33954.065615423395,-33945.48254555256,-33893.15711178268,-33863.98808526851,-33855.20384969757,-33813.11551488823,-33736.73960408445,-33675.47347253245,-33677.08279813323,-33693.51133030788,-33710.67747004956,-33675.80874869928,-33650.864201887154,-33624.69030912999,-33641.18589653801,-33624.0868120297,-33555.2210873629,-33519.99473810133,-33544.201677346435,-33580.74677953086,-33571.85078523765,-33504.50497919381,-33407.27489081322,-33407.63251872451,-33443.08238543062,-33398.46830349783,-33309.59776754353,-33252.82433662705,-33220.928397289324,-33227.41040318136,-33248.95748483628,-33215.38516466441,-33093.36699168289,-33056.59837205391,-33098.57494814097,-33108.34266046794,-33072.3563518949,-33111.20368375822,-33117.99861407264,-33120.23378851817,-33082.34758166642,-33068.51185184858,-33106.82274184498,-33121.105506551925,-33195.02272546563,-33276.092502605024,-33397.06014359715,-33613.492085157886,-33849.347692650284,-34035.940055363186,-34258.87635456042,-34610.02225995329,-34927.551141685384,-35212.78175267956,-35577.87514661255,-36028.910997976185,-36412.712802018264,-36808.830417255216,-37176.13663388928,-37422.609319997944,-37674.62523873153,-38009.20850148302,-38377.18527045075,-38684.25353577775,-38926.591149162196,-39132.89775048468,-39325.905063856255,-39517.884196982886,-39706.912899841416,-39911.83369300768,-40060.517497124376,-40186.02254224093,-40299.27883139597,-40391.390370296285,-40445.61570234486,-40433.121077194344,-40401.04632390098,-40425.38737361281,-40443.402879643785,-40493.85076687941,-40538.44249706775,-40568.57264859351,-40601.36265770944,-40590.18678548179,-40570.76311955012,-40585.33645693499,-40535.31325284401,-40490.945040100225,-40480.21620276168,-40483.97129583017,-40515.59901423443,-40540.40945057982,-40511.75451418811,-40480.663237650784,-40523.84680793843,-40530.46292429721,-40506.09952284092,-40460.881943807835,-40443.22406568814,-40347.64800639725,-40271.67442699366,-40284.370217844276,-40274.155470628204,-40219.1925310126,-40133.428887537586,-40062.28328493635,-39971.40109198107,-39897.10389341163,-39823.231377986835,-39704.610670162525,-39620.45635228829,-39503.824949720496,-39328.430810979706,-39120.291366611884,-38906.876910552615,-38731.01338517826,-38601.77559873767,-38517.4424669078,-38409.55059642203,-38337.801496720494,-38240.39259438427,-38130.08673549732,-38002.19005372406,-37885.20102324498,-37791.256641299326,-37649.65834017496,-37497.979402301244,-37437.00384342716,-37380.2751159996,-37329.62606306387,-37248.690396391205,-37190.240584640575,-37112.18829300264,-36974.94858204706,-36871.460005218985,-36841.1957432265,-36795.64288802658,-36658.29141834872,-36498.297631537636,-36367.115243329434,-36268.812271215,-36156.15947916025,-36042.32204464937,-35943.43792717909,-35827.298262989316,-35745.848506194176,-35639.655368287014,-35521.79461977418,-35444.99402582574,-35364.147766130896,-35294.432675174794,-35187.68074365625,-35114.12115265383,-35020.0650119859,-34915.43649619061,-34771.60302062071,-34600.098085415135,-34480.87388049053,-34432.97409212281,-34318.33199481154,-34135.94176005623,-34018.14806677676,-33954.64676077924,-33911.97728061405,-33820.5809975363,-33717.852380019714,-33619.974091049924,-33496.68186863445,-33446.50220233228,-33435.549847549184,-33415.09800137258,-33374.21666076382,-33299.96416568329,-33217.75444957667,-33130.672053178794,-33110.4660761912,-33070.81408152748,-33014.06300235546,-32964.151556986755,-32902.17016961219,-32833.5503141344,-32740.70116766705,-32680.351457637724,-32616.827799895742,-32519.418897559513,-32456.90106831802,-32390.51638728576,-32314.118124737517,-32285.373781367995,-32249.119251861484,-32217.62564392396,-32189.08246625453,-32160.919268240843,-32097.35090700995,-32021.19851365072,-31933.333806196908,-31861.003561139532,-31807.404077935706,-31746.383815572717,-31707.558835453852,-31683.016620041923,-31656.64156158466,-31639.251904398432,-31595.509540499395,-31495.217263128434,-31426.150372761535,-31392.220424678377,-31374.719008769873,-31328.741470425306,-31227.93510293187,-31140.852706533995,-31112.756563753675,-31075.1832813243,-31030.546847647056,-30978.087303410448,-30913.4460584457,-30846.882563457795,-30786.845777850842,-30843.552153533958,-30823.63674922428,-30786.018763305994,-30723.389175342225,-30729.580608556345,-30695.270680817448,-30646.92385756062,-30627.790764306876,-30576.940545671052,-30496.451913887493,-30423.004081607352,-30407.871950611112,-30373.49496763885,-30329.551438039714,-30239.9879980073,-30193.675183495903,-30183.371029302005,-30217.0327564517,-30283.126864806043,-30323.51646703678,-30292.13461782153,-30270.408722210974,-30271.638068156015,-30219.51380008624,-30149.597543430038,-30102.301252162608,-30079.793045496113,-30031.334463517007,-29999.97496604621,-29970.135387198377,-29963.139291183867,-29898.185121796745,-29853.772205564048,-29811.415649821243,-29797.602271747863,-29824.111440671855,-29852.00641775208,-29882.471845444663,-29904.44361024423,-29883.075342544955,-29910.523284736075,-30016.582312176506,-30101.58599634004,-30248.526364389225,-30465.382989094614,-30659.753758877967,-30873.54819459298,-31153.950828784804,-31461.84610865666,-31796.518778385973,-32110.963119383232,-32487.969993110895,-32903.42186730169,-33270.996304869215,-33668.343266051204,-34101.20714917268,-34419.741859405265,-34732.46511607947,-35009.3138229029,-35325.054565078564,-35652.597028326636,-35923.74604031396,-36155.84655473787,-36399.30175534508,-36605.96598457885,-36754.850954395646,-36846.493106662405,-36961.0234452514,-37058.63351328773,-37155.72949120158,-37218.09085823189,-37266.54944021099,-37334.76696428859,-37345.7640225606,-37314.136304156345,-37295.6514114918,-37298.110103381885,-37295.76317021408,-37303.40746681779,-37329.42489736377,-37353.92240928679,-37369.88155482788,-37368.361636204914,-37365.657075125826,-37356.15758373232,-37326.832095006954,-37316.639699535335,-37326.89915024032,-37388.58996493697,-37416.35083155046,-37445.16223015335,-37464.362378640464,-37459.62380881594,-37463.736529795715,-37437.9873201832,-37388.47820621469,-37337.00213873412,-37267.82348964494,-37207.31731740443,-37172.44859605415,-37091.87055729277,-37030.783239696415,-36928.568712302294,-36841.53101939333,-36753.733367172885,-36652.77053746826,-36587.79401633669,-36472.32490448057,-36344.09294654047,-36230.14375330732,-36090.71357139511,-35890.79956898684,-35727.49772399637,-35607.11122836009,-35493.050276404654,-35391.551004833105,-35285.782550070595,-35196.77790364956,-35071.83165214439,-34952.56274373087,-34833.249131828445,-34742.03166270634,-34578.72981771587,-34411.225844767796,-34342.494230567725,-34288.514767708155,-34176.666638453804,-34044.54547697848,-33912.46901899207,-33755.64917989363,-33579.80800626374,-33446.65866454347,-33306.26735761969,-33216.01101350916,-33106.39805870033,-32958.40715866174,-32849.39770095321,-32802.660203297164,-32748.636036948687,-32609.854055625685,-32436.024538996764,-32298.069572218606,-32191.339992444515,-32090.667735417814,-31982.351181787395,-31835.72373816058,-31757.157356400177,-31630.378261849673,-31468.59633548216,-31289.514158906244,-31168.099483025013,-31033.921961059805,-30896.190511726203,-30786.890481339753,-30636.507944644447,-30538.450841719015,-30446.473413285425,-30316.408612299994,-30229.0356432242,-30128.139868752944,-30024.47247796923,-29959.630067304384,-29820.0881266699,-29646.705644930084,-29542.546515768354,-29440.68961628552,-29322.89592300605,-29296.23029187087,-29258.96993386387,-29201.950633758384,-29124.01010084273,-29016.945244901806,-28864.28283027206,-28792.310213125973,-28683.077237972884,-28565.574117371336,-28493.512093247427,-28411.39178411863,-28314.787544582792,-28220.239665536843,-28143.260257632766,-28064.291544472166,-27962.18877580032,-27859.907193172836,-27791.913186539794,-27706.194246553692,-27593.206178332115,-27482.118008389236,-27386.810170031808,-27316.692747675508,-27258.15352894706,-27193.892263638052,-27115.661158044477,-27044.135575787495,-26948.134833351953,-26851.39648334938,-26781.7707993711,-26748.779624555067,-26691.71562096067,-26568.40104680074,-26436.101071369776,-26387.955413813048,-26354.137224452166,-26300.11305810369,-26273.737999646426,-26238.601057362685,-26198.300862109765,-26130.2174484989,-26065.240927367322,-26028.38290076052,-25967.630859330995,-25886.3599164915,-25890.27147177118,-25898.78748640865,-25904.442477755845,-25889.06447757059,-25837.230782178736,-25794.695412480287,-25748.539060180075,-25719.70530983273,-25682.981393692662,-25633.36052100188,-25664.4070940503,-25680.85797796941,-25684.478960571167,-25693.97845196467,-25799.657499749363,-25815.370776101445,-25751.087159047984,-25735.66445537382,-25787.118171109938,-25808.709956253762,-25806.139505641404,-25851.580602119044,-25819.14822091439,-25806.988871930705,-25851.558250374586,-25866.757436604195,-25880.12377978847,-25869.37259070547,-25846.372645660955,-25809.15699114287,-25788.05694437706,-25837.946038001304,-25867.427988937856,-25894.495951473233,-25879.721448388274,-25865.371628447967,-25818.075337180537,-25764.073522576517,-25788.97336589973,-25810.96748244375,-25793.4884182797,-25768.700333678764,-25727.059033758527,-25693.866693242395,-25649.61023922089,-25617.35667197188,-25619.122459783848,-25649.878460154352,-25695.498370587633,-25742.414682199324,-25802.987909673204,-25830.994645475705,-25872.50183492921,-25920.289864574657,-25988.082705507604,-26107.21750345439,-26272.843929868213,-26462.207908893575,-26649.78374836251,-26845.160346646353,-27102.764201493766,-27411.93353079957,-27751.68004652024,-28131.36912958254,-28494.316756047818,-28832.163373489784,-29207.270348938746,-29529.023710372894,-29851.045292740502,-30185.561500258627,-30514.780344340845,-30810.62803395129,-31065.4826242307,-31361.97851443035,-31580.131540314145,-31744.215696360556,-31922.60496885836,-32124.150648611863,-32291.43110411538,-32368.097587597083,-32388.728247729334,-32423.32874814615,-32465.417082955493,-32451.38018743756,-32412.93518697443,-32431.08480347214,-32437.052719241707,-32365.951820129376,-32316.800334072155,-32275.114330663007,-32250.125080361973,-32227.348652762015,-32206.33801297403,-32169.591745089503,-32082.889328347366,-32002.266586097074,-31915.854742032858,-31824.614921166292,-31775.06110370888,-31713.929082623614,-31633.708671773515,-31548.1461939986,-31500.42521958652,-31450.33496026218,-31379.97166871687,-31369.44399707842,-31324.449935489887,-31238.283960614677,-31139.377491399944,-31063.359208507445,-30947.30895129549,-30827.838877181875,-30741.494088351024,-30716.32602409435,-30604.813171006823,-30393.20920624843,-30258.852870327577,-30178.364238544018,-30132.58786589955,-30045.304303801575,-29921.83326743046,-29837.63424606732,-29746.1709077562,-29659.669656714163,-29546.36866407021,-29466.84115729823,-29416.996767162895,-29325.779298040787,-29254.141957061525,-29208.522046628244,-29133.889571891974,-29082.6146701115,-29028.07641364055,-29007.98219537523,-29014.330090800537,-28979.483721194712,-28969.000753045173,-28917.234112886683,-28863.09818781593,-28820.674576839756,-28843.51805967308,-28862.382931993357,-28838.354806703905,-28797.764038773068,-28707.507694662538,-28685.759447307522,-28712.335671464883,-28673.19776692364,-28630.103603613807,-28633.970455404575,-28571.094998251796,-28503.01158464093,-28520.803573227357,-28487.141846077666,-28413.850476008713,-28406.228531149452,-28381.641612248615,-28378.04298139131,-28313.759364337846,-28224.039462094246,-28158.14651944,-28132.151440638478,-28136.107699407068,-28091.113637818533,-28048.377102419985,-27963.932211867836,-27918.647577601383,-27925.889542804904,-27890.774952265616,-27927.789441083605,-27871.597155522963,-27819.629349664374,-27746.360331339878,-27655.14286221777,-27626.823201992895,-27646.000998735548,-27674.968859549626,-27747.947305196205,-27738.11253763587,-27706.037784342505,-27699.19815053918,-27743.454604560688,-27737.196116113202,-27694.057249314457,-27659.56850761992,-27657.5792023634,-27684.28953698749,-27727.383700297323,-27804.474866923676,-27840.349416774443,-27847.300809300043,-27828.681806168774,-27804.877198323873,-27777.965697999683,-27803.69255586774,-27906.53293210661,-27974.370476528464,-28002.39956407542,-28058.59184963606,-28075.89209984447,-28077.50142544525,-28114.448859029875,-28140.935676209414,-28138.342873852598,-28152.826804259636,-28215.232874778852,-28236.310569800207,-28294.11218096163,-28359.08870209321,-28378.75823721388,-28388.07891465174,-28428.356758160207,-28473.507281959926,-28517.495515047973,-28605.494332968516,-28658.087987671854,-28661.328990617872,-28657.976228949577,-28682.898424017243,-28780.910823453763,-28781.469617065148,-28745.10332883636,-28730.641750173778,-28695.661270101224,-28702.925587049198,-28733.860401375343,-28739.82831714491,-28780.08380890892,-28825.346091430914,-28812.69500406921,-28768.527957025526,-28773.154768127773,-28777.35689608537,-28782.654259521278,-28800.692117296712,-28796.110009683372,-28771.009000660062,-28795.46180909417,-28910.01449942762,-28985.988078831208,-29052.708036030297,-29173.228642133316,-29358.09992052316,-29566.015847446426,-29781.061980850936,-30046.913629402356,-30391.689287625468,-30694.89070116171,-30994.448780351733,-31280.305240190657,-31585.674772939063,-31897.705125535147,-32187.27197495365,-32453.61536188309,-32739.89650486666,-32983.64227815178,-33203.62814708092,-33431.99592018079,-33590.335677902185,-33764.83574686477,-33937.011234403995,-34099.28489914953,-34226.801601267056,-34361.80613777711,-34464.0877204046,-34491.178034684424,-34517.955424541884,-34488.36171488306,-34457.561011023645,-34428.59315020957,-34379.41931240789,-34331.76539322918,-34351.725501027766,-34319.22606458975,-34245.75588056516,-34210.59658653696,-34191.262327583114,-34158.204097533715,-34039.87396238732,-33962.738092272055,-33896.75574263999,-33817.675270757114,-33750.843554835745,-33653.3452455217,-33574.37653236109,-33496.07837153415,-33424.26221659925,-33331.055442220626,-33229.77968809363,-33175.82257697851,-33160.06459713753,-33165.496071040165,-33109.639061646354,-33025.35063330539,-32934.78136477248,-32830.44342165511,-32753.262848050937,-32667.454501087013,-32594.744276373898,-32493.088542591162,-32308.709002579333,-32163.400311875383,-32053.72030183319,-31915.07243097692,-31727.00485312997,-31604.316127814785,-31528.320196666744,-31434.353462976633,-31287.681315860907,-31125.608816815475,-30992.07949543947,-30910.473276433146,-30845.76497623503,-30738.90128599421,-30617.01722347942,-30506.42079191456,-30367.549403613735,-30262.22798374033,-30216.384555862496,-30145.708339894813,-30081.938812963825,-30039.112870587454,-29955.15971841332,-29793.62366123482,-29591.00509774746,-29453.430110625042,-29375.690743409486,-29301.102972162127,-29237.17698301995,-29186.952613228874,-29093.790542339153,-28968.35255245597,-28859.879536614364,-28726.283160004994,-28575.27477446494,-28449.702674115026,-28358.865184648657,-28281.528148833295,-28201.888883339034,-28051.305180943633,-27806.575930902476,-27646.246867924558,-27566.674657663665,-27515.086831460816,-27400.131809727172,-27331.131974593638,-27238.752214759854,-27077.842006426097,-26903.47604793025,-26728.73010977866,-26556.375808283785,-26433.32945505732,-26314.01584315489,-26197.51855105383,-26089.425514867966,-25977.197405957868,-25857.749683588707,-25663.42361729427,-25451.79730079142,-25271.8657579262,-25173.674544534035,-25113.34718624916,-24989.80909464468,-24827.49072641024,-24688.21700670922,-24560.588545869417,-24416.464497621597,-24271.312269128834,-24177.524349394364,-24113.754822463372,-24014.75894627082,-23913.080860743627,-23781.540844624145,-23678.16402651835,-23590.18756034226,-23483.390925334803,-23388.351307910838,-23345.8606417013,-23265.03673375091,-23203.63649173218,-23161.39169471165,-23115.771784278368,-23070.062466867264,-23023.280265722307,-22907.945264332924,-22812.369205042032,-22805.641329960985,-22749.091416489056,-22654.856461865482,-22578.815827228525,-22530.22313478269,-22496.96373903319,-22485.0055557496,-22471.125122442856,-22427.360406799366,-22389.29538599198,-22416.229238060623,-22369.201167726656,-22290.567730732888,-22268.17128278867,-22227.78168055793,-22143.694417917064,-22086.89863525613,-22088.284443412358,-22090.60902483571,-22079.254338652416,-22087.189207934047,-22072.37000136018,-22078.628489807666,-22035.959009642484,-21976.950404280473,-21988.21568348595,-22012.154401797583,-21992.082535276717,-22001.939654581507,-22023.97847461444,-22036.227230575947,-22128.070548542804,-22271.144064801225,-22416.050424104982,-22589.4329058448,-22850.210708404866,-23111.86022899869,-23342.932563177656,-23660.126168742918,-24029.53344935578,-24357.14296783721,-24753.03706562961,-25089.989613293365,-25401.5952827448,-25774.511787237145,-26110.346747678133,-26416.386832760196,-26744.510441364106,-27062.285192285206,-27307.282663259826,-27516.271473916946,-27686.74822887757,-27897.346365135476,-28050.58992512106,-28192.948185556914,-28306.94208227898,-28392.348097842707,-28449.76972934839,-28509.046555643865,-28537.388567613194,-28540.7860327704,-28624.359205288794,-28686.228833941084,-28651.896554457733,-28607.148362058208,-28576.235899476516,-28612.93746387213,-28641.34653107483,-28630.170658847175,-28622.61576922128,-28605.717850413068,-28566.31172493836,-28558.063931234352,-28539.35552112526,-28546.75394853997,-28611.261083037985,-28648.09675790033,-28677.981040237075,-28740.297703778473,-28828.028300765553,-28868.03792334055,-28873.894080387843,-28867.85910938491,-28899.442124300258,-28938.557677097047,-28925.63836880188,-28861.175937792774,-28795.21593990516,-28764.03525639001,-28669.71089478861,-28548.74325379649,-28479.83282564078,-28429.317883171785,-28335.954646581966,-28250.41452055151,-28129.201010370376,-28019.58805556155,-27909.483362374707,-27744.661598761275,-27582.879672393763,-27449.3279992733,-27355.65183826111,-27219.306197083737,-27073.50576800177,-26920.91040860539,-26782.620165660403,-26675.555309719482,-26553.44772976014,-26446.85226045278,-26368.39763741465,-26304.11402036119,-26275.973174091956,-26185.22509160341,-26055.33910457362,-25962.22173717281,-25853.16757597537,-25739.19603099776,-25618.16133477227,-25488.498865187034,-25371.73335215251,-25328.505078375947,-25273.318621315793,-25152.93212567951,-25052.505737841813,-24924.162021179443,-24779.792103742613,-24662.333686629976,-24608.331872025952,-24554.732388822125,-24405.378032371766,-24280.94587098907,-24171.221157457967,-24056.824929335708,-23967.932041636952,-23905.615378095554,-23876.848682981574,-23758.898527490917,-23631.515935840125,-23533.548239892512,-23419.19671525916,-23290.160094518673,-23125.09246171623,-22978.420314600506,-22881.883130298036,-22763.575346896094,-22608.655406076363,-22494.326233187465,-22386.680231890707,-22289.338384787847,-22173.533996764898,-22015.55186695479,-21925.51904028881,-21821.98575997183,-21654.23591783475,-21524.819317438523,-21425.957551712698,-21321.41844289523,-21221.39438645773,-21156.306106603875,-21074.16344573062,-20972.44065671452,-20901.384461091096,-20837.100844037635,-20778.87454973156,-20715.61911292304,-20634.303466594632,-20541.141395704915,-20458.70816215374,-20339.68512292923,-20266.34904937137,-20181.814751841397,-20088.11623908475,-20047.234898475996,-20012.567342825812,-19920.36639694767,-19828.54543072527,-19746.29101112974,-19742.535918061247,-19712.8528014246,-19679.861626608566,-19601.07172740361,-19531.53545040315,-19469.8446357065,-19356.431884340273,-19275.138589756323,-19211.0337866585,-19224.400129842776,-19272.90341531079,-19251.42338888924,-19222.120251908334,-19195.007585884046,-19143.531518403473,-19090.580235788853,-19031.72809263803,-18982.889531003184,-18919.991722105948,-18835.323314109246,-18867.576881358254,-18832.26112511887,-18779.533359948797,-18777.99108958138,-18700.7658124883,-18642.31600073767,-18614.979817268828,-18603.66983457444,-18583.15093316447,-18511.960627074317,-18402.906465876873,-18397.184419296314,-18379.92887257682,-18332.274953398104,-18301.161325116318,-18296.8697901809,-18348.144691961374,-18441.843204718018,-18555.61358399553,-18653.290707265223,-18747.99504852236,-18846.722703781452,-19028.77766236993,-19297.646796422818,-19598.389518068972,-19955.0116008534,-20280.7882762895,-20601.446402245332,-20943.2939819448,-21245.95895361411,-21577.949414008788,-21952.788168524286,-22326.93401896167,-22659.05858982308,-22972.720619764405,-23221.27201810742,-23432.563058443437,-23646.558659858547,-23836.548487728654,-24004.70066126593,-24148.623543813654,-24252.89443169766,-24400.415945102686,-24535.219315912644,-24670.447369867252,-24779.9485659538,-24874.407038021927,-24951.006466270264,-24947.65370460197,-24945.50793713426,-24949.106567991563,-24997.43103950394,-25055.56792683219,-25077.047953253743,-25077.450284653936,-25128.993407367874,-25183.688126050012,-25246.228307035963,-25252.978533861464,-25192.494713365402,-25183.576367327736,-25225.79881260381,-25246.787100647343,-25230.04564405032,-25215.785231087833,-25250.8104146493,-25319.34086314927,-25331.701377833055,-25306.734479276478,-25211.739565341424,-25129.708663190446,-25083.39584867905,-25067.43670313796,-25037.172441145474,-24960.103626263575,-24883.37008754851,-24849.64130516545,-24837.34784571503,-24778.85333047549,-24688.149951475854,-24637.769119473593,-24536.38160662432,-24378.019497158468,-24209.666157921096,-24081.456551725456,-23875.038191680695,-23679.773352119133,-23512.627007082345,-23372.369810625292,-23255.134910957207,-23100.729060259946,-22930.744043677336,-22810.290492807686,-22769.856187088037,-22735.63566632696,-22676.87293015396,-22576.69241150527,-22453.042561178514,-22353.063208229927,-22297.74264070304,-22191.840075473796,-22077.063867695793,-22017.854096633684,-21955.984467981394,-21857.837958078144,-21726.096776258564,-21585.057268745575,-21529.468480285228,-21505.999148607156,-21419.587304542936,-21327.431062153704,-21323.765376063035,-21302.35240487485,-21208.698595607115,-21093.430649451097,-21019.424023559575,-20918.416490366042,-20845.169823786,-20785.378907368053,-20728.180793306925,-20663.56190008663,-20592.304538763114,-20513.224066880237,-20390.289472376047,-20274.86506400884,-20164.290984188436,-20068.893738853185,-19965.829845169766,-19836.41324477354,-19731.024769666765,-19678.676984152436,-19633.101777208063,-19600.44587855886,-19527.690950356835,-19420.335521737998,-19317.91982864378,-19269.30478445349,-19216.21939137213,-19101.800811505414,-19057.58906097282,-19015.523077907932,-18999.3851184112,-18924.685588441564,-18824.527421537332,-18794.57608396722,-18714.780356261774,-18654.296535765712,-18601.792288040197,-18558.184034607893,-18544.05773211214,-18541.017894866218,-18552.260822327236,-18502.975225803286,-18446.47001582027,-18369.803532338563,-18334.91245924383,-18340.545098846567,-18313.34302584446,-18282.072935351483,-18276.574406215477,-18309.76674673161,-18322.52959281559,-18269.645365434335,-18218.817498542965,-18206.59109432591,-18248.053580290507,-18205.920541992255,-18116.625322893302,-18035.644952731724,-17973.75297233498,-17915.280808839896,-17879.272148522396,-17924.73559674449,-17898.226427820497,-17883.87660788019,-17848.359685940708,-17839.508395136403,-17855.646354633136,-17784.880731687634,-17661.72261973889,-17634.34173278114,-17599.964749808878,-17558.435208610917,-17559.888072000515,-17590.465258415374,-17554.47894984233,-17517.442109279884,-17512.90470515546,-17498.93486487089,-17489.256559521742,-17480.82995186209,-17419.630875543462,-17426.15758492441,-17435.38885538445,-17390.57360775156,-17363.10331381599,-17339.544575160096,-17328.011075021157,-17371.462866242277,-17367.19368305131,-17335.655371624875,-17391.847657185514,-17478.55007392765,-17555.931813231924,-17646.67989572047,-17770.173283836044,-17903.322625556306,-18053.30283085142,-18231.08860624893,-18424.967637654263,-18666.58999521613,-18932.88867865666,-19179.003736854047,-19425.968161340734,-19704.67206295396,-20025.956037754542,-20409.020234229592,-20792.799686527218,-21072.777637574392,-21327.721634831625,-21612.259341747686,-21913.359691305126,-22189.716659750542,-22435.33997956991,-22661.58433694653,-22866.818054535157,-23071.26946106785,-23230.458585078548,-23332.583705494846,-23469.64460249479,-23619.06601417852,-23719.805326438585,-23729.573038765557,-23733.819870212064,-23791.174446484383,-23845.802109933153,-23807.200647258836,-23819.896438109452,-23845.71270295533,-23875.261709125247,-23884.78355226321,-23863.750560730765,-23805.367804213503,-23762.51951009268,-23780.04327774564,-23812.47565895029,-23804.98782455776,-23747.208565140794,-23707.489515243713,-23712.6974717018,-23719.69356771631,-23744.906335461896,-23805.211342002316,-23784.08894349205,-23736.479727802245,-23704.98611986472,-23672.06200028205,-23670.92206131483,-23689.429305723825,-23679.281613741114,-23616.786136244078,-23519.444289141215,-23426.39397697377,-23344.497185289525,-23250.441044621595,-23134.033159498355,-22990.602015328648,-22860.738380043316,-22719.96709346379,-22566.65647824484,-22409.546066468487,-22291.528855744466,-22155.116159333727,-21981.800732827276,-21829.51829785327,-21676.7664762457,-21462.569709130494,-21321.329035917406,-21234.67132266418,-21142.649190741682,-21037.39482610164,-20927.446595125984,-20822.12517525258,-20713.965083833347,-20598.384213254954,-20467.984136102696,-20363.467379029677,-20264.426799348214,-20130.56220180538,-19981.788990710855,-19833.86514590563,-19716.652597982003,-19585.246692329252,-19466.84950194949,-19369.30648914653,-19281.19591250371,-19198.002719641056,-19117.089404712846,-18944.422178795598,-18839.92777346704,-18721.53058308728,-18555.14419736197,-18441.150300639903,-18365.802570081065,-18288.8678656659,-18217.94578050921,-18096.754622072534,-17954.731637803514,-17781.75148746389,-17634.475843247874,-17485.300300753155,-17324.47949939722,-17181.271872672067,-17076.777467343505,-16952.63587863873,-16824.04629278735,-16739.98138189094,-16608.95545589393,-16462.10449482256,-16327.658751923891,-16200.745546906657,-16059.437818460205,-15940.258317024509,-15789.875780329203,-15707.44254677803,-15605.540943806285,-15483.321605124665,-15383.610473109542,-15298.249161034724,-15214.184250138314,-15125.783100817574,-15065.947480910718,-15007.363558693358,-14912.90508662523,-14843.435864858135,-14791.177486321627,-14687.174819371085,-14645.153539795107,-14554.15958811755,-14455.856616003111,-14397.809135652678,-14346.020143749733,-14302.277779850696,-14281.669471462903,-14196.688139043825,-14123.441472463785,-14074.31233815102,-14037.521366777584,-13975.919959058758,-13887.27294054901,-13831.393579410742,-13786.53362828894,-13748.133331314724,-13710.269476207433,-13651.819664456805,-13623.589411209752,-13551.281517896834,-13488.540171210787,-13416.545202320243,-13321.21501221836,-13266.117962136026,-13221.682694158877,-13115.489556251712,-13028.988305209674,-13021.880450472887,-13017.879488215387,-13003.842592697454,-12932.741693585122,-12865.6864602192,-12830.884794102287,-12782.716784801101,-12697.199010515096,-12591.877590641689,-12535.014752747387,-12546.347087186228,-12566.44130545155,-12605.579209992793,-12584.590921949259,-12557.701773369525,-12530.209127689497,-12580.768773647402,-12600.818288423812,-12686.537228409914,-12804.554439133935,-12961.061353809995,-13190.569065877089,-13515.67518897953,-13845.989268540057,-14161.528845015628,-14519.11205281163,-14882.372603699281,-15248.762398810673,-15615.643932300083,-15988.247512370053,-16399.966645236807,-16716.35558800168,-16980.88848363024,-17212.877239331872,-17477.097210538057,-17735.863356097147,-17965.482826886517,-18202.053690201486,-18464.038486962138,-18657.761056156287,-18824.594476770697,-18979.693231546073,-19071.760066957482,-19143.531518403473,-19229.36221711185,-19320.40087227832,-19407.058585531544,-19432.539574210594,-19467.832978705523,-19490.631758049938,-19537.033979539156,-19631.000713229267,-19732.030598167254,-19757.556290335215,-19698.167705317464,-19663.589556645104,-19680.532178942227,-19677.112362040563,-19676.195940517897,-19660.88499556601,-19652.301925695174,-19647.988039015298,-19604.804468727645,-19528.964999790787,-19504.28867391213,-19489.313005127075,-19517.900886285413,-19609.386576340985,-19601.58581752608,-19579.39053528196,-19521.611275864994,-19506.769717546667,-19493.202208662296,-19434.37241725593,-19365.01495421111,-19280.413601447774,-19178.84727464286,-19089.77557298846,-18981.503722846952,-18880.02680301986,-18707.3148736137,-18549.466854270322,-18402.16885830985,-18266.7619903996,-18109.852744323343,-17941.007666707956,-17770.530911747326,-17587.447772913907,-17432.50548034972,-17250.56228048352,-17106.77350840253,-16979.70384117411,-16802.27569368788,-16651.088494192183,-16599.27715054478,-16478.01893687474,-16377.48079031477,-16311.341978471517,-16178.39380245135,-16047.099655520877,-15952.819997408391,-15828.298429047874,-15756.012887479412,-15693.740927426927,-15616.359188122653,-15544.610088421117,-15475.654956776496,-15374.46860962732,-15235.3960556264,-15102.000844717128,-14974.350032132868,-14841.535966579435,-14768.177541277117,-14675.6636709766,-14541.620259478124,-14428.252211600806,-14323.243716149775,-14225.253668457708,-14098.519277396117,-14004.709005917193,-13908.305932081454,-13834.522823634485,-13710.180069229613,-13579.042384510325,-13452.106827748637,-13344.617288663065,-13235.898403632451,-13123.290315066615,-13011.419834067803,-12887.099431407385,-12774.692508541646,-12710.118318810264,-12619.236125854984,-12524.688246809035,-12434.141330020588,-12295.739328353326,-12117.528869811162,-12021.863403542447,-11971.70608898474,-11893.832611302449,-11837.81913969745,-11726.194527887646,-11588.641892509688,-11532.42725520459,-11487.768469782886,-11405.871678098641,-11276.768002124787,-11238.7029813174,-11206.31530360166,-11089.90741847842,-10966.88341699641,-10859.259767444108,-10779.061708338466,-10692.135774151777,-10589.0495287239,-10505.208135272043,-10418.0586836408,-10314.234830645899,-10281.109545363135,-10200.486803112843,-10142.573433229141,-10130.570546456642,-10090.940903537381,-10025.785568450161,-9946.034544233626,-9837.002734780639,-9772.74146947163,-9731.88248060733,-9697.773718568531,-9613.015903594007,-9591.580580661366,-9539.299850380403,-9502.710044707066,-9436.750046819454,-9417.035808209874,-9420.500328600447,-9399.91437195711,-9328.209975744483,-9268.35200409317,-9195.798241591245,-9147.205549145407,-9160.52718884077,-9182.789526318256,-9105.854821903089,-9041.705315316358,-9007.484794555283,-8945.481055436261,-8911.349941653007,-8911.841680031024,-8955.025250318677,-8965.128238812476,-8958.355660242518,-8932.360581440995,-8922.458758647295,-8906.074929961555,-8925.364485426484,-8896.038996701122,-8822.211184765243,-8798.183059475787,-8808.353103202951,-8785.420213391806,-8740.895538436835,-8692.168735524267,-8699.544811194517,-8705.222154286164,-8709.826613643958,-8703.63518042984,-8689.128898278344,-8743.086009393455,-8831.733027903203,-8917.831947545046,-9047.650879341469,-9285.495792090393,-9587.691377126142,-9874.91129337684,-10104.933095566405,-10457.64362307115,-10858.67862208827,-11275.829228857665,-11689.828239658862,-12063.638813929418,-12484.18688585602,-12890.273379120039,-13286.033366445705,-13720.28305772341,-14092.752527326647,-14399.485516486826,-14710.353578371238,-14997.841715555396,-15278.02083230267,-15561.910338629526,-15777.69407960106,-15962.207730079619,-16136.596040319926,-16283.402297902383,-16430.141500251473,-16524.331751386137,-16628.692046247965,-16713.092233311207,-16704.88914309611,-16723.73166367193,-16766.69171651503,-16836.00447607094,-16945.84094832432,-16961.084838042836,-16927.803090548885,-16970.159646291693,-17054.51512986602,-17058.784313056985,-17088.556836671454,-17130.376950547332,-17100.671482166228,-17120.743348687094,-17162.2505381406,-17178.902587759803,-17198.147439735825,-17223.82959411497,-17239.69933267824,-17225.461271460208,-17227.472928461186,-17229.305771506522,-17214.4642131882,-17203.73537584965,-17207.088137517945,-17215.40298645532,-17187.865637286384,-17079.19145574468,-16978.45214348461,-16926.953724259583,-16899.796354746384,-16828.203717256038,-16714.187468789514,-16544.068341740174,-16395.876276001487,-16263.486893592704,-16082.057783848977,-15876.444086604606,-15703.419232776074,-15533.925954571481,-15408.644426899486,-15288.660262663398,-15124.620810105898,-14951.305383599447,-14805.147326606195,-14623.494699417914,-14437.23761287184,-14238.552956408616,-14070.289024149064,-13955.825740793436,-13850.638431386762,-13751.173168560645,-13662.637908773175,-13505.393386530088,-13321.550288385188,-13236.278383288192,-13139.875309452453,-13088.622759416434,-13030.597630810456,-12954.959327573697,-12895.280169878028,-12776.950034731632,-12639.531509820405,-12499.631941274636,-12363.68863149746,-12278.66259558947,-12160.444219165352,-12031.586412380508,-11913.50214642312,-11801.944589846682,-11633.725361076042,-11547.492330967467,-11441.5003587604,-11283.920560350485,-11146.747904628266,-11042.789941166633,-10889.524029436592,-10775.150153058787,-10681.764564724514,-10530.84558616228,-10374.942168586513,-10262.110562576123,-10151.760000200273,-10029.36184756301,-9834.454635912733,-9643.302517330947,-9494.97634112553,-9351.99223184493,-9240.166454335029,-9106.435967258927,-9032.250527411763,-8942.821197846079,-8749.724477496682,-8573.480972466585,-8423.120787515734,-8289.658521373096,-8184.426508477511,-8011.133433715515,-7883.504972875711,-7864.751859277709,-7808.40311150588,-7702.500546276635,-7644.900100815309,-7595.50274556908,-7506.6992648481455,-7385.50810641147,-7334.412018586639,-7280.544314449348,-7155.396897244084,-6998.130023256544,-6888.31590274762,-6812.878765210959,-6805.457986051797,-6756.753534883683,-6645.7100684297175,-6517.902793634271,-6453.194493436157,-6387.256847293002,-6425.7689029894955,-6393.113004340292,-6319.978096482528,-6236.293165241857,-6165.102859151704,-6127.082541833227,-6078.579256365211,-6065.235264925393,-6013.043941622251,-5914.204527640883,-5833.939413301875,-5787.671302279389,-5793.728625026778,-5809.173680445395,-5776.249560862728,-5716.928031078342,-5638.987498162687,-5593.568753429503,-5616.0769600959975,-5595.893334852855,-5531.3191451214725,-5503.781795952535,-5489.744900434602,-5442.403905678261,-5375.751003712536,-5330.242852001531,-5329.460540945594,-5306.840575556824,-5243.205159092565,-5195.998274802956,-5168.192704700555,-5126.149073380122,-5102.389169024131,-5050.8683980546475,-5032.85289202367,-5004.980266687902,-4928.134969250556,-4860.811514951171,-4865.77360222025,-4871.093317400613,-4907.5266608627635,-4925.922146549481,-4863.829000452638,-4832.424799492932,-4809.447206192876,-4788.011883260237,-4785.620246603518,-4771.8739237635045,-4782.155726212946,-4828.4014854909765,-4854.217750336856,-4848.741572945306,-4876.748308747806,-4886.851297241605,-4841.521959486242,-4826.568642445641,-4829.563776202653,-4851.446134024398,-4859.693927728406,-4852.384907291521,-4869.863971455571,-4886.717186774872,-4916.646172600529,-4927.106789005612,-4877.776488992749,-4854.977709648337,-4885.3984338520095,-4921.608259869607,-4876.234218625334,-4848.898035156493,-4884.01262569578,-4928.02321052828,-4960.03090858828,-4987.098871123657,-5038.351421159676,-5086.452375227496,-5126.484349546951,-5231.649307209171,-5379.6402072477595,-5571.440526418749,-5808.2572589227275,-6103.5685066662445,-6458.1118772163245,-6850.1614749624105,-7250.257700712407,-7690.654121715323,-8139.208929444424,-8521.468463119087,-8883.790240739614,-9299.420928886047,-9706.043864016994,-10136.717276181851,-10521.74842616897,-10881.745622366147,-11266.530903164257,-11582.785735462396,-11882.455573374698,-12164.623995378495,-12396.523344102305,-12589.754174918435,-12775.787744019955,-12888.351129096882,-12969.867941125387,-13084.554741925567,-13182.723603573277,-13305.926419010928,-13403.245914369336,-13452.196234726458,-13460.488731919377,-13444.194310211458,-13449.75989458083,-13479.487714706387,-13521.129014626626,-13510.802508688274,-13460.153455752547,-13479.465362961933,-13500.05131960527,-13508.76849994284,-13503.918171396039,-13485.4332787315,-13484.941540353482,-13513.730587211918,-13558.523483100354,-13555.461294109977,-13559.886939512127,-13569.788762305829,-13598.130774275158,-13696.590208600785,-13774.307224071888,-13839.350800436832,-13842.904727805226,-13782.510314286985,-13745.607584191273,-13719.187822245101,-13694.399737644166,-13592.878114328161,-13477.18548502749,-13397.45681255541,-13357.424838235956,-13311.000265002283,-13165.132780686949,-13012.872697457398,-12873.755439967566,-12687.677167377135,-12565.681346140069,-12422.183146736998,-12221.173908850422,-12053.044087057602,-11898.660588104796,-11755.430609635188,-11631.19961395259,-11516.356350941223,-11364.655061323056,-11213.445510082902,-11091.740261523755,-10973.812457777556,-10880.806849099023,-10783.777926418536,-10664.73253544957,-10552.929109684124,-10484.085736761777,-10377.713784898971,-10301.807260728749,-10236.227242496878,-10061.168379922912,-9894.491421519688,-9796.926056972272,-9679.489991604089,-9582.349310201325,-9493.299960291382,-9374.14281060014,-9288.960312480964,-9168.551465100225,-9022.415759851428,-8877.487048803217,-8780.9722162452,-8682.66924413076,-8533.247832447032,-8389.392005132677,-8263.574035593752,-8185.678206167007,-8108.072949418181,-7962.764258714231,-7852.592510294022,-7771.746250599176,-7649.7504293621105,-7525.854709846343,-7432.647935467713,-7368.74429806999,-7292.502497732938,-7170.640786962604,-7013.508023441795,-6838.382105634464,-6648.638146953363,-6488.845525842372,-6380.797193145418,-6276.012215138939,-6181.263170392892,-6042.771761747809,-5903.296876346693,-5836.6663261254225,-5710.155452508385,-5581.074128278987,-5489.834307412423,-5439.676992854714,-5423.963716502633,-5300.112700475776,-5199.663960893627,-5071.454354697986,-4939.668469389495,-4858.799857950194,-4776.165458698923,-4652.001518249693,-4522.137882964359,-4452.802771663996,-4367.799087500463,-4277.699205601121,-4218.645896750199,-4159.972567555019,-4133.709267820032,-4082.7025869730223,-3928.609660698135,-3824.338772814128,-3789.1571270414743,-3741.3914491404835,-3671.6763581843807,-3612.690104566825,-3549.0993915914764,-3535.5989379404714,-3495.1422804763656,-3417.872299894369,-3347.1513804377773,-3268.9202748442026,-3205.553079313407,-3162.682433448128,-3142.3423459937985,-3124.3268399628214,-3043.6817459680733,-2942.0036604408815,-2893.3886162505887,-2847.768705817307,-2794.5044987803103,-2764.3966989990117,-2739.4298004424336,-2691.395901607979,-2651.028651121694,-2615.914060582407,-2590.0083887587057,-2571.5011443497115,-2556.5031238202005,-2486.4751084417235,-2449.6841370682882,-2436.474256095202,-2433.0320874490844,-2443.917386998819,-2415.016581418107,-2439.402334618847,-2450.7346690576874,-2409.138072626361,-2372.3918047418365,-2316.1324639478285,-2306.0741789429403,-2344.0721445169625,-2294.6524375262784,-2275.988730906097,-2263.1364778442953,-2243.7128119126337,-2262.868256910832,-2285.0635391549517,-2242.706983412145,-2142.5935199968244,-2122.23108079804,-2174.8470872458324,-2182.536087338458,-2146.9744619100647,-2189.0627967194077,-2195.9694857560976,-2121.6946389311124,-2058.6627195671463,-2065.3905946481937,-2044.2011409045626,-1973.8825528481666,-1952.357822937706,-1949.5415031363373,-1963.645453887636,-1972.9884830699543,-1973.904904592622,-2020.1730156151077,-2108.9541445915875,-2154.506999791503,-2203.189099215162,-2287.723396745133,-2392.0166363735957,-2542.4438765578125,-2722.330715934124,-2979.4651841479763,-3314.361371321842,-3640.0039362912103,-3981.0468531902857,-4397.929239026218,-4778.490040122276,-5161.263663919409,-5556.286043678051,-5956.091696750128,-6317.429997614622,-6635.74119040265,-6964.71416529586,-7304.237163571974,-7618.79326329151,-7901.2746097176805,-8100.406301070011,-8267.3514804067,-8516.931058994658,-8713.91698287928,-8846.529882732617,-8970.11267782601,-9140.500025808815,-9297.006940484875,-9365.403278518115,-9379.440174036048,-9375.908598412108,-9365.559740729303,-9360.821170904777,-9369.270130308883,-9353.579205701257,-9296.179925940029,-9263.367565079638,-9215.8254046232,-9170.138438956552,-9129.391208814528,-9100.892734634012,-9107.732368437335,-9163.142342942041,-9147.540825312237,-9114.61670572957,-9118.28239182024,-9068.12507726253,-8997.582971761582,-9002.96974217531,-8980.39448027545,-8934.685162864347,-8950.018459560688,-8908.555973596094,-8858.868045671947,-8801.625228121904,-8728.266802819588,-8675.650796371794,-8607.857955438847,-8527.794006799937,-8488.00790166949,-8400.098490726768,-8292.161916752091,-8185.09706081117,-8072.488972245333,-7914.886822090963,-7736.7434187821655,-7555.44841950517,-7462.7333835045565,-7356.383783386205,-7206.202412390997,-7104.3231611637075,-6988.027034762745,-6837.912719000902,-6769.829305390037,-6748.595148157496,-6669.112344874424,-6553.8443987184055,-6447.94183348916,-6283.790622209385,-6199.859821779707,-6160.051364904805,-6053.590006064178,-5943.395905899514,-5906.716693248355,-5863.466067727336,-5792.05224419263,-5770.527514282169,-5738.184540055339,-5652.398544835872,-5609.930230370788,-5528.167549153274,-5415.246536165063,-5317.569412895371,-5187.9292950545905,-5072.5272384318405,-5038.731400815416,-4943.736486880361,-4763.000281214748,-4643.1502274453915,-4523.099007975938,-4378.773794028019,-4254.498094856513,-4167.281587991904,-4067.61515946569,-3931.87301538861,-3834.978203174854,-3755.338937680595,-3634.52775889966,-3503.770053836114,-3407.545793956017,-3319.882252202303,-3209.6434485487284,-3083.46785109852,-2947.2116168989683,-2816.9680019578936,-2747.6552424019865,-2670.452317053356,-2628.1181130550044,-2528.921071162352,-2427.9358897132743,-2326.1907489527166,-2228.2677564940163,-2116.352572006294,-2016.194405102063,-1911.6105927956812,-1787.558411068727,-1682.9075435289794,-1561.2022949698323,-1448.1471715148894,-1345.6197196983958,-1231.6034712318744,-1175.6123513713303,-1088.619361951275,-970.3339302937902,-864.7219377424643,-805.6015736581771,-749.2304741418927,-689.0148745792956,-612.7730742422431,-557.4748584598135,-519.9909830082635,-436.0154790896749,-371.10601319146315,-319.7864079220781,-254.116982712386,-147.72267910512437,-111.0881699428761,-129.50600737404912,-97.92299245870024,-15.8250350743574,45.642262177737024,104.65086753974767,106.12608267379794,111.13287343178672,140.54776913497082,165.64877815828063,229.35124985590576,227.96544169967675,265.65048285132445,378.37033013943795,429.3770109864487,417.93291782533146,412.9037753228874,447.1689995728731,516.973497506797,587.5156030077461,667.1772202464605,743.3296136056916,761.836858014686,757.0535847012502,763.96027373794,743.1731513945045,762.1944859259709,777.9748175114177,787.1390327380935,806.9650300699509,816.509224952367,834.122399583149,880.0105309498944,868.6111412776878,912.6440778546427,954.0618603303267,942.8636363582178,938.5497496783436,956.7217179205082,964.1201453352148,1016.244413404991,1061.4843441825324,1071.140297787225,1043.2900241959126,1027.1297129547254,1012.824596503329,946.9316538490837,790.9835327844063,649.6981560824104,503.07071245559604,298.95458208973196,36.187474273142136,-236.45910459269342,-497.1922036638503,-828.6015187026882,-1147.4715051020987,-1495.3540558044979,-1812.9723445144111,-2100.3040194873834,-2491.794823622087,-2826.51219684031,-3126.6737731306284,-3451.802247977525,-3796.8684788785554,-4068.7327466884553,-4296.049987798928,-4530.922118535294,-4793.823336818617,-5101.204526567999,-5380.310759581418,-5557.29187217854,-5706.310952462072,-5787.738357512755,-5876.5194864892355,-5948.045068746218,-5925.380399868536,-5882.777974936721,-5898.200678610883,-5942.971222754863,-5960.4055834300025,-5975.001272559318,-6013.267459066804,-6026.834967951175,-5983.964322085896,-5965.792353843732,-5979.605731917111,-5961.8137433306865,-5967.669900377978,-5934.902243006497,-5885.460184271358,-5858.772201391721,-5860.582692692601,-5874.753698677266,-5848.222178008817,-5833.827654579599,-5862.4378874823915,-5887.985931394807,-5887.874172672531,-5817.577936360591,-5762.860865933999,-5771.242770104739,-5752.869636162476,-5721.957173580787,-5694.8445075565,-5608.320904770006,-5487.1744498222415,-5424.477806625105,-5335.048477059421,-5164.728184309982,-5008.154214400556,-4852.921349158448,-4725.449350529832,-4533.649031358842,-4363.3287386094025,-4231.699315512099,-4047.99032783393,-3851.585549305147,-3649.1010962845203,-3530.7933128825803,-3434.211425091198,-3307.745254963071,-3160.357852024776,-3081.880877242193,-3002.085149536747,-2875.5295724307985,-2742.536692921721,-2625.592365931555,-2482.0271112951173,-2386.0710723484844,-2253.078192839407,-2151.0648311453856,-2063.3342341583057,-1949.2062269695077,-1821.8683388076233,-1714.1329305330432,-1630.2021301033653,-1558.408326912919,-1484.5358114881292,-1377.0462724025574,-1270.7860792620277,-1181.7367293520845,-1136.005060196526,-1067.5863704188312,-963.2707790459132,-857.569379516766,-740.9156252045185,-601.6642572479556,-470.7053864843114,-328.436533026282,-192.24735406009606,-115.11148394483138,12.293459450418885,176.06469107445372,240.03538370554256,325.44139926927085,464.04456663662995,531.8597593140315,644.1325717130389,808.060265548261,968.2999215483572,1106.2772400709678,1194.3431132248777,1208.5141192095423,1249.7083842406732,1393.2065836437446,1566.3878996834637,1666.1884386764098,1733.9589278649007,1832.4630656794388,1968.4063754566164,2078.7345860880123,2191.0968054648406,2271.697195970678,2294.6524375262784,2355.9632725671854,2409.205127859727,2525.8365304275194,2645.127790585493,2751.633852915031,2877.47417419841,3015.697361910029,3083.400795865154,3117.4425026705867,3182.396672057709,3281.191382550166,3403.902459609802,3524.8924523463793,3585.1751071423423,3646.6871078833474,3719.732608763291,3749.661594588947,3803.2163743038627,3889.3152939457054,3916.517366947814,3910.102416289141,3965.8476669606766,4045.151656288106,4142.359392924237,4247.859626753286,4282.549534147923,4323.85555790133,4379.779622528508,4433.043829565505,4453.674489697753,4488.163231392292,4533.447865658744,4566.4837439636885,4582.420537760322,4597.038578634093,4670.911094058883,4714.966382380293,4767.917664994916,4809.71542712634,4842.974822875836,4871.294483100711,4941.7471816238385,4940.428428700975,4962.511952222819,5027.264955909844,5045.906310785569,5061.708994115472,5042.687659584005,5075.47766869994,5117.9012796761135,5151.719469036993,5223.89325188318,5254.917473187145,5255.655080754171,5258.963138933556,5294.077729472844,5319.581069896349,5326.286593232941,5358.763677926502,5374.231085089575,5358.786029670958,5309.43337791364,5316.854157072801,5299.442148142118,5274.51995307445,5285.248790412998,5286.500488102494,5292.066072471866,5278.789136265414,5296.089386473821,5335.316697992886,5399.265038879519,5481.094775330398,5527.608755541892,5557.33657566745,5538.717572536179,5577.408442188316,5585.075090536487,5516.678752503247,5436.614803864337,5355.433268002662,5195.93121956959,4946.821027615193,4713.155891079413,4510.336161891957,4290.327941218369,3986.7241962819335,3601.469528850261,3269.389661477764,2958.2533786598897,2651.386279032979,2271.1831058482057,1884.2297058379302,1527.093532931034,1165.8222872999058,760.8086777697418,363.19349565428445,2.3469331678072414,-286.1023290279304,-545.6731373874113,-768.8553057736524,-960.3427005222679,-1207.1283110533132,-1376.7333479801832,-1519.1586636493998,-1671.172877689943,-1811.7877020582798,-1929.6931540600247,-2001.2634398059179,-2055.3323096433055,-2084.188411735107,-2071.31380692885,-2070.732661573012,-2158.28444460445,-2210.766340585511,-2250.3289282714045,-2298.385178850315,-2302.0285131965297,-2285.331760088415,-2298.318123616949,-2288.952742690175,-2246.238559036083,-2252.3182335279266,-2236.761419387033,-2202.0715119923966,-2190.8509362758323,-2196.3047619229274,-2194.6954363221453,-2212.018038275008,-2204.239631204561,-2224.467959936614,-2288.7962804789877,-2329.2305861986383,-2339.534740392535,-2337.36662118037,-2290.0256264240297,-2196.14829971174,-2155.356366080805,-2160.4302120721595,-2147.801476454911,-2073.280760440917,-1958.392793940639,-1839.392106460584,-1706.3545234625965,-1569.7853648406704,-1446.00140404718,-1307.286477957544,-1174.8523920598498,-1017.8760907502283,-888.1912694205367,-765.8378202721859,-542.9462245638639,-346.273225101617,-207.49124377861546,-57.42163150568384,96.35837034682875,235.05094469200907,350.20713212575106,460.4235840348702,576.7197104358328,708.125616088583,817.2021290304815,887.6548275536094,972.6585117171421,1062.7360418720295,1145.459848101121,1249.976605174137,1422.7779415581158,1562.766917081704,1694.172822734454,1837.1792837595087,1977.8164598723008,2052.493638097482,2108.3953509802045,2219.572927900902,2353.817505099476,2510.302068031081,2699.420177867434,2907.2019943239684,3073.8789527271933,3153.6076251992736,3205.642486291228,3319.4352173131965,3482.446489625751,3588.4608135772723,3693.11168111702,3790.65469391998,3942.7583149383445,4095.353674334726,4209.25816407897,4332.2821655609805,4436.038963322516,4546.188359998269,4685.864411099483,4812.799967861172,4963.920112123503,5041.346554916687,5176.798126315847,5302.929020277145,5374.745175212047,5494.304656303484,5610.2655065376175,5692.005836010675,5766.213627602295,5878.553495234668,6012.66396196651,6139.823036172752,6249.301880514847,6409.966219659594,6523.155453581268,6635.428265980276,6787.956570143291,6939.166121383443,7032.0599713397,7059.820837953191,7164.874036893134,7300.213849570018,7352.785152528901,7391.453670436582,7433.385543034738,7557.728297439611,7636.831121066943,7710.14484288035,7830.084303627527,7952.996546387261,8022.890451299007,8082.279036316757,8139.007763744326,8221.508052528865,8355.372650071698,8437.135331289212,8444.62316568174,8454.167360564155,8491.830049971348,8508.884430990747,8508.616210057284,8554.660803635217,8590.64711220826,8625.873461469826,8695.29797974801,8780.949864500746,8829.676667413314,8917.340209167029,9011.530460301694,9032.585803578593,9026.707294786847,9079.613873912558,9162.38238363056,9237.193672322474,9272.397669839582,9292.26837066035,9265.088649402696,9229.661134441034,9226.755407661845,9318.621077373156,9309.03217900183,9294.16826893905,9350.38290624415,9377.406165290615,9374.455735022513,9353.176874301062,9388.00089216243,9476.87142811673,9526.93933569662,9576.18022873166,9647.616404010821,9691.001139998572,9727.725056138643,9741.046695834006,9784.744356244131,9797.954237217216,9870.686813674785,9908.595372270987,9936.423294117843,9935.663334806364,9931.841186504505,9994.761347146195,10024.2656498272,10032.714609231307,10025.003257394226,10014.654399711419,10008.686483941852,10002.495050727732,10013.55916423311,10039.17426337889,10058.016783954714,10011.435748509855,10020.331742803066,10072.99245273977,10056.027478698192,10059.60375781104,10082.08961273308,10093.80192682766,10107.861174090049,10126.52488071023,10151.357668800078,10189.288579140733,10199.68214031245,10195.032977465748,10241.390495466054,10178.313872613176,10101.245057731277,10116.421892216433,10144.942718141403,10138.371305271543,10135.912613381459,10156.543273513707,10172.614177777074,10115.550174182676,10011.815728165595,9993.867277367983,10014.185013077857,9983.250198751712,9934.25517490568,9907.47778504822,9834.61109812392,9692.319892921436,9447.903567302654,9143.42810433246,8848.072153100033,8570.84346662086,8280.449602657509,7945.888691650473,7567.205437088662,7187.650464493092,6780.1334595839335,6388.016806604482,6000.638723449555,5586.952637070732,5212.806786633348,4898.071872958169,4638.970451232249,4390.687273822698,4051.7454209024218,3775.075528034631,3604.241145162719,3414.966573115179,3232.7551523155157,3056.55635077433,2924.792817210295,2855.636519865575,2786.189649842936,2690.971218463328,2628.4310374773786,2619.490339695256,2609.8567378350185,2612.8295198475744,2647.8994068979514,2665.9596164178392,2680.644712524976,2716.2063379533697,2762.5862076981316,2795.0856441361484,2819.471397336888,2850.4285634074886,2837.285737667768,2835.050563222237,2814.7551792568183,2818.6220310475865,2833.3294788991784,2780.1323270955477,2736.4346666854226,2781.339321296134,2804.965115185394,2831.5636910872095,2838.604490590631,2848.8639412956168,2851.4567436524326,2859.6598338675303,2892.405139494555,2907.604325724164,2961.8073060282836,3069.3191968583105,3177.4345847886307,3236.7114110841053,3322.4303510702075,3422.1414830853323,3559.3811940409178,3713.272954615707,3871.6574158260128,3986.1206991816402,4089.318703331793,4188.515745224446,4358.791334484975,4539.4828366616775,4695.229792026257,4849.613290979063,5005.270839365821,5089.134584562134,5193.606638146239,5276.531610075428,5404.160070915231,5567.2383984611515,5673.0739084570305,5772.986206172252,5858.30281475816,5944.580548355645,6092.280875716314,6203.905487526118,6302.074349173827,6400.109100354803,6489.493726431576,6569.512971581576,6656.148333090346,6750.919729580847,6813.884593711447,6921.03885663019,7031.4788259838615,7183.828316191235,7348.583024571303,7439.398162293215,7515.014113785519,7623.643591838311,7707.552040523535,7802.993989347696,7901.140499250949,7980.2209711338255,8085.318873562679,8228.213575865457,8333.199719572034,8392.096566211769,8479.424831798653,8589.350711029854,8657.255310685076,8784.257922680132,8945.704572880813,9076.216408755352,9181.023738506286,9280.399594354581,9376.065060623296,9510.533155266423,9668.135305420794,9782.106850398404,9889.171706339324,10011.972190376782,10106.609476400552,10184.102974427102,10244.452684456432,10331.04334247629,10441.192739152044,10570.944615715101,10676.690718733158,10839.76904627908,10978.12634445743,11064.627595499469,11153.252262264761,11231.215146924871,11312.150813597538,11395.120489015639,11418.07573057124,11476.950225466517,11626.908079017172,11733.99528670255,11851.744276493106,11949.399048018342,12057.357973737477,12188.897989856958,12295.202886486399,12348.958831901411,12422.585478137193,12472.116943850155,12511.456014091495,12578.980634090976,12647.26521340194,12681.351623696282,12700.7976413724,12785.935436002665,12857.371611281826,12930.685333095233,13017.611267281924,13085.649977403877,13149.441856079324,13238.021819355705,13287.463878090844,13265.782685969198,13289.095555436083,13398.954379433917,13532.595459532198,13559.81988427876,13551.505035341388,13576.024899008858,13631.010190368914,13662.973184940003,13691.359900398244,13717.265572221944,13732.28594449591,13745.696991169096,13822.944620006636,13904.394376801774,13899.342882554876,13895.923065653215,13931.462339337151,14008.575857707961,14066.109247935921,14156.365592046452,14184.640548782416,14198.208057666787,14260.01063108571,14202.924275746856,14164.546330517094,14202.499592602206,14223.9572672793,14266.649099188937,14236.854223830012,14260.658831674915,14285.379861042484,14309.78796598768,14333.234945921296,14328.943410985878,14332.005599976255,14345.170777460431,14370.137676017008,14410.929609647943,14404.224086311351,14431.604973269103,14470.362898154604,14464.059706218208,14481.941101782455,14480.711755837412,14445.351296109116,14437.885813461044,14490.881799564577,14509.366692229116,14517.122747555108,14514.574648687203,14534.35594253015,14539.809768177245,14567.16830339054,14596.22557118244,14611.692978345513,14599.868905528654,14607.401443410094,14605.523896875848,14602.03702474082,14555.478341040414,14540.525023999815,14576.868960484144,14531.897250640066,14445.843034487134,14341.572146603126,14242.598622155027,14140.004115105166,13997.24352326912,13806.203163409611,13604.903352845116,13315.917648782452,13037.81724426952,12736.09104586733,12370.885893212067,12012.207449937756,11713.208164359114,11407.391596721602,11073.881217703965,10746.562271900448,10447.764152021904,10165.528674784742,9806.023216965583,9458.654756385655,9199.553334659737,8968.481000480771,8729.831424931459,8534.655992347716,8359.261853606922,8261.227102425946,8181.699595653963,8129.888252006562,8106.50832730631,8058.273262771758,8010.127605215026,8015.402616906478,8031.719390358853,8050.114876045571,8066.610463453587,8082.569608994676,8082.256684572302,8051.679498157442,8089.498649775822,8155.212778474424,8218.714084471952,8304.522431435875,8396.969246503026,8491.941808693626,8577.75015565755,8593.150507587256,8621.201946878666,8669.548770135496,8651.980298993623,8669.10173524639,8715.280439291053,8748.316317595998,8775.272521409097,8830.704847658259,8913.875688776456,8961.842532377546,9032.40698962295,9080.977330324333,9102.323246279151,9171.05486047922,9272.6882425175,9379.99896764743,9487.466154988546,9591.08884228335,9720.68425663522,9822.652914840332,9921.067645677049,10061.03426945618,10171.988328932326,10315.017141701835,10427.669933756582,10480.308291948832,10545.396571802685,10652.372020765784,10770.478638467626,10911.384035513884,10997.41589992236,11061.498351275724,11157.744962900277,11210.830355981632,11201.062643654663,11241.452245885403,11330.926278939996,11462.332184592746,11551.917976369617,11610.72541603153,11624.762311549463,11722.238269119058,11824.966886635648,11904.44968991872,11991.912065972338,12067.684479675829,12208.947504633368,12271.644147830504,12293.302988207697,12394.60109407915,12521.402540374105,12676.814219571856,12779.833409766366,12913.07215846445,13038.756017536643,13133.88504193843,13163.523455086168,13244.481473503289,13384.69396647143,13458.074743518204,13558.188206933524,13674.461981590031,13767.53464550193,13818.988361238047,13929.89771722528,14060.588367055461,14171.073039898043,14291.124259367498,14445.999496698321,14567.101248157174,14624.947562807509,14695.400261330637,14763.081343541306,14818.513669790467,14917.57660121639,15051.284736548036,15169.369002505424,15248.561233110577,15329.854527694528,15453.750247210295,15572.862693412626,15689.650558191606,15849.621993258239,15995.98121595159,16106.644702749814,16156.533796374059,16221.666779716825,16274.752172798178,16307.452774936293,16341.315667786082,16462.707991922856,16631.553069538244,16731.711236442476,16837.837319116275,16929.144195216202,16930.708817328075,17001.921475162682,17066.18274047169,17113.94841837268,17232.032684330068,17359.57173819205,17394.26164558669,17491.13410605599,17524.281743083207,17566.437133125917,17653.05014289023,17706.247294693865,17752.0907225717,17769.055696613275,17784.545455520805,17911.726881471503,18028.827670672854,18092.8207150484,18127.532974187492,18202.992463468607,18239.783434842044,18296.221589591692,18356.526596132113,18364.953203791763,18363.992078780186,18373.648032384877,18382.812247611553,18412.428309014835,18459.858710749,18465.647812562922,18491.978167531273,18522.622409179497,18595.15381993697,18650.54144269722,18650.16146304148,18623.317017950656,18607.559038109666,18647.74747464031,18721.821155765196,18703.828001478672,18680.5598355007,18730.18070819148,18731.857089025627,18741.155414719036,18780.405077982556,18842.520575823855,18846.789759014817,18796.90066539057,18785.09894431817,18796.006595612358,18792.743240921885,18841.91707872356,18803.91911314954,18676.5588732432,18505.03158629317,18302.793002461553,18048.787778471444,17766.485246000917,17454.097265493547,17116.25064805158,16869.71090670954,16593.95743536442,16282.441172890804,15926.802566862414,15602.769327493826,15314.990617631749,15008.145869749293,14686.973653670986,14351.116341485542,14088.93037902479,13851.800722098438,13648.17633011059,13544.263070137868,13406.866896971094,13265.335651080091,13129.012361647174,12990.923284402286,12903.863239748865,12869.665070732246,12839.758436651044,12825.185099266184,12803.772128078,12801.536953632469,12868.994518398586,12930.171242972761,12959.653193909311,12971.298452770527,13011.933924190274,13120.585753987521,13183.885894284951,13218.799319124142,13323.137262241515,13369.159504074993,13336.481253681333,13337.554137415187,13391.93593167495,13388.896094429028,13393.634664253554,13393.12057413108,13429.285696659768,13434.717170562408,13480.739412395886,13551.527387085842,13552.622622564153,13628.775015923384,13724.440482192098,13775.804790950393,13906.60719950285,14008.598209452417,14128.157690543854,14227.220621969775,14282.340023796562,14345.081370482609,14431.157938379996,14575.527855816825,14686.392508315148,14815.83146045583,14968.449171596667,15143.552737659544,15263.425143173356,15431.756130666272,15604.758632750349,15698.770069929371,15775.16833247761,15918.778290602959,16085.678766450736,16243.236213116195,16391.38357536597,16489.843009691598,16589.040051584252,16706.006730318873,16791.32333890478,16913.63208456422,17001.250922829026,17106.617046191343,17226.958838338716,17274.299833095054,17364.44441848331,17492.251693278755,17639.10265435012,17767.42401926804,17875.852331620736,17970.26610019995,18061.640031533247,18148.744779675577,18217.118765964362,18300.91545592731,18396.15623905137,18493.408679176413,18611.35883466707,18768.849226099162,18837.804357743786,18904.569018431786,19009.085775504802,19099.2080091486,19192.99592888307,19330.414453794296,19482.898054468402,19620.56244856864,19744.167595406485,19882.279024395826,20033.130947724694,20183.37937395327,20265.499683082067,20304.83875332341,20409.064937718504,20532.938305489817,20659.024495962203,20756.545157020708,20861.531300727285,20930.352321905175,21024.92255269558,21162.31872586235,21292.160009403233,21420.10139466541,21545.852308970967,21668.652793008423,21753.097683560572,21842.795234059722,21924.53556353278,22035.333160797734,22169.7342002075,22268.864186866784,22347.005885482537,22430.377892300832,22514.934541575258,22576.111266149434,22650.05083680759,22714.379157349966,22763.687105618374,22839.034836177212,22892.410801936487,22952.2687735878,23015.948893540968,23103.27715912785,23171.181758783074,23223.060157663844,23294.965719576565,23374.090894948353,23439.626209691312,23503.954530233685,23577.04473460254,23673.82778809402,23715.804364181087,23669.558604903057,23682.25439575367,23724.566248007566,23771.437856130346,23854.921621670917,23934.896163332007,23984.762905211795,23986.863969190596,23983.578262755665,24034.540240113765,24076.09213305618,24116.72760447593,24162.861605031685,24207.989777086947,24223.770108672394,24254.771978231907,24250.569850274307,24249.89929794065,24283.80689427935,24313.512362660455,24371.693953477617,24364.429636529643,24396.81731424538,24459.715123142618,24536.58277232442,24588.1035432939,24599.324119010464,24619.306578553507,24679.812750794026,24716.60372216746,24779.210958386775,24832.452813679316,24813.81145880359,24794.030164960644,24807.441211633828,24861.39832274894,24902.056145913142,24903.55371279165,24818.170048972377,24725.052681571568,24621.273532065577,24465.571280189906,24311.679519615118,24062.636382894085,23722.286370073125,23415.419270446215,23134.368435665183,22815.409042287953,22480.557558603,22152.322191276813,21744.11228228954,21363.931460849224,21025.07901490677,20684.080801496602,20377.683088503254,20057.82962534781,19714.417423536474,19426.661065418848,19175.472161230107,18915.767242403894,18634.96227681187,18405.722785678245,18286.99031913165,18238.66584761928,18210.904981005788,18158.244271069085,18100.375604674293,18050.441807561136,17958.196158194085,17923.439195566083,17948.89783250068,17945.522719087927,17956.02803898192,18017.71885367857,18019.50699323499,18018.814089156876,18060.00835418801,18073.709973539113,18053.079313406863,18068.881996736767,18110.76916584601,18106.09765125485,18135.557250446946,18130.706921900146,18136.205451036152,18237.525908652056,18281.223569062182,18291.259502322617,18264.57151944298,18257.530719939557,18285.96213888671,18284.263406308106,18265.733810154656,18288.778458688077,18389.7412883927,18443.564289041078,18532.166604061917,18612.007035256273,18658.722181167865,18776.113543047137,18894.890713082637,19051.37527601424,19186.357460779844,19296.99859583361,19467.073019394044,19624.563410826137,19776.041182999754,19947.009676338395,20112.63610275222,20296.099221241384,20467.514749469134,20624.80397520113,20768.05630541519,20886.632309750596,21045.64261980565,21157.75896999347,21262.566299744405,21409.752536982603,21534.20705010975,21672.89962445493,21822.16457392747,21959.5830988387,22068.346687358226,22215.689386807608,22365.66959210272,22503.60220713642,22597.077202448512,22641.803043103584,22662.34429625801,22794.55486471115,22930.185250065955,22985.103486192642,23066.799112176792,23158.664781888103,23321.899571645212,23528.764966579078,23620.451822334748,23737.79848072511,23859.995467662273,23999.7162222524,24139.794604753806,24284.18687393509,24411.524762096975,24552.13958646531,24656.63399179387,24795.840656261524,24931.761614294246,25030.645731764525,25147.67946573251,25311.182476423084,25445.494108855022,25578.621098830834,25665.6587917398,25754.641086416377,25846.417349149866,26010.747374385282,26171.2776030633,26328.388014839653,26438.33624581531,26531.140688793745,26593.25618663504,26680.763266177568,26837.180773875807,26988.189159415862,27085.910986174466,27192.19353105945,27317.318596520257,27421.723594870997,27534.912828792672,27677.695772373176,27840.528230730088,27945.603781414484,28014.894189225935,28127.85990570306,28246.63707573856,28349.65626593307,28466.64529641215,28579.365143700263,28680.305621660427,28794.21011140467,28875.86103389991,29000.472009238245,29111.873103603495,29216.68043335443,29318.13500143707,29417.332043329723,29411.520589771342,29408.324290314235,29355.909449566538,29366.86180434964,29438.767366262364,29560.070283421315,29698.047601943923,29782.112512840333,29922.392061041843,29969.084855208977,29998.41034393434,30034.776632163124,30058.827109197035,30050.33344630402,30068.90774594638,30114.9076360354,30194.03281140719,30273.94029783491,30334.468821819883,30418.51138097184,30497.457742387982,30500.02819300034,30514.176847240553,30586.708257998023,30650.79070935139,30715.543713038413,30739.54948658341,30723.679748020146,30731.189934157126,30744.109242452294,30769.590231131344,30822.027423623495,30895.229386714625,30941.273980292557,31002.56246358901,31064.4320922413,31126.279369149135,31116.48930507771,31107.705069506774,31143.1996397018,31147.938209526328,31119.01505220116,31124.11124993697,31207.147980588437,31253.304332888645,31227.063384898116,31230.505553544233,31242.88841997247,31227.957454676325,31296.443199687386,31382.54211932923,31429.100803029636,31475.81594894123,31473.960754151438,31491.86450146014,31525.593283843195,31552.504784167384,31565.647609907104,31550.314313210765,31543.564086385264,31557.668037136562,31598.0576393673,31622.085764656757,31628.12073565969,31607.423020294074,31566.273458751853,31494.122027650123,31354.58008701564,31127.3969563719,30944.26911404957,30727.077213177352,30470.099207174684,30132.78903159965,29787.007544876047,29463.890727030128,29085.632155612966,28719.108250034842,28351.71262642296,27971.844729405017,27616.496696054543,27232.11374665663,26848.580163548013,26476.51302534497,26187.974356171413,25869.37259070547,25552.067226417927,25270.412894536603,25021.213295604386,24833.324531713075,24665.328820386985,24464.990134834068,24257.52124279991,24117.599322509686,24024.3701963866,23988.517998280287,23992.854236704618,24001.839637975652,24019.832792262172,24011.741460769354,24080.29426101378,24111.787868951305,24098.309767044757,24180.340669195735,24273.770961018916,24324.375310465733,24318.29563597389,24304.90694104516,24331.639627413708,24361.032171372437,24367.06714237537,24377.72892448055,24396.236168889543,24410.854209763314,24383.182750127646,24378.019497158468,24346.05650258738,24314.942874305594,24289.595996093274,24322.363653464756,24378.846511703316,24379.248843103513,24428.556791371917,24542.684798560716,24557.615763856862,24542.885964260815,24638.640837507348,24741.99530386869,24793.650185304905,24887.706325972835,25056.99843847733,25194.528722110837,25323.140659706674,25465.297754442425,25628.26432326607,25817.628302291432,26026.281836781724,26176.66437347703,26304.784572694847,26520.747127622024,26692.14030410532,26806.134200827386,26934.254400045207,27074.489244757802,27229.967979188918,27339.737396208933,27507.196665668092,27673.47129267112,27812.767364116597,27955.416197230363,28089.83958838458,28206.53804618574,28342.74957689638,28477.597651195247,28573.620745375247,28662.96066796311,28716.98483431159,28813.834943036432,28973.11347402495,29043.901448714907,29111.04608905865,29231.343177717114,29346.164088984024,29493.30562273331,29622.05167079588,29748.40608220173,29881.287202988533,29990.296660697066,30100.602519584005,30248.794585322692,30381.832168320678,30528.526667180857,30644.755738348456,30760.7612920715,30858.77369150802,30924.331357995437,31102.72063049324,31277.578327367108,31466.092940103168,31571.72728439895,31704.206073785554,31878.1249973923,32043.639665083847,32181.013486506166,32304.551578110648,32465.640600400046,32559.294409667782,32648.164945622084,32787.46101706756,32967.593725632876,33089.65660210331,33233.42302243984,33427.436164311905,33518.050136333724,33618.45417242696,33713.516141595384,33828.40410809566,34004.22292998111,34136.053518778506,34223.31472913203,34316.007413388186,34408.7224493888,34483.62314505853,34618.89590250205,34731.034604434324,34786.77985510586,34882.75824579695,34973.08164514085,35080.660591204236,35154.28723744002,35241.68255826027,35323.109963310955,35424.475124415774,35540.50302988327,35678.74856933935,35757.44906156648,35810.91443430357,35887.558566040825,35957.944209330584,36049.34049240834,36100.704801166634,36122.274234566,36158.372301861324,36227.662709672775,36272.94734393923,36296.79665527304,36335.06284178053,36357.77221414712,36422.234645156226,36505.15961708542,36580.216774966335,36696.24468043383,36769.75956794734,36830.71277507696,36874.00810408689,36891.39776127312,36894.99639213042,36893.767046185385,36880.266592534375,36913.8612644507,36932.50261932643,36952.194506191554,37001.56950969333,37052.240914373506,37096.25149920601,37139.837400893855,37192.475759086105,37238.36389045285,37277.99353337211,37349.496763884636,37357.118708743896,37337.896208512335,37334.56579858849,37369.94861006124,37459.62380881594,37528.80245790511,37502.04741979211,37481.349704426495,37514.854969365,37523.97448110276,37535.463277752795,37579.67502828539,37587.65460105593,37583.407769609425,37568.54385954665,37569.77320549169,37516.33018449905,37447.8891429769,37295.38319055834,37045.28952184791,36790.56904203523,36595.19244375139,36347.95979833124,36044.40075688371,35690.282069478286,35315.59977717397,34956.0496158659,34576.44993978142,34247.25344744366,33921.32030979637,33612.32979444621,33325.243988662245,33011.20197906518,32693.963670011006,32395.724343743845,32145.429509333317,31921.55443686896,31685.631774143196,31506.594301056186,31402.25635793881,31326.305130279678,31233.120707645503,31152.162689228382,31103.30177584908,31072.97045862323,31046.37188272141,31091.25418558767,31167.11600626898,31225.83403895307,31292.91162406345,31320.739545910306,31378.228232649355,31389.985250232847,31413.32047144419,31432.118288531103,31490.031658414802,31576.667019923574,31655.613381339717,31670.611401869228,31688.89512883367,31751.971751686546,31826.224246767077,31923.297872936473,31981.18889107572,32066.863127572913,32102.424753001305,32093.372296496906,32101.620090200915,32198.425495436848,32305.15507521094,32385.576651761134,32417.137314932028,32480.124530807083,32577.958116287962,32734.19681003056,32891.06135261791,33027.02701413954,33197.21319642224,33332.46360212131,33429.2913591017,33585.574756333204,33696.39470534262,33853.8403932858,33994.25405195404,34098.726105538146,34224.6781855438,34317.99671864471,34458.09745289057,34612.59271056565,34701.06091511976,34785.304639971815,34885.99924874297,35013.69476481614,35140.20563843318,35189.40182797931,35232.7642122226,35345.93109439982,35486.23299434579,35535.496239125285,35591.062675841174,35669.87492679059,35734.9855583889,35775.978657719934,35854.65679820261,35955.61962790723,36080.18589975666,36207.032049540525,36311.32528916899,36431.75648829419,36570.94080101738,36693.49541586583,36811.557330078766,36914.08478189525,37021.239044814,37159.68574997017,37310.828245976954,37437.80850622756,37501.10864652498,37599.568080850615,37710.18686415993,37842.48683959089,37993.5175768754,38152.57259041937,38253.96010326864,38308.07367659493,38415.42910521378,38501.595080088984,38609.129322663466,38753.32042614465,38939.84573362419,39127.48862832649,39197.538995449424,39265.6671125492,39388.266430886564,39504.49550205416,39650.43004160286,39759.10422314456,39841.001014828806,39990.84710965718,40133.56299800432,40196.14788247918,40281.151566642715,40354.24177101157,40469.53206891204,40639.494733750194,40743.184476278366,40918.802132463716,41010.39958124156,41092.74340781491,41186.263106615916,41265.56709594335,41359.37736742227,41418.788304184476,41476.54521185699,41492.01261902006,41549.47895401466,41662.10939432495,41767.43081419836,41816.001154899735,41862.984521744795,41947.429412296944,42001.40887515651,42074.320265569724,42086.904297698056,42101.8352629942,42172.51147896188,42256.151706713645,42343.07764090033,42481.345532100866,42533.04511702599,42597.015809657074,42660.360653443415,42627.45888560521,42630.63283331786,42705.86880515442,42778.95900952328,42852.07156563659,42942.238502769294,43010.07604719115,43027.957442755396,43057.90878032551,43081.37811200358,43108.37901930559,43116.40329556505,43133.83765624019,43159.452755385966,43191.12517727914,43269.959779973,43365.55819100836,43401.16451992566,43393.18494715512,43425.25970044848,43495.24301233805,43494.2148320931,43520.90281497274,43558.4313939132,43578.72677787862,43575.418719699235,43615.38363878532,43658.522505584064,43667.73142429965,43725.24246278316,43727.29882327304,43694.061779268006,43707.964564319205,43700.87906132687,43599.15627231077,43418.464770134065,43219.288375292825,42995.61446852857,42737.31770960304,42443.571083971394,42145.51057165988,41795.34814302303,41405.89134763376,41011.49481671987,40636.16432382636,40263.44898503411,39893.25939336531,39549.198990964775,39230.820742943375,38955.80487916528,38658.10199476504,38349.67027302626,38076.129624382214,37831.310967363235,37570.756682247724,37375.44713919725,37215.60981459735,37143.5701422179,37086.19321420112,37009.92906211961,36942.31503514231,36881.47358673497,36823.023774984336,36790.993725179884,36713.27670970878,36642.220514085355,36580.46264415534,36559.80963227864,36534.909788955425,36533.83690522157,36473.44249170333,36448.60970361349,36447.78268906864,36522.70573648283,36557.46269911083,36522.7727917162,36523.77862021668,36533.70279475484,36507.55125374213,36458.19860198481,36407.52719730463,36346.05990005254,36285.77724525658,36274.62372477337,36233.98825335363,36198.091351758405,36202.20407273818,36251.37791053986,36303.457475120726,36361.594362448974,36377.32999054551,36430.63890107142,36490.40746574491,36644.254522830786,36825.14719070759,36875.75154015441,36937.30824438432,37022.960129137056,37218.42613439872,37406.270194801116,37593.24253716976,37779.030237082276,37915.01825034836,38100.82830200533,38317.90844415527,38465.13938488238,38517.4424669078,38610.02339244168,38772.81114730968,38894.494044124374,39039.981548783966,39135.043517952385,39229.34552780933,39334.845761638375,39449.28669324955,39601.03268635663,39674.257001192214,39739.45703976835,39799.06914223065,39897.10389341163,40035.08121193424,40125.382259533675,40223.55112118139,40262.30904606689,40325.92211078669,40439.20075168619,40538.59895927894,40569.62318058291,40627.38008825542,40708.76278981719,40828.50108486427,40938.7622402623,41062.12151791114,41201.01525795642,41277.9946658605,41367.602809381824,41493.26431670956,41605.157149452825,41720.514502586666,41798.83501515806,41875.16622247294,41959.186429880436,42049.39807050205,42137.039260511316,42188.44827275852,42292.07096005332,42421.17463602718,42602.6037457709,42774.06397748757,42895.322191157604,42954.59901745308,42993.31223884967,43079.63467593607,43203.351581496194,43346.179228565605,43444.750421613506,43559.14664973577,43712.23374751017,43821.73494359672,43873.00984537719,43910.5160725732,43989.194213055875,44089.464138682386,44136.02282238279,44200.17232896952,44290.83100448025,44359.20499076903,44476.64105613721,44609.56688041292,44726.7570765921,44789.78899595606,44834.134856955396,44801.076626906,44751.23223677066,44783.88813541987,44874.77032837514,44951.12388743447,44968.982931254264,44996.14030076746,45041.53669375619,45118.04671502671,45169.45572727391,45154.41300325549,45181.83859370215,45253.230065492404,45292.23385956691,45420.108189595725,45498.80868182286,45462.46474533853,45420.04113436236,45398.06936956279,45412.910927881116,45434.793285702865,45456.13920165768,45543.8027434114,45638.305918968435,45603.12427319578,45595.90465973671,45612.6684680782,45640.31757596941,45681.57889623391,45648.45361095114,45621.855035049324,45667.586704204885,45703.595364522385,45732.4961701031,45739.022879484044,45768.05779553149,45784.06164456149,45763.2521704736,45787.32499925196,45837.28114810958,45840.56685454451,45867.70187231325,45844.679575524286,45835.89533995335,45847.63000579238,45862.11393619942,45876.821384051014,45838.35403184343,45822.707810724714,45862.918598999815,45856.99538671916,45755.741984336615,45708.95978319166,45757.73128959314,45766.44846993071,45806.2122233167,45856.07896519649,45816.87400542188,45818.93036591177,45783.279333505554,45742.1968271967,45716.76054200656,45673.1299368298,45639.4235061912,45603.414845873696,45544.16037132268,45528.06711531486,45398.002314329424,45225.42449539,45073.61144704955,44851.21158971925,44596.80403432895,44281.778547975846,43920.484950600265,43575.418719699235,43202.301049506794,42809.17856802685,42423.00747907251,41973.02215969827,41489.173947474235,41054.767793985346,40699.687981568335,40345.41283195172,40014.852883202184,39690.95375430033,39360.930247417724,39057.102985036734,38794.42528419796,38582.86602292848,38372.64786632632,38196.47141652959,38090.121816411236,38015.48934167497,37857.64132233159,37751.828164080165,37699.27921286574,37641.432898215404,37564.185269377864,37532.62460620697,37526.45552473731,37470.59851534349,37415.8814449169,37388.232337025685,37394.98256385119,37368.04871178254,37375.223621752695,37416.79786643957,37399.0282295976,37367.71343561571,37374.50836593012,37397.597717952456,37380.69979914425,37293.12566436835,37229.55730313746,37193.459235842136,37161.54094475996,37188.6759625287,37166.614790751315,37145.9170753857,37104.83456907685,37106.086266766346,37065.27198139095,37027.45282977258,37034.739498465,37079.33122865334,37165.51955527301,37210.35715465035,37255.66414066126,37332.174161931776,37440.64717777338,37557.278580341175,37688.975058671844,37799.437379769966,37919.37684051715,38105.5445200854,38242.180733940695,38379.73336931865,38488.40755086036,38583.961258406795,38665.522773924204,38785.9539730494,39016.825141528265,39164.190192722104,39277.669999321704,39377.96227669266,39509.47994106769,39596.65174444339,39658.94605624033,39725.95658611734,39845.27019801977,39983.51573747584,40069.815822817785,40141.810791708325,40205.066228516844,40291.85805223681,40392.82088194143,40498.81285414849,40563.94583749126,40638.66771920535,40756.86374388501,40832.34558491058,40902.53006250025,41015.6298894441,41052.867895706644,41030.985537884895,41069.229372647926,41178.350589078735,41279.73810192801,41428.75718221154,41534.3021195295,41589.08624518946,41686.673961481334,41782.47353821678,41892.53352791471,42053.04140484827,42139.609711123674,42235.252825647935,42361.42842309814,42503.205538178154,42633.40444963032,42729.852226954965,42734.76961073514,42781.730625835735,42883.96750497431,42980.191764854404,43103.461635525426,43209.297145521305,43281.20270743403,43337.41734473912,43414.50851136548,43458.96613108709,43541.95815824964,43644.060926921484,43691.13370074436,43788.43084435831,43843.080859551534,43917.266299398696,44010.89775692198,44084.12207175756,44143.62241549759,44246.48514348092,44291.00981843589,44338.79784808133,44411.21750011653,44502.16674830517,44579.41437714272,44583.3259324224,44561.80120251193,44645.77670643052,44683.84172723791,44668.15080263028,44712.38490490734,44727.98642253714,44755.72493740618,44816.6781445358,44882.16875578985,44876.22319176474,44873.473927196734,44881.43114822282,44888.091968070505,44872.17752601833,44858.185333989306,44869.49531668369,44880.29120925561,44897.85968039747,44886.97438084774,44888.76252040417,44918.91502367437,44936.21527388278,44917.685677729336,44898.35141877549,44956.57771308157,44991.40173094293,45015.76513239922,44996.587335656564,45019.2743562787,45042.944853656874,45095.11382521556,45161.453802758915,45161.94554113693,45135.928110590954,45108.12254048855,45087.53658384521,45089.03415072372,45096.61139209406,45073.499688327276,45025.10816158154,45035.41231577544,45125.69101163042,45161.69967194792,45107.58609862162,45012.188853286374,44945.40184085391,44947.033518199154,44912.94710790481,44862.096889268985,44834.31367091104,44894.104587328984,44911.89657591541,44873.96566557475,44875.21736326425,44880.470023211245,44864.73439511471,44813.28067937859,44799.444949560755,44827.60814757444,44829.41863887532,44853.15619148686,44879.19597377729,44872.31163648506,44845.40013616087,44782.34586505245,44733.01556503958,44688.89322148481,44682.67943652623,44638.177113315716,44589.62912435879,44577.15685095273,44555.542714064446,44519.51170200249,44446.42149763364,44330.95238577752,44199.8817562916,44079.8528885666,43888.36549381799,43574.54700166547,43298.61471636471,43018.81557927318,42660.96415054371,42247.79215428736,41816.82816944458,41390.69216140416,40991.6241158991,40598.56868965253,40255.58117098584,39879.17779435847,39500.51689154111,39138.753907531966,38791.25133648531,38438.898436891846,38156.953532332605,37873.77928182832,37634.92854057891,37429.65011950137,37243.728309122125,37083.689818822124,36911.98371791646,36725.771334859295,36613.364411993556,36593.3372489616,36535.28976861117,36530.70766099783,36589.448045426376,36636.92315064945,36623.065069087155,36566.023417237215,36552.90294324195,36569.04090273868,36607.754124135274,36626.32842377763,36608.98347008032,36616.493656217295,36636.54317099371,36649.708348477885,36688.80154953022,36741.149335044545,36752.14639331656,36756.84025965217,36824.23076918492,36856.43963294502,36836.05484200178,36847.63304562963,36895.77870318636,36966.4772708985,36984.98451530749,37026.0893733608,37026.938739650104,37020.70260294707,37097.614955617784,37168.782909963484,37239.257960231065,37309.82241747647,37439.55194229507,37536.71497544229,37600.01511573972,37683.811805702666,37785.311077274215,37904.155302543084,38075.70494123756,38176.243087797535,38176.64541919773,38208.49665504655,38349.558514303986,38492.296754395575,38616.30423263362,38735.930768958424,38809.93739484995,38854.55147678274,38968.97005664946,39125.85695098126,39177.71299811757,39206.59145195383,39263.02960670347,39345.66400595474,39432.23231223015,39531.47405761171,39605.03364861413,39664.93632375435,39720.39100174797,39744.55323750416,39841.403346229,39908.19035866146,39986.95790612196,40098.64957316513,40142.034309152885,40194.5385568784,40275.51892703997,40344.42935519569,40490.654467422304,40633.81739065855,40721.927967301366,40815.15709342445,40868.644817906,40957.180077693476,41053.65020676258,41108.94842254501,41149.78505966486,41167.19706859554,41299.40763704868,41375.04594028544,41495.58889813291,41651.96170234224,41728.471723612754,41760.72529086177,41838.576416799595,41975.257334143804,42032.7683726273,42079.39411156108,42154.58537990873,42258.520991625905,42409.887005077246,42468.38152031678,42490.755616516544,42579.91672514877,42713.53545350259,42767.29139891761,42856.9665976723,42977.688369475414,43008.310259379185,43020.044925218215,43105.29447857076,43137.570397564225,43153.216618682934,43281.53798360086,43403.846729260295,43430.93704354013,43470.36552075929,43538.04660296996,43589.29915300598,43634.91906343926,43717.44170396825,43811.833120803014,43837.53762692662,43818.76216158416,43841.91856883986,43826.62997563243,43787.939105980295,43797.08096946251,43848.95936834328,43932.48783737276,44011.925937166925,44006.62857373102,44012.99882090078,44040.22324564734,44067.29120818272,44136.96159564991,44146.081107387676,44152.2725406018,44130.077258357676,44152.94309293546,44191.11987246512,44160.7215000059,44158.64278777156,44192.12570096561,44195.12083472262,44172.2773518893,44161.07912791719,44227.530864182816,44255.38113777413,44269.3509780587,44321.34113566174,44337.836723069755,44357.707423890526,44383.09900559176,44371.78902289737,44292.19446089202,44232.38119272962,44255.47054475195,44285.690103255525,44328.337231676254,44336.54032189135,44359.00382506893,44384.194241070065,44423.60036654477,44420.24760487647,44427.89190148019,44487.21343126457,44503.28433552794,44478.4515474381,44429.41182010315,44422.482779322,44379.858002645735,44298.29648712832,44207.77192208433,44099.25420275381,43931.12438096099,43679.24257269414,43405.27724090544,43096.48789125537,42748.29241613059,42373.028978470444,42024.94526206795,41634.23676898918,41230.161932726136,40813.59247131258,40390.965687151634,40005.19692959749,39625.08316339054,39197.42723672715,38787.36213295009,38474.683579764795,38218.91256796272,37950.66928275458,37655.64860768898,37392.94855510575,37205.46212261464,37034.89596067619,36901.0090113889,36827.538827364304,36768.57492549121,36675.144633668024,36532.36169008752,36411.08112467302,36380.07925511352,36362.68959792729,36370.11037708645,36368.255182296656,36393.66911574234,36417.0937439315,36386.31539181655,36362.89076362739,36390.98690640771,36447.44741290181,36485.44537847583,36502.32094553959,36543.06817568161,36526.12555338449,36542.822306492606,36546.68915828338,36530.797067975654,36557.26153341073,36555.36163513203,36502.1644833284,36479.07513130607,36484.19368078634,36559.36259738953,36569.48793762779,36516.33548931307,36523.242178349756,36524.0691928946,36550.75717577424,36599.48397868681,36683.817110516684,36805.678821287016,36919.560959286806,37065.316684879865,37139.904456127224,37190.799378251955,37310.78354248805,37412.148703592866,37483.294306194104,37638.25895050275,37796.28578380177,37928.764573188375,38060.77397594142,38190.77172169348,38381.54386061953,38530.741754858704,38633.73859330876,38753.700405800395,38896.75157031436,38983.409283567584,39074.00090384494,39182.40686445318,39308.358944458836,39422.77752432555,39517.90654872734,39638.538913552635,39708.946908586855,39777.54441232019,39847.97475909886,39924.01539373582,39964.82967911121,40032.15313341059,40127.70684095703,40199.90297554767,40256.16231634168,40306.96783148859,40351.35839597683,40374.827727654905,40453.617626859865,40575.61344809693,40643.51804775215,40714.9095195424,40787.9773721668,40910.15200735951,41054.72309049644,41165.47598427248,41307.99070691952,41374.28598097396,41427.21491184413,41584.99587595414,41756.4561076708,41860.257608921245,41914.34883050309,41937.840513925614,41978.543040578734,42112.60880382166,42228.346136611246,42313.86391089725,42411.29516497793,42537.33665196141,42608.12462665136,42677.571496674005,42768.520744862646,42866.309626854614,42990.42886381494,43084.95439111643,43162.44788914298,43277.84994576573,43380.66797026014,43455.166334529684,43495.53358501597,43554.25161770006,43582.34776048038,43653.76158401508,43742.72152694721,43813.68831559281,43816.97402202774,43840.353946727984,43909.39848535043,43984.05331183116,44072.00742626279,44129.69727870194,44146.32697657669,44190.91870676503,44232.5376549408,44221.60765190216,44276.61529500667,44353.013557554914,44374.11360432072,44406.41187505864,44423.622718289225,44432.22813990452,44443.44871562108,44504.69249542862,44546.937292449154,44573.49116486206,44617.2335287611,44636.8360086484,44671.391805576306,44750.60638792591,44745.44313495674,44723.180797479254,44756.19432403974,44796.71803673721,44782.256458074626,44808.92208920981,44816.655792791345,44835.878293022906,44886.348532002994,44877.184316776315,44850.138705985395,44862.387461946906,44899.20078506479,44932.348422092015,44904.40874152288,44856.26308396615,44819.29329863707,44821.43906610478,44868.57889516102,44887.01908433665,44946.541779821135,44929.353288335005,44854.45259266527,44782.189402841264,44704.159462947784,44679.70665451368,44730.91450106079,44716.02823925355,44708.361590905384,44768.823059656985,44766.69964393373,44725.25950971359,44706.528747860044,44691.106044185886,44671.92824744323,44661.02059614904,44623.11203755284,44598.458063418635,44614.10428453735,44610.19272925767,44579.950819009646,44517.20947232359,44505.6536204402,44509.94515537562,44504.357219261794,44483.23482075153,44435.69266029509,44423.15333165567,44407.752979725956,44402.34385756777,44362.13306929268,44265.70764371248,44068.542905872215,43854.32378701255,43654.36508111538,43391.53091806542,43048.163419742996,42671.35771171543,42321.19528307859,41991.64116282954,41598.76455053861,41175.53426927737,40773.33697954857,40415.06086767446,40037.11522067967,39617.84119818702,39163.69845434409,38807.031668070755,38505.037248735105,38206.14972187873,37939.046375637816,37729.99050974733,37503.96966981526,37274.28314379253,37077.43133037464,36902.35011605622,36751.94522761646,36647.115546121066,36600.31099323166,36563.363559647034,36535.692100011365,36553.08175719759,36577.57926912061,36570.493766128275,36551.11480368552,36507.2159775753,36540.4753733248,36590.94561230488,36619.62290044104,36649.66364498898,36645.7520897093,36657.10677589259,36619.95817660787,36649.46247928888,36673.602363300604,36655.58685726963,36621.00870859727,36611.330403248125,36627.37895576703,36671.97068595537,36663.58878178463,36672.01538944428,36669.556697554195,36674.42937784545,36716.204788232426,36708.67225035099,36719.93752955646,36770.11719585862,36780.60016400816,36819.91688250505,36893.81174967429,36948.46176486752,37011.963070865044,37062.63447554523,37145.40298526323,37281.65921946278,37401.46456974323,37578.75860676272,37772.83880386815,37905.98814558842,37991.50591987442,38096.559118814366,38214.688088260664,38355.705244029195,38512.88271103892,38621.48983734725,38660.448927932855,38745.85494349658,38891.007171989346,39020.87080727468,39160.770375820444,39349.195581578686,39481.76377794311,39589.65564842888,39625.28432909064,39624.12203837896,39660.93536149685,39749.20240035086,39806.40051441199,39888.09614039614,39967.95892333495,40029.82855198724,40072.43097691906,40160.13922216168,40232.15654279668,40326.659718353716,40420.78291425502,40454.601103615896,40487.659333665295,40569.22084918271,40667.63558001943,40734.0649645406,40854.205590987876,40940.036289696254,41048.73282298241,41136.32930950276,41209.64303131617,41275.87125013724,41407.00893485653,41549.233084825646,41624.178483984295,41704.01891517865,41794.23055580027,41798.5667942246,41890.29835346918,42039.38448898608,42136.27930119983,42238.203255916036,42331.87941692823,42414.46911269058,42566.72919592014,42685.86399386692,42750.52759057612,42827.9093298804,42911.57190937662,42992.284058604724,43061.23919024935,43146.19817092397,43221.54590148281,43307.75657984693,43403.13147343772,43471.818384148886,43505.74833223204,43609.97451662714,43659.21540966218,43686.23866870865,43723.58843369346,43792.208289171256,43875.44618552282,43897.060322411104,43976.2302012718,44028.71209725286,44038.39040260201,44079.51761239977,44148.22687485539,44215.95266055497,44232.67176540754,44239.489047466406,44212.66695412004,44193.77973005531,44172.724386778405,44193.824433544214,44247.62508244814,44347.78324935237,44395.34776155326,44384.5742207258,44350.06312728681,44350.6666243871,44384.44011025907,44462.29123619691,44482.22899225104,44412.156273383654,44369.15151705164,44382.517860235916,44370.58202869678,44376.46053748853,44352.3653569657,44353.013557554914,44443.80634353237,44548.01017618301,44609.365714712825,44640.188770316694,44627.73884865509,44596.11113025083,44585.24818244555,44635.27138653653,44692.000113964095,44679.25961962457,44684.35581736038,44656.72906121362,44619.80397937346,44613.32197348142,44643.83210466291,44626.59890968787,44667.23438110762,44644.748526185576,44602.168452998216,44592.46779590462,44565.51159209151,44584.264705689515,44620.92156659622,44657.57842750292,44656.349081557884,44574.85462127384,44485.827623108344,44483.97242831856,44502.971411105565,44487.436948709124,44489.94034408812,44507.08413208534,44493.96365809008,44462.55945713037,44449.30487266837,44406.009543658445,44391.77148244041,44374.8735636322,44353.639406399656,44318.03307748235,44308.15360643311,44311.72988554596,44301.64924879662,44275.698873484005,44235.912768353555,44248.921483626546,44151.98196792388,44045.47590559434,43910.67253478438,43737.51357048912,43475.41701500619,43157.44109838499,42818.81216988709,42492.67786653971,42098.39309434809,41687.43392079281,41271.914991368656,40863.146288769996,40483.63601966334,40117.04505885185,39807.83102605713,39445.866876347885,39007.72798153496,38631.72693630778,38258.40810041525,37913.61009044768,37663.09173859259,37420.97764265271,37205.84210227038,37030.85029492978,36892.560051984794,36720.69748886794,36582.72017034533,36425.87797950244,36329.25138822215,36324.75868758663,36352.85483036695,36434.461049373276,36407.50484556018,36344.204705262746,36356.74403390218,36350.843173365975,36414.27742413014,36444.11700297797,36475.72236963778,36513.13918985596,36541.548257058654,36572.57247836262,36646.24382808731,36712.896730053035,36732.1192302846,36759.14248933107,36771.88298367059,36808.76336202185,36843.67678686104,36842.33568219372,36836.47952514643,36867.280229005846,36863.18985977052,36836.18895246851,36813.189007424,36838.42412691404,36968.55598313284,37096.92205153967,37136.842267136846,37192.09577943037,37243.88477133331,37316.10325766841,37413.75802919365,37573.57300204909,37710.65625079349,37813.51897877681,37882.80938658826,37905.18348278803,37994.38929490916,38111.646546321695,38230.40136461274,38281.43039720421,38356.44285159622,38391.93742179125,38429.801276898535,38493.704914296264,38589.21391835379,38690.17674805841,38722.60912926306,38727.81708572115,38786.44571142742,38873.863383992124,38951.15571631858,38998.22849014145,39006.18571116754,39096.28559306689,39142.62075932274,39197.0025535825,39239.359109325305,39320.29477599797,39427.44903891671,39475.48293775117,39571.26016274216,39634.98498618424,39664.35517839852,39713.52901620019,39762.59109527959,39833.02144205826,39921.69081231247,39988.47782474492,40037.40579335759,40103.03051507837,40178.9817427375,40270.646246748714,40381.19797482467,40479.09861553891,40574.2276399407,40676.7997952461,40739.049403554134,40822.04143071669,40859.25708523477,40951.94976949093,41050.94564568349,41114.402248192106,41214.6274703297,41334.58928282133,41414.96615588262,41526.367250247866,41658.17548730082,41754.82443032556,41850.28873089418,41946.08830762962,42012.60709912862,42055.32128278271,42068.307646311245,42081.80809996225,42126.17631270603,42198.86418567469,42278.12347151321,42345.53633279042,42366.03288245593,42371.643170314215,42466.48162203808,42557.05089057099,42639.55117935553,42709.40038077836,42774.51101237667,42827.97638511377,42856.20663836082,42902.07241798311,42930.861464841546,42905.045199995664,42912.175406476905,42992.865203960566,43078.494736968845,43124.29346135777,43194.321476736244,43265.98116945996,43257.822782733776,43265.712948526496,43325.88384460018,43345.687490187585,43381.58439178281,43409.76994154095,43459.23435202055,43416.788389299916,43432.3004999519,43484.82709942188,43494.95243966013,43529.821161010404,43564.39930968277,43559.99601602507,43564.30990270495,43618.132903353326,43656.82377300546,43646.430211833744,43634.09204889442,43673.2076016912,43682.75179657362,43701.19198574925,43680.40486340581,43627.274766835544,43611.31562129446,43644.70912751069,43692.65361936732,43677.45443313771,43706.89168058535,43747.23657932718,43704.90237532883,43697.4145409363,43658.187229417235,43624.838426689916,43622.02210688855,43705.8187968515,43787.313257135545,43815.834083060516,43857.02834809165,43799.76317879715,43721.04033482556,43696.94515430274,43610.95799338317,43412.40744738668,43208.961869354476,42994.31806735016,42721.403267550864,42383.1543187087,42060.64099796308,41684.014103891146,41342.166524191685,41009.90784286354,40658.60547525948,40297.80361626192,39895.42751257748,39504.00376367614,39081.8240144043,38662.9746750563,38279.776368114515,37950.021082165375,37653.882819877006,37368.85337458293,37124.92878734217,36915.9623284295,36735.74021288636,36617.49948471779,36495.68247743636,36396.150159376884,36324.66928060881,36284.23497488916,36221.515979947566,36134.52299052751,36115.81458041842,36105.06339133542,36138.72511848511,36189.284764443015,36202.31583146046,36196.63848836881,36206.24973848459,36152.85142098086,36115.21108331813,36176.32075265894,36242.616026713375,36250.9085239063,36268.74521598163,36282.02215218808,36299.65767856332,36369.171603819326,36442.01593899917,36448.095613491016,36455.33757869453,36482.04791331862,36522.83984694956,36582.83192906761,36579.21094646584,36515.70964046832,36541.25768438073,36610.25751951427,36640.20885708438,36685.04645646172,36764.10457660015,36902.17130210058,37023.74244019299,37106.89092956673,37186.194918894165,37294.86910043587,37393.484996972686,37538.05608010961,37684.34824756959,37783.81351039571,37868.39251141459,37976.865527256195,38117.793276046905,38318.15431334428,38454.03056788809,38568.62796171045,38678.486785708286,38760.22711518134,38855.40084307204,38967.29367581531,39018.97090899598,39084.46152025003,39198.76834139447,39300.13350249929,39379.45984357117,39466.25166729113,39558.296150958085,39587.97926759473,39652.12877418146,39738.20534207885,39829.26634898977,39924.30596641373,39988.41076951155,40091.85464285072,40141.408460308136,40218.164350767656,40324.424543908186,40425.52148407954,40534.10625864342,40570.6737125723,40633.37035576944,40679.3031906251,40749.8676478705,40856.217247988854,40966.053720242235,41001.838863115176,41063.48497432291,41171.60036225324,41290.24342182201,41371.871992572786,41502.13795925832,41679.543755000086,41829.36749808401,41886.05152202267,41970.78698525274,42066.430099777,42128.635004596115,42183.46383374499,42230.0672209343,42334.00283265148,42448.06378460691,42549.96538757865,42633.06917346349,42673.43642394977,42755.26616040065,42858.084184895066,42910.40961866494,42900.217223193315,42966.0431106142,43069.0175973198,43146.98048197991,43208.6489449321,43282.78968129036,43365.91581891964,43480.043826108435,43531.40813486673,43584.851155859375,43585.92403959323,43642.27278736506,43746.00723338214,43814.783551071116,43863.55505747259,43962.5285819207,44041.85492299258,44084.2561822243,44122.27649954278,44149.098592889146,44132.088915358654,44170.131584421586,44245.94870161399,44222.43466644701,44209.42595117402,44289.400492835106,44392.35262779625,44399.572241255315,44406.769502969924,44531.067553885885,44573.60292358434,44537.8624842003,44534.37561206527,44532.94510042013,44542.533998791456,44569.11022294882,44620.31806949593,44655.41030829076,44701.74547454661,44707.244003682616,44680.89129696981,44648.90595065427,44643.31801454044,44661.244113593595,44661.55703801597,44668.55313403048,44689.60847730738,44738.08941103094,44763.34688226544,44765.559704966516,44806.55280429755,44817.23693814718,44786.25742033213,44798.282658849086,44764.710338677214,44709.14390196132,44712.11668397387,44701.14197744632,44643.87680815182,44629.66109867825,44651.63286347781,44681.98653244812,44720.81151256699,44713.61425085238,44684.98166620513,44660.99824440459,44647.45308726467,44657.958407158665,44708.67451532776,44699.28678265653,44639.24999704957,44633.21502604664,44728.41110568179,44745.689004145745,44760.46350723071,44752.126306548875,44724.67836435776,44657.26550308055,44505.11717857327,44326.43733339755,44127.52915948977,43871.3558162875,43579.28557149,43268.998654961426,42941.52324694672,42579.693207704215,42169.44928997151,41734.149066704405,41277.011189104465,40837.15120996848,40436.339728395906,40050.727433052954,39653.224009659774,39276.284191165476,38926.926425329024,38578.28391531514,38245.53349560899,37926.84232316522,37691.7466749843,37457.05335820358,37271.01978910206,37064.93670522412,36824.81191454076,36631.178752324435,36538.66488202392,36550.33249262959,36563.4306148804,36482.31613425209,36406.61077578196,36384.99663889368,36365.885897384396,36325.63040562039,36298.316573896,36294.9638122277,36313.22518744769,36333.25235047965,36370.62446720892,36353.34656874497,36381.62152548093,36370.28919104209,36361.549658960066,36366.66820844033,36343.578856418,36346.171658774816,36329.54196090007,36307.45843737822,36288.75002726913,36294.94146048325,36324.624577119896,36338.50501042664,36369.037493352596,36354.28534201209,36368.746920674675,36392.59623200849,36368.590458463485,36380.213365580246,36506.813646175106,36593.56076640615,36635.11265934857,36707.9122910395,36776.82271919522,36840.05580425928,37006.576300451314,37171.53217453149,37246.9916638126,37370.52975541708,37487.51878589616,37604.329002419596,37772.86115561261,37887.950287812986,37979.167756935094,38094.92744146913,38198.72894271957,38357.49338358562,38526.070240267545,38655.73270985278,38774.666342099474,38836.80419168522,38894.69520982447,38983.31987658976,39075.78904340137,39180.30580047439,39230.46311503209,39273.57963008638,39369.08863414391,39534.42448787981,39559.10081375847,39599.57982296703,39695.938193313865,39791.849528771585,39814.782418582734,39853.36152951259,39921.95903324593,39985.30387703227,40076.096663009725,40181.75335904996,40238.45973473308,40263.516040267474,40342.64121563926,40436.22796967363,40488.32988599895,40573.13240446239,40611.2868322476,40676.553926057095,40765.80444166713,40916.87988244055,41054.5889800297,41169.09696687424,41232.41945891613,41316.506721556994,41445.00690043055,41554.530448261554,41689.42322604934,41801.539576237155,41887.05735052316,41976.28551438874,42096.11321641364,42214.21983411549,42273.54136389987,42353.44885032759,42481.70316001215,42575.066396601964,42624.68726929275,42685.394607233364,42744.805543995564,42838.74992594122,42937.432877711406,43022.99535548632,43047.179942986964,43104.73568495938,43157.17287745153,43271.859678251705,43328.05196381235,43349.48728674499,43388.51343256395,43465.93987535714,43567.930885306705,43594.26124027506,43609.23690906011,43731.54565471955,43836.330632726036,43896.725046244275,43934.83477054057,43975.73846289378,44042.45842009287,44025.962832684854,43999.81129167215,44060.07159472365,44133.698240959435,44164.23072388539,44154.060680158225,44158.41927032701,44188.88469801959,44171.048005944256,44189.10821546414,44246.48514348092,44199.32296268022,44221.294727479784,44252.60952146167,44290.04869342431,44318.39070539364,44322.07874322877,44317.94367050454,44414.682020507105,44465.57694263184,44503.57490820586,44515.421332767175,44535.336737076854,44517.76826593498,44477.98216080453,44485.15707077469,44478.58565790483,44472.26011422397,44474.56234390287,44475.210544492074,44426.193168901584,44364.88233386068,44402.38856105669,44452.65763433667,44463.386471675214,44509.09578908632,44519.51170200249,44536.65548999971,44534.66618474319,44546.937292449154,44569.043167715456,44542.0646121579,44481.26786723946,44445.68389006661,44483.50304168499,44498.85869012579,44464.90639029818,44414.391447829184,44391.70442720705,44391.033874873385,44341.614167882704,44318.547167604826,44208.48717790689,43971.35752098054,43762.279303345604,43569.65196962976,43307.89069031366,42989.020703914255,42633.940891497245,42228.1673226556,41820.09152413506,41467.24688616358,41065.47427957944,40618.90877710686,40229.78725788442,39847.281855020745,39472.934838883266,39099.034857634884,38737.271873625745,38442.40766077133,38180.66873319969,37875.45566266247,37651.75940415375,37450.25842788916,37280.8992601513,37165.02781689499,37093.9045660382,37000.094294559276,36941.82329676429,36849.82351658625,36756.728500929894,36705.140674727045,36703.68781133745,36686.67813380696,36663.968761440374,36678.720912780875,36660.43718581643,36634.24094131481,36614.124371305035,36657.77732822625,36707.62171836159,36774.60989649414,36855.925542822544,36908.228624847965,36941.93505548657,36964.018579008414,36941.577427575285,36958.18477370558,36980.40240769415,37042.942588680104,37102.1076562533,37119.34085122834,37114.55757791491,37109.79665634593,37053.17968764063,37005.57047195083,37018.46742850154,37087.04258049042,37081.678161821146,37085.07562697835,37120.25727275101,37146.36411027481,37232.77595433903,37362.90781055782,37423.72690722071,37487.295268451606,37573.19302239335,37626.79250559718,37689.57855577213,37733.41032664899,37732.00216674831,37819.03985965727,37915.24176779291,38016.986908553474,38154.04780555342,38275.77540585702,38368.17751743526,38426.62732918589,38491.55914682855,38558.54732496111,38603.809607483105,38636.75607881023,38656.64913137545,38755.06386221217,38901.199567460964,38977.5978300092,39020.35671715221,39122.90652071316,39175.96956205006,39177.22125973955,39202.36697225177,39274.54075509796,39296.22194721961,39328.45316272416,39459.076757320974,39548.4837351422,39571.17075576434,39653.849858504516,39691.98193454527,39771.62120003953,39878.50724202481,39963.756795377354,40029.02388918685,40108.14906455864,40206.340277950796,40385.9812481381,40569.04203522707,40691.931926242345,40782.12121511951,40886.66032393698,41051.6385497616,41172.986170409466,41278.86638389425,41369.88268731626,41487.989305018105,41580.07849217397,41622.5244548946,41750.95757853479,41892.488824425796,41996.089159976145,42031.44961970444,42067.95001839996,42166.11888004767,42298.68707641209,42407.60712714281,42529.357079190864,42668.9213715698,42801.936602823334,42888.415502120915,42917.15984549044,42943.80312488117,43052.00791978931,43167.49938338988,43260.03560543485,43352.84004841329,43450.15954377169,43502.775550219485,43548.41781239722,43568.71319636264,43555.12333573381,43602.129054323326,43659.796555018016,43695.82756707997,43666.18915393224,43638.40593557429,43695.13466300186,43745.96252989323,43777.21026864174,43807.27336493413,43861.38693826043,43935.68413682987,43944.51307588972,43966.44013720038,43996.92791663741,44052.31553939766,44101.91406034399,44130.144313591045,44209.73887559639,44209.09067500719,44243.84763763519,44299.615240051186,44302.409208108096,44273.888382183126,44293.91554521508,44382.13788058017,44446.063869722355,44443.404012132174,44452.12119246974,44399.30402032185,44360.81431636981,44380.23798230148,44406.83655820329,44407.261241347944,44465.82281182084,44584.93525802318,44609.00808680154,44594.94883953915,44618.395819472775,44573.62527532879,44506.19006230713,44499.37278024826,44531.849864941825,44545.8644087153,44495.59533543531,44456.63624484972,44476.126966014745,44518.50587350201,44509.94515537562,44490.588544677325,44528.22888234006,44545.551484292926,44527.84890268432,44479.9491143166,44343.648176628136,44233.52113169684,44142.50482827483,43947.5752648801,43734.071401843,43500.9203554297,