0.0,34107.44328587571,34087.9972681996,34118.015661003075,34144.70364388271,34232.4789443587,34222.08538318698,34195.01742065161,34201.03003991009,34176.55487973152,34153.42082422028,34171.1681093178,34216.29628137306,34212.92116796031,34221.39247910887,34243.498354375166,34241.66551132983,34262.49733716218,34275.863680346454,34254.897744047375,34208.36141209143,34240.838496784985,34280.6916571488,34322.55647451359,34371.082111726064,34391.69042011385,34426.89441763096,34416.07617331459,34329.910198439386,34330.826619962056,34361.359102888004,34405.1685220204,34395.78078934918,34386.90714680042,34411.11408604552,34409.258891255726,34426.20151355285,34432.34824327806,34428.43668799838,34408.29776624415,34361.582620332556,34301.27761379214,34268.599363398476,34228.76855477912,34196.783208463574,34228.76855477912,34227.44980185626,34246.02410149862,34238.35745315045,34151.58798117495,34090.72418102314,34080.57648904044,34051.49686950408,33976.998505234544,33903.9530043546,33859.51773637745,33741.120545997685,33650.394815253596,33549.789613460256,33413.04164088269,33344.06415749361,33250.54445869261,33126.134649054366,32994.25935676806,32793.20541539257,32632.205800080992,32508.891225921063,32369.997485875785,32239.79857442362,32118.69682296477,31925.33188168191,31713.079716334312,31516.205551171966,31357.82108996166,31173.88858483894,30982.33413485696,30856.650275784767,30792.836045364864,30690.085076103816,30559.997923373932,30458.61041052466,30359.25690642082,30221.659567553947,30097.786199782637,29958.914811481813,29876.950964564203,29793.064867623434,29650.863069398772,29583.047876721368,29581.751475542962,29522.228780058478,29499.765276880895,29475.535985891343,29419.90249394208,29393.795656418286,29373.00853407485,29362.838490347684,29419.366052075155,29475.111302746693,29477.793512081327,29485.817788340784,29535.483364520474,29609.087659011802,29644.738691418017,29595.028411749416,29602.158618230656,29596.011888505447,29586.400638389667,29659.736711947528,29710.34106139434,29714.27496841848,29740.918247809204,29791.433190278196,29835.264961155055,29894.854711872904,29982.719419326717,30043.56086773406,30126.932874552356,30218.68678554139,30270.162853021964,30329.909065951,30392.471598681404,30432.54827648977,30512.969853039966,30591.446827822547,30616.793706034867,30694.331907550328,30755.32981816886,30786.57755691738,30885.282860432013,30979.115483655394,31081.665287216343,31137.812869288075,31155.6048578745,31202.83409390856,31237.54635304765,31237.166373391912,31266.849490028562,31305.76387712525,31351.652008491998,31434.2193525099,31449.64205618406,31473.021980884314,31535.875086292635,31624.25388386892,31661.223669198,31667.012771011923,31672.64541061466,31679.93207930709,31706.307137764354,31754.13987089871,31757.20205988909,31822.893836843235,31871.754750222535,31877.87912820329,31897.079276690398,31921.912064780245,31940.30755046696,31982.23942306512,32067.846604328945,32113.22064557322,32119.859113676444,32149.810451246554,32175.291439925608,32219.45848696929,32255.981237409265,32332.15598251295,32380.346343558595,32395.7466954883,32473.687228403956,32548.25264790686,32507.594824742657,32482.292650019248,32475.274202260283,32532.47231632141,32636.162058849583,32714.23670223197,32752.592295717277,32812.15969469067,32834.77966007944,32815.13247670323,32815.37834589223,32805.5435783319,32857.31021849039,32937.66473980722,33004.94349061769,33045.91423820427,33111.047221547036,33194.2851178986,33231.634882883416,33221.93422578982,33208.09849597198,33190.57472831902,33217.84385655449,33288.810645200094,33386.15249230296,33441.40600459647,33462.37194089555,33506.650746661515,33486.91415630748,33462.818975784656,33473.503109634294,33462.52840310674,33445.831649998625,33441.40600459647,33475.62652535755,33551.600104761135,33538.658444721514,33560.40669207653,33594.738971559884,33575.0247329503,33634.458021456965,33707.68233629255,33730.72698482597,33718.29941490882,33764.276953253386,33784.5723372188,33736.82901106227,33670.42197828555,33743.9145140546,33813.80841896634,33831.84627674178,33849.43709962811,33819.86574171374,33815.864779456235,33828.69468077358,33792.1272268447,33714.991356729435,33665.12461484964,33661.39187352561,33684.39181857012,33692.393743085115,33691.85730121819,33699.92628096656,33693.243109374416,33685.28588834833,33691.633783773636,33769.26139226692,33802.856064183245,33790.696715199556,33749.39069144615,33671.53956550832,33643.42107098354,33638.99542558139,33678.24508884491,33672.344228308706,33748.116642012195,33794.65297396815,33779.9231743721,33725.58608360125,33715.706612552,33775.29636326985,33748.80954609031,33721.205141688006,33731.30813018181,33701.356792611696,33716.91360675259,33764.88045035368,33766.95916258802,33749.18952574606,33743.378072187676,33781.621906950706,33730.90579878161,33698.987507699436,33683.877728447645,33670.310219563275,33676.18872835502,33676.56870801076,33666.08573986122,33596.66122158304,33584.03248596579,33542.68175872347,33493.03853428824,33411.007632137254,33341.538410370165,33280.495796262716,33188.630126551405,33016.83461866792,32878.70083793412,32786.41048507816,32644.432204298046,32439.22083845387,32301.802313542645,32246.124118104475,32132.68901499379,32024.640682296835,31875.666305502215,31674.724122849006,31512.875141248125,31357.3517033281,31225.27524534169,31077.15023483637,30898.40333442728,30761.94593452763,30657.74210187699,30530.33715848174,30400.40646796304,30208.136762158487,30023.22078027973,29901.53788346504,29767.27095452201,29673.460683043086,29589.261661679946,29497.284233246355,29451.843136768715,29428.463212068466,29355.216545488423,29310.4683530889,29274.37028579358,29198.73198255682,29141.980903384796,29120.925560107895,29139.611618472532,29151.90507792295,29178.6377642915,29177.319011368636,29160.622258260522,29158.968229170827,29159.616429760033,29160.510499538246,29183.085761438106,29204.856360537575,29241.960256333383,29312.748231023343,29319.297292148745,29304.85806523062,29298.84544597214,29305.506265819822,29355.507118166344,29404.97152864594,29483.22498598397,29496.233701256955,29557.455129320042,29583.740780799482,29646.504479229985,29769.349666756352,29806.36415557434,29822.94914996018,29916.49120050564,29946.666055520305,29971.923526754803,30040.85630665497,30100.066077717078,30110.77256331117,30178.341886799564,30257.51176566026,30313.0558506317,30355.21124067441,30368.77874955878,30452.441329054993,30525.978568312952,30521.731736866444,30571.263202579405,30663.710017646554,30751.597076844824,30855.420929839725,30912.5966921564,30926.16420104077,30978.780207488562,30978.579041788467,31004.75293454563,31017.269911440602,30958.08249212295,30936.736576168132,31025.696519100253,31093.779932711117,31161.192793988324,31229.499725043745,31232.584265778576,31224.42587905239,31271.2304319418,31354.58008701564,31438.533239189775,31445.171707293,31440.991931079858,31413.968672033392,31387.68302055395,31409.386564420056,31425.323358216687,31477.179405353,31540.501897394886,31594.63782246564,31627.74075600395,31716.164257069144,31807.78405759145,31883.98115443959,31959.32888499843,31980.294821297506,32020.460906083696,32025.311234630495,31997.416257550274,32019.589188049937,32030.58624632195,32071.713456119713,32111.477209505705,32184.813283063566,32162.282724652618,32188.478969154236,32260.272772344684,32290.291165148163,32303.5233978657,32339.97909307231,32350.64087517749,32405.961442704374,32440.919571032475,32450.28495195925,32472.882565603566,32504.934967152476,32550.934857241497,32638.441936784024,32715.823676088297,32773.26765933844,32814.01488948046,32835.27139845746,32837.64068336972,32845.70966311808,32925.32657686789,33030.06685138546,33039.11930788986,33040.25924685708,33094.64104111684,33177.92364095731,33192.94401323128,33119.89851235134,33133.28720728007,33199.895405756884,33206.735039560204,33155.25897207963,33132.3707857574,33166.74776872966,33222.44831591229,33233.08774627301,33243.45895570028,33269.96812462427,33317.24206414724,33319.74545952624,33371.869727596015,33394.7802656627,33428.2408271123,33413.15339960497,33438.567333050654,33506.024897816766,33501.37573497006,33470.46327238838,33439.23788538431,33421.75882122026,33414.24863508328,33440.46723132935,33457.99099898231,33388.99116384878,33390.01934409372,33394.82496915162,33366.482957182285,33336.64337833445,33336.39750914544,33346.701663339336,33287.1566161104,33230.07026077154,33224.214103724255,33293.012773157694,33344.64530284945,33361.83379433558,33414.89683567248,33435.63925452701,33385.48193996929,33357.83283207808,33334.87759052248,33317.71145078081,33306.53557855315,33316.2138839023,33357.676369866895,33315.00688970171,33317.487933336255,33358.36927394501,33391.22633829431,33417.55669326266,33448.625618055536,33413.823951938626,33380.45279746685,33311.83294198906,33287.93892716634,33242.475478944245,33212.054754740566,33228.90797005987,33244.285970245124,33230.33848170501,33198.73311504521,33155.773062202104,33129.420355489296,33123.45243971973,32985.74334213058,32905.500579536034,32874.36459950979,32796.71463927205,32676.23873665795,32539.758985013843,32408.822465994654,32294.24742391675,32170.664628823357,31972.51641422706,31795.781170818947,31650.9195150041,31536.67974909303,31370.53923255673,31199.861311896006,31031.127993002894,30912.864913089863,30823.592045735368,30662.6371339127,30520.48003917695,30406.68730815498,30261.378617451028,30152.570325442593,30090.18660666783,30072.439321570317,29957.573706814495,29860.455377156184,29751.69178863666,29625.180915019624,29601.152789730168,29580.924460998114,29534.209315086522,29525.17921032658,29482.21915748348,29426.138630645113,29372.270926507823,29339.503269136345,29317.062117703215,29282.03693414175,29269.139977591036,29250.78919539323,29243.860154612084,29272.31392530369,29249.224573281357,29235.321788230158,29251.258582026792,29276.69486721693,29342.967789526916,29436.711005772475,29492.344497721733,29543.552344268843,29598.38117341771,29647.756176919484,29695.16422690919,29747.400253701242,29794.27186182402,29859.650714355794,29902.744877665627,29986.83214030649,30034.419004251842,30063.185699365822,30078.831920484536,30142.57909567107,30247.788756822203,30359.368665143094,30408.654261667045,30395.91376732752,30432.63768346759,30528.28079799185,30581.947336429042,30703.853750688286,30827.883580670787,30886.221633699137,30917.290558492015,30974.376913830867,31045.76838562112,31152.095633995013,31217.496838271243,31196.866178138996,31204.666936953898,31273.040923242683,31288.508330405755,31322.52768546673,31379.4575785944,31428.02791929578,31470.51858550532,31487.483559546898,31551.901287067092,31587.485264239942,31593.073200353767,31625.97496819198,31664.777596566393,31699.333393494297,31732.168106099143,31749.17778362963,31738.001911401978,31691.9796695685,31669.136186735177,31691.264413745932,31731.810478187857,31743.56749577135,31793.56834811787,31838.473002728584,31862.322314062396,31878.326163092395,31896.96751796812,31941.022806289533,32014.403583336305,32051.82040355449,32073.59100265396,32094.86986337541,32107.900930392854,32121.26727357713,32171.22342243474,32262.709112490313,32347.198706531373,32442.75241407781,32482.80674014172,32500.397563028047,32538.06025243524,32539.356653613646,32600.153398532082,32667.163928409092,32694.969498511495,32665.42049234158,32578.606316877165,32590.475093182933,32649.32723633376,32725.256112248437,32753.218144562026,32802.034354452415,32860.39475922522,32928.9699112141,32986.592708419885,32977.67436238222,32972.24288847958,33028.59163625141,33075.97733449666,33114.77996287107,33126.98401534367,33111.29309073604,33164.870222195415,33222.15774323437,33262.48029023174,33288.6541829889,33294.689153991836,33287.290726577136,33284.04972363111,33262.27912453164,33254.00897908318,33276.56188923858,33311.14003791095,33297.63958425994,33325.13222993997,33374.75310263075,33432.93469344791,33474.93362127944,33489.797531342214,33504.572034427176,33505.57786292766,33530.03067136177,33536.82560167618,33523.88394163656,33507.634223417546,33458.01335072677,33399.51883548723,33409.89004491449,33464.80828104118,33502.38156347055,33525.85089514862,33566.39695959055,33544.626360491086,33561.23370662137,33575.0247329503,33537.85378192113,33517.20077004442,33521.93933986894,33531.03649986225,33506.24841526132,33541.117136611596,33518.09483982263,33469.748016565805,33496.07837153415,33523.638072447546,33476.610002113586,33473.54781312321,33512.73042115336,33519.81592414569,33491.25039473181,33515.90436886601,33516.73138341086,33510.495246707826,33524.01805210329,33520.03944159025,33531.50588649582,33506.516636194785,33481.05799926019,33471.17852821094,33460.13676645002,33456.873411759545,33476.11826373557,33420.50712353076,33393.57327146212,33399.56353897614,33443.75293776428,33504.21440651589,33544.93928491346,33530.701223695425,33517.15606655551,33516.664328177496,33512.10457230861,33490.26691797578,33455.10762394758,33452.02308321275,33460.583801339126,33489.50695866429,33518.87715087857,33524.062755592204,33529.47187775039,33486.467121418376,33468.85394678759,33417.55669326266,33331.323663154086,33278.193566583825,33186.21613815024,33050.988084195626,32900.76200971151,32778.7885402189,32656.971532937474,32505.6725747195,32338.772098871723,32187.27197495365,31991.89537666981,31776.89394675421,31588.06640959578,31444.56821019271,31307.641423659497,31159.382302687445,31004.864693267908,30881.14778770778,30742.27639940696,30541.222458031472,30351.29968539473,30233.28247467071,30093.025278213656,29965.240355162667,29824.737289516605,29725.54024762395,29683.742485492527,29621.15760101767,29532.4211755301,29444.087081442725,29359.48572867939,29276.426646283468,29175.620278790033,29123.71952816481,29144.417243530424,29083.955774778817,28969.96187805675,28909.56746453851,28860.550088948024,28951.49933713667,29057.84893725502,29075.506815374712,29085.430989912868,29053.825623253066,29053.26682964168,29076.937327019852,29116.857542617032,29133.688406191875,29137.868182405018,29166.210194374347,29180.001220703274,29188.897214996483,29185.16447367245,29203.6940698259,29271.17398633647,29373.00853407485,29468.808110810296,29500.45818095901,29515.679718933075,29585.171292444622,29692.526721063463,29791.924928656215,29830.325225630433,29900.889682875837,29932.562104769007,29952.097529422943,30030.641559438893,30130.77737459867,30210.573102304115,30254.673094114438,30297.700202190903,30375.05958975072,30419.24898853886,30471.417960097548,30518.490733920426,30643.705206359056,30764.22581246207,30830.34227256087,30840.020577910018,30860.472424086624,30872.16238643675,30918.184628270224,30980.098960411426,30992.839454750952,30977.595565032432,30981.976506945673,31004.574120589987,31088.259051830657,31194.83216939356,31300.220644500336,31341.236095575823,31353.641313748518,31377.11064542659,31402.479875383364,31368.907555211492,31345.617037489064,31374.160215158492,31434.30875948772,31503.912091721548,31610.619319751182,31608.004165649912,31627.1149071592,31629.394785093642,31667.258640200933,31719.1370390817,31754.542202298904,31814.1096012723,31823.76555487699,31812.410868693696,31831.432203225162,31886.238680629576,31868.40198855424,31879.823729970904,31977.344391029408,32074.06038928752,32141.428547075815,32162.238021163706,32181.818149306557,32173.480948624725,32210.942472331823,32312.10646773654,32382.112131370563,32456.006998539808,32495.033144358775,32500.48697000587,32508.44419103196,32545.503383338855,32554.332322398703,32598.968756075952,32628.562465734776,32665.822823741775,32674.98703896845,32695.08125723377,32765.556307501356,32794.3900578487,32847.22958174105,32878.54437572293,32977.00381004856,33025.41768853876,33022.26609257056,33053.156203407794,33118.9150355953,33142.496125995654,33135.90236138134,33155.48248952418,33229.08678401551,33288.050685888615,33307.54140705364,33332.75417479923,33327.72503229678,33375.06602705312,33398.7365244313,33381.97271608981,33381.592736434075,33421.021213653235,33453.54300183571,33467.11051072008,33427.458516056366,33498.134732024046,33543.575828501685,33527.63903470505,33517.17841829997,33512.171627541975,33480.7003713489,33480.43215041544,33519.659461934505,33578.086921940674,33604.864311798134,33609.71464034494,33623.528018418314,33646.952646607475,33609.40171592256,33641.90115236058,33678.33449582273,33668.25385907339,33627.730146375914,33609.066439755734,33623.86329458515,33620.01879453883,33535.037462119755,33541.184191844965,33557.38920657506,33558.43973856446,33509.06473506269,33539.708976710914,33575.13649167258,33589.55336684625,33646.77383265184,33650.037187342314,33599.09756172867,33570.88966022607,33557.411558319516,33571.113177670624,33612.910939802045,33559.93730544297,33529.717746939394,33518.02778458927,33491.92094706547,33500.638127403035,33503.11917103758,33445.63048429853,33391.04752433867,33410.35943154805,33416.17088510643,33384.14083530198,33405.75497219026,33481.281516704745,33544.67106397999,33531.885866151555,33498.1570837685,33469.01040899878,33414.20393159437,33363.46547168082,33361.386759446475,33412.86282692705,33488.32231620816,33516.01612758829,33436.30980686066,33406.827855924115,33431.75005099178,33411.924053659925,33369.343980472564,33332.15067769893,33391.56161446114,33378.10586429905,33311.65412803342,33295.806741214605,33339.616160347,33307.02731693117,33253.76310989417,33208.836103539004,33134.673015436296,33071.59639258342,32981.1835862617,32923.85136173384,32867.14498605073,32746.95965611454,32611.46338122647,32401.35698334658,32212.84237061052,32108.45972400424,32014.560045547492,31885.813997484925,31736.43728929011,31561.624295905152,31425.65863438352,31257.66292305743,31066.37669400891,30886.422799399235,30791.04790580844,30676.517567219445,30542.89883886562,30385.855482322633,30251.70031210188,30106.950415009313,29926.16950585479,29812.57794053292,29714.87846551877,29657.635647968727,29564.495928823464,29455.844099026217,29341.447870903954,29282.774541708775,29242.876677856053,29213.260616452768,29186.840854506598,29063.6603908134,28932.098022949463,28892.222510841195,28918.82108674301,28991.576014945033,29030.445698552812,29091.778885338175,29128.636911944977,29131.319121279616,29152.218002345326,29209.237302450812,29235.947637074907,29266.21189906739,29314.402260113035,29362.927897325506,29370.348676484668,29366.593583416176,29388.811217404753,29439.706139529484,29504.36973623869,29560.360856099232,29625.024452808437,29661.927182904146,29699.29929963342,29758.978457329093,29784.03476286349,29830.43698435271,29898.229825285653,29984.440503649774,30055.250830084187,30107.48685687624,30158.24766853424,30223.000672221267,30244.8383265541,30335.586409042648,30427.608540965146,30495.35667840918,30595.939528458064,30673.54478520689,30712.258006603482,30695.270680817448,30758.70493158161,30887.607441855365,30927.102974307894,30910.003889799584,30914.965977068663,30920.531561438034,30919.97276782665,30925.91833185176,30981.03773367855,31026.434126667278,31052.742129891176,31048.540001933576,31060.498185217166,31082.604060483463,31057.994789838172,31051.490432201677,31112.376584097936,31182.89633785443,31254.556030578144,31355.742377727318,31357.68697949493,31352.47902303684,31350.355607313588,31301.449990445377,31295.884406076006,31335.4469937619,31336.07284260665,31397.093104969634,31498.100638163167,31490.054010159256,31446.959846849426,31423.199942493433,31454.626495197597,31563.278324994844,31645.465689357006,31677.249869972453,31689.61038465624,31716.410126258153,31815.78598210645,31845.469098743095,31884.718762006614,31898.308622635443,31861.897630917745,31890.21729114262,31926.672986349226,31955.618495418847,32002.914786686277,32040.331606904463,32104.615223957924,32187.540195887115,32178.778312060633,32174.41972189185,32186.266146453163,32211.724783387755,32266.33009509207,32316.66622360542,32341.051976806164,32430.973044749862,32461.41612069799,32457.012827040297,32514.76973471281,32537.76967975732,32607.641232924612,32625.83555291123,32678.83153901476,32704.781914327374,32758.00141787546,32831.31513968887,32875.54924196592,32874.90104137672,32855.00798881149,32842.938046805626,32853.46571844408,32869.31310526289,32870.49774771902,32907.668698748195,32961.53640288549,33018.198075079694,33025.93177866123,32994.59463293489,32955.99317026057,33013.25833955507,33062.4545291012,33131.56612295701,33130.56029445652,33144.15015508534,33167.70889374124,33201.795304035586,33235.05469978508,33239.01095855367,33177.25308862366,33144.06074810753,33150.69921621075,33175.10732115595,33233.2442084842,33335.27992192268,33383.85026262406,33391.293393527674,33375.53541368669,33341.44900339234,33362.437291435876,33367.89111708297,33370.08158803959,33344.533544127175,33276.383075282945,33295.62792725896,33334.09527946654,33344.622951105,33349.33916918506,33349.02624476269,33356.51407915522,33355.03886402117,33336.97865450128,33333.40237538843,33355.88823031047,33389.773474904716,33394.48969298478,33399.764704676236,33396.27783254121,33399.496483742776,33353.965980287314,33319.1643141704,33316.37034611349,33356.31291345512,33344.89117203846,33301.23821511724,33320.19249441534,33333.82705853308,33302.9592994403,33337.71626206831,33335.63754983396,33318.49376183674,33289.12356962247,33327.38975612995,33332.35184339903,33305.9097297084,33281.36751429648,33244.1965632673,33153.15790810083,33130.31442526751,33115.49521869364,33026.62468273934,32921.50442856603,32848.3024654749,32771.837147693295,32702.5690916263,32625.567331977767,32470.692094646944,32362.576706716623,32291.095827948553,32149.944561713288,31992.074190625455,31831.1639822917,31700.071001061322,31544.078176507734,31394.723820057374,31265.351923150054,31158.64469512042,31050.752824634652,30914.87657009084,30759.75546357101,30649.36019770625,30516.054393774797,30421.841790895676,30272.442730956405,30043.270295056143,29887.09865654691,29834.57205707694,29751.803547358937,29645.029264095934,29547.62036175971,29465.432997397544,29427.72560450144,29382.798598146273,29325.287559662767,29272.470387514877,29218.289758955212,29165.405531573957,29113.05774605963,29101.256024987226,29140.19276382837,29182.72813352682,29274.21382358239,29234.248904496304,29240.954427832894,29261.003942609306,29238.383977220536,29243.077843556148,29237.713424886875,29257.31590477418,29288.898919689527,29403.29514781179,29470.171567222067,29475.670096358073,29467.82463405426,29505.39791648363,29581.32679239831,29637.42967098113,29666.710456217585,29731.016425015503,29782.33603028489,29816.333033601408,29908.77984866856,29960.68059929378,30010.65909989585,30047.785347436115,30119.62385411547,30224.20766642185,30302.885806904535,30352.461976106406,30339.877943978066,30351.567906328193,30415.315081514727,30565.071769365284,30712.146247881206,30734.520344080967,30766.684504352153,30853.364569349837,30896.056401259473,30903.655994374276,30927.192381285717,30979.85309122242,31012.95602476073,31044.360225720433,31087.11911286344,31086.135636107403,31069.4835864882,31076.412627269347,31070.19884231077,31102.474761304235,31103.748810738187,31060.00644683915,31066.466100986734,31119.506790579177,31159.427006176356,31154.77784332965,31169.462939436788,31208.824361422583,31233.344225090055,31265.15075744996,31213.831152180574,31230.058518655125,31281.109902991047,31300.10888577806,31361.91145919698,31460.79557666726,31481.716809477428,31494.434952072497,31520.787658785306,31570.900269854104,31585.048924094313,31583.596060704716,31618.665947755093,31701.568567939827,31703.51316970744,31748.596638273793,31815.76363036199,31838.20478179512,31816.009499551,31815.674223384172,31873.609945012326,31952.51160293956,32031.14503993333,32095.428656986795,32169.435282878316,32204.348707717505,32244.492440759237,32261.85974620101,32285.709057534823,32362.040264849697,32414.589216064123,32408.911872972476,32413.22575965235,32438.237361697837,32472.27906850327,32474.04485631524,32474.268373759794,32533.321682610716,32637.32434956126,32681.75961753841,32718.215312745015,32730.128792539694,32747.160821814636,32755.92270564112,32785.29289785539,32877.73971292254,32898.66094573271,32928.38876585827,32942.202143931645,32977.450844937666,32981.697676384174,32953.91445802623,32959.01065576204,33047.702377760696,33179.66707702483,33175.93433570079,33218.40265016587,33257.8981826184,33276.807758427596,33312.43643908935,33294.7115057363,33274.550232237605,33330.831924776074,33342.61129410402,33322.27120664969,33340.756099314225,33345.651131349936,33362.81727109161,33371.13212002899,33397.70834418635,33448.58091456663,33504.16970302698,33514.406801987505,33482.53321439424,33445.65283604298,33462.21547868437,33457.07457745964,33417.71315547385,33439.394347595495,33502.33685998164,33543.575828501685,33518.22895028936,33444.82582149814,33478.57695562565,33516.12788631057,33512.462200219896,33466.305847919684,33473.14548172301,33477.079388747145,33545.72159596939,33624.19857075198,33623.0362800403,33557.1209856416,33484.00842952829,33453.78887102471,33431.079498658124,33420.64123399749,33417.91432117395,33452.961856479866,33494.20082499991,33508.751810640315,33515.68085142146,33394.48969298478,33308.77075299868,33254.098386061,33186.886690483894,33125.75466939863,32977.495548426574,32814.26075866947,32733.593312930265,32622.438087754024,32478.85048137313,32348.07042456513,32215.435172967336,32054.100281488933,31922.51556188054,31800.58679587684,31583.86428163818,31355.004770160293,31160.097558510013,31016.599359106942,30890.848444801384,30745.85267851981,30581.52265328439,30418.421973994016,30226.353433889562,29998.231529978697,29858.041388755013,29777.955088371647,29674.801787710407,29560.964353199524,29382.552728957264,29308.5684548102,29273.140939848538,29176.559052057157,29092.248271971737,29052.21629765228,28982.50120669618,28869.647248941335,28852.03407431055,28877.202138567227,28871.70360943122,28811.733879057632,28728.87596236181,28693.8731305448,28636.85383043931,28640.72068223008,28676.595232080846,28666.648705798234,28658.80324349442,28660.8149004954,28710.547531908458,28763.185890100707,28860.259516270104,28892.04369688555,28919.558694310035,28941.664569576333,28970.766540857145,29051.970428463275,29096.47275167379,29094.841074328553,29137.66701670492,29192.3393836426,29185.276232394725,29230.918494572463,29279.913518418496,29373.90260385306,29458.41454963858,29524.50865799292,29653.321761288855,29778.692695938673,29880.72840937715,29968.838986019968,30010.636748151395,30034.28489378511,30142.15441252642,30272.263917000764,30337.329845110162,30378.72527584139,30413.415183236026,30428.055575854254,30425.954511875454,30458.588058780202,30538.09321380773,30607.78595301938,30614.089144955775,30671.86840437274,30791.293774997448,30884.053514486972,30935.551933712,30965.123291626373,30984.971640702683,31012.620748593898,31030.680958113786,31105.53695029461,31192.485236225755,31230.103222144036,31243.223696139303,31240.966169949315,31240.22856238229,31264.591963838575,31274.42673139891,31386.274860653266,31516.362013383154,31549.107319010178,31578.54456645782,31620.990529178445,31651.50066035994,31666.40927391163,31670.432587913587,31678.479215917498,31768.66850479466,31795.8035225634,31867.55262226494,31927.254131705064,31985.592184733414,32082.95638358073,32166.350742143484,32256.33886532055,32239.731519190256,32223.23593178224,32275.00257194073,32340.895514594977,32396.350192588594,32454.487079916846,32518.234255103383,32541.748290270367,32554.28761890979,32630.84234366922,32673.914155234597,32704.781914327374,32760.750682443464,32828.20824720958,32915.38005058528,32972.689923368685,33024.210694338166,33075.19502344073,33114.62350065989,33159.08112038149,33202.86818776944,33269.386979268435,33324.036994461654,33356.98346578878,33391.092227827576,33439.23788538431,33505.48845594984,33478.129920736545,33468.4516153874,33508.59534842913,33542.368834301094,33573.39305560506,33626.63491089761,33664.364655538164,33738.57244712978,33815.75302073396,33856.43319564262,33898.074495562854,33955.51847881299,33945.32608334137,33966.023798706985,33974.47275811109,33977.17731919019,34062.47157603164,34122.46365814968,34121.994271516116,34151.58798117495,34220.54311281957,34229.64027281288,34256.842345814985,34313.63812847592,34361.26969591018,34391.0198677802,34389.43289392387,34413.84099886906,34443.32294980562,34484.80778751466,34517.86601756406,34556.914515127486,34594.35368709012,34589.57041377669,34578.39454154903,34592.81141672271,34546.94563710042,34529.55597991419,34520.749392598795,34584.04953289623,34618.09123970166,34624.88617001607,34657.653827387556,34716.7965432163,34692.23197605991,34672.65184791706,34670.215507771434,34711.610938502665,34743.417470862565,34720.9986711739,34718.53997928381,34731.325177112245,34722.40683107458,34675.82579562972,34671.75777813885,34684.36416201165,34728.55356079979,34737.6507207931,34776.52040440088,34796.39110522164,34740.93642722803,34732.91215096857,34801.95668959102,34808.8186751388,34754.54863960131,34725.245502620404,34704.07840062123,34632.46341138642,34592.74436148934,34538.83195386314,34421.552350706144,34300.22708180274,34175.14671983084,34078.654239017276,33957.55248755842,33780.54902321685,33564.02767467829,33357.341093700066,33221.911874045356,33069.718846049174,32861.1547185367,32625.500276744402,32394.472646054346,32150.570410558037,31957.22782101963,31758.073777922844,31587.798188662317,31438.622646167594,31273.3314959206,31111.594273042,30982.55765230151,30811.76797291851,30594.799589490845,30421.573569962213,30283.551547950694,30142.64615090444,29987.03330600659,29917.005290628113,29815.975405690126,29701.847398501326,29602.62800486422,29499.3629454807,29396.746086686384,29298.4654663164,29276.09137011664,29224.59295089161,29147.72530170981,29107.805086112632,29042.448585325314,29016.118230356962,29033.373777076456,29043.096785914517,29013.59248323351,28967.68200012231,28968.888994322897,29027.294102584616,29099.311423219613,29149.20051684386,29190.372430130534,29256.399483251513,29352.53433615379,29430.720738258453,29466.438825898033,29543.239419846468,29600.81751356334,29610.42876367912,29653.567630477864,29723.617997600795,29820.46810632564,29898.833322385948,29997.337460200484,30032.541457717594,30149.128156796476,30264.351399463583,30379.954621786434,30433.375291034616,30503.492713390915,30563.127167597675,30599.515807570915,30635.613874866234,30712.928558937143,30782.75540861552,30840.311150587935,30895.7434768371,30981.440065078747,31053.099757802458,31082.20172908327,31175.67672439536,31292.41988568543,31313.028194073224,31347.561639256674,31396.042572980237,31490.56810028173,31532.410565902064,31522.10641170817,31520.944120996493,31564.082987795235,31657.826204040794,31700.98742258399,31751.010626674968,31828.504124701518,31870.413645555218,31894.531177822493,31918.201675200664,31981.211242820176,32001.908958185788,31981.05478060899,32007.94392918872,32055.15081347833,32093.21583428572,32159.55581182907,32206.76269611868,32259.177536866373,32311.59237761407,32353.568953701135,32432.962350006386,32429.207256937894,32461.594934653633,32539.021377446817,32595.928918830028,32620.605244708688,32655.98805618144,32735.694376909065,32799.665069540155,32829.102316987795,32870.98948609704,32958.40715866174,32996.82980738042,32967.303152954955,33040.415709068264,33093.81402657199,33140.14919282785,33188.786588762596,33202.17528369132,33250.63386567043,33303.49574130723,33390.958117360846,33445.0940424316,33511.32226125267,33564.89939271205,33652.22765829893,33692.1031704072,33711.75035378341,33756.029159549376,33810.65682299815,33852.923971763135,33896.46516996207,33911.016155602476,33932.406775046205,33908.37864975675,33977.222022679096,34044.97016012313,34074.40740757077,34160.439271979245,34251.835555057,34292.918061365854,34322.154143113396,34333.01709091867,34327.31739608257,34380.64865835293,34426.96147286433,34423.228731540294,34441.199534082356,34453.40358655496,34534.383956716534,34576.27112582578,34593.817245223196,34620.66169031402,34612.10097218764,34640.19711496796,34621.60046358114,34607.85414074113,34699.451589518976,34759.10839547019,34808.66221292761,34844.40265231164,34794.804131365316,34806.047058826334,34860.317094363825,34870.151861924154,34883.294687663874,34965.593810748316,34999.32259313138,35026.09998298883,35036.73941334956,35037.61113138332,35093.870472177325,35083.65572496125,35086.606155229354,35164.05494976699,35209.02665961107,35206.143284576334,35159.62930436484,35095.45744603365,35045.769518109504,35049.14463152226,35062.64508517326,35046.060090787425,35010.051430469925,35000.21666290959,35059.58289618289,35117.09393466639,35182.29397324252,35259.09456719096,35309.09541953748,35244.54358155055,35160.0986909984,35158.53406888653,35177.46599644017,35200.44358974023,35174.51556617207,35128.58273131642,35097.782027457004,35098.25141409057,35098.67609723522,35139.08805121041,35124.87234173684,35053.10089029084,34978.42371206566,34903.56771988484,34825.80600092483,34781.92952655906,34717.08711589422,34583.87071894058,34438.51732474772,34285.05024731759,34134.3547861999,33978.9207552577,33772.83767137977,33606.51834088783,33439.08142317312,33205.59510059298,33022.601368737385,32808.20343592208,32618.370070263158,32480.14688255154,32323.68467136439,32130.833820204,31909.104515207353,31663.391788410165,31510.841132502694,31381.335125128644,31228.583303521074,31080.234775571203,30948.448890262713,30814.852513653343,30669.856747371763,30528.48196369195,30418.600787949657,30331.116060151588,30300.382411525537,30249.398082422984,30227.672186812426,30216.40690760695,30212.249483138265,30094.925176492357,30004.579425404005,30048.47825151423,30057.08367312952,30014.078916797513,30009.295643484074,29994.945823543767,29954.53386956857,29999.907910812846,30059.452958041784,30108.805609799103,30169.937630884368,30214.037622694686,30293.810998655677,30313.122905865064,30315.738059966334,30329.886714206543,30331.607798529603,30379.172310730497,30409.928311100997,30467.953439706976,30510.42175417206,30617.710127557533,30690.867387159753,30771.37837068777,30873.77171203753,30944.984369872138,31044.71785363172,31137.388186143424,31208.98082363377,31310.860074861062,31363.92311619796,31416.02503252328,31450.51377421782,31454.514736475317,31455.85584114264,31569.894441353616,31626.89138971465,31662.855346543238,31728.23419907501,31773.29531589691,31837.243656783543,31924.393108414784,32021.7573072621,32061.319894947996,32071.422883441795,32057.810671068513,32070.282944474573,32183.27101269615,32292.749857038245,32317.403831172447,32325.942197554377,32348.182183287405,32405.737925259822,32471.407350469515,32509.33826081017,32581.735561100908,32586.92116581454,32604.981375334428,32609.429372481034,32631.915227403075,32734.15210654165,32763.991685389483,32777.91682218514,32769.40080754767,32779.57085127483,32878.94670712313,32966.38673143229,33012.43132501022,33049.75873825058,33095.579814383964,33137.73520442667,33161.584515760485,33174.61558277793,33208.41142039435,33273.298534548114,33293.61627025798,33283.088598619535,33304.278052363166,33358.168108244914,33437.18152489442,33528.37664227207,33584.74774178836,33634.25685575687,33683.09541739171,33658.352036279684,33685.33059183724,33759.4713281955,33834.08145118731,33917.34169928333,33974.94214474465,34064.90791617727,34137.77460310156,34150.82802186347,34188.53541475957,34228.85796175694,34234.334139148494,34283.2397560167,34367.103501213016,34442.13830734948,34497.86120627656,34584.65302999652,34623.388603137566,34586.955259675415,34638.00664401134,34681.01140034335,34699.9880313859,34766.3056571848,34764.42811065055,34749.854773265695,34776.78862533434,34883.24998417497,34926.12063004025,34968.655999738694,35027.75401207853,35035.2194947266,34974.8027294639,35017.539264862455,35073.105701578344,35084.66155346174,35091.791759942986,35083.56631798343,35128.02393770504,35200.64475544033,35203.706944430705,35180.03644705253,35165.64192362332,35156.18713571872,35145.391243146805,35199.88479612885,35254.75832876663,35251.56202930952,35270.40454988534,35342.824201920535,35393.42855136735,35389.76286527668,35451.610142184516,35447.340958993555,35455.25347653073,35538.80429730467,35570.67788489794,35557.08802426911,35575.841137867115,35548.72847184283,35509.79173300168,35481.62853498799,35432.38764195295,35320.62891967642,35193.53690070354,35099.14548386878,35073.86566088982,35029.38568942376,34873.32580963681,34724.3961363311,34568.89505015553,34397.90420507243,34274.679037890324,34107.309175408984,33892.84418736031,33653.680521688526,33479.471025403865,33286.41900854337,33124.100640308934,32955.18850746018,32762.91880165563,32595.995974063397,32430.905989516497,32249.610990239504,32095.11573256442,31936.17247774273,31818.57995016336,31705.256605774954,31600.11399985719,31493.85380671666,31429.100803029636,31357.664627750473,31233.634797767976,31123.30658713658,31083.475778517222,31031.150344747348,30937.049500590507,30842.032234910996,30816.081859598384,30793.283080253972,30742.388158129237,30687.402866769182,30666.883965359208,30715.610768271777,30733.51451558048,30755.285114679948,30762.12474848327,30739.773004027964,30738.633065060745,30854.973894950617,30982.915280212794,30954.640323476833,30938.770584913564,30984.92693721377,31081.53117674961,31099.30081359158,31130.34738664,31197.179102561367,31264.0778737161,31364.14663364251,31452.056044585235,31525.213304187455,31655.434567384076,31786.214624192075,31932.015053274044,31989.9507749022,32029.15573467681,32112.751258939657,32209.891940342422,32254.751891464224,32336.000482559262,32418.009032965787,32454.62119038358,32552.767700286833,32628.808334923786,32668.6614952876,32654.84811721422,32679.725608792975,32745.462089236033,32801.87789224123,32831.82922981134,32820.54159886141,32823.49202912951,32868.75431165151,32982.971725818126,33088.29314569153,33116.59045417195,33127.945140355245,33126.08994556546,33126.04524207655,33172.3804083324,33206.600929093474,33227.656272370376,33302.042877917636,33299.53948253864,33351.104956997035,33384.14083530198,33380.810425378135,33349.160355229425,33359.643323378965,33339.996140002746,33295.40440981441,33343.058328993124,33373.23318400779,33414.025117638725,33463.26601067377,33517.24547353333,33586.96056448943,33685.5988127707,33714.209045673495,33714.566673584784,33741.65698786461,33734.280912194365,33690.650307017604,33729.587045858745,33786.89691864215,33834.30496863186,33857.684893332116,33902.477789220546,34002.34538344686,34066.83016620042,34054.044968371985,34074.943849437695,34127.716318096675,34229.863790257434,34301.679945192336,34278.68000014782,34293.92388986634,34370.2103936923,34426.55914146413,34510.691107593906,34580.22738459437,34620.08054495818,34648.51196390533,34742.27753189534,34737.471906837454,34735.97433995895,34833.83027718429,34912.396658944686,34952.56274373087,34984.97277319107,35013.06891597139,35015.52760786148,35057.50418394854,35103.32526008192,35122.95009171368,35153.03553975053,35204.44455199773,35155.404824662786,35077.64310570277,35105.962765927645,35174.18029000524,35203.52813047506,35199.504816473105,35183.67978139875,35207.618499710385,35264.25782016013,35301.6299368894,35344.94761764379,35378.07290292656,35399.374115392464,35473.51485175072,35495.03958166118,35524.14155294199,35541.97824501732,35585.74296066081,35589.47570198485,35582.546661203705,35569.247373252794,35640.840010743144,35721.97684311591,35725.12843908411,35709.88454936559,35624.702051246415,35569.20266976389,35557.51270741376,35557.66916962495,35566.408701706976,35534.89274202499,35562.340684216106,35543.96755027385,35467.25636330323,35347.719233956246,35218.392040537845,35128.80624876097,35008.97854673607,34854.84091697227,34720.95396768498,34548.9572941014,34375.12777747247,34244.10185147546,34100.31307939447,33884.75285586749,33643.666940172545,33429.894856201994,33191.58055681951,32951.791042302975,32719.690527879065,32482.605574441623,32268.900545704433,32127.145782368876,31930.629245117816,31770.411940862174,31564.44061570652,31323.28764477821,31144.563096113576,31003.121257200393,30867.848499756874,30724.864390476276,30593.592595290258,30445.244067340383,30297.409629512982,30233.617750837537,30206.50508481325,30104.648185330414,29999.59498639047,29896.44168572923,29861.9976475236,29814.164914389243,29789.622698977317,29802.787876461494,29804.911292184748,29809.64986200927,29862.981124279635,29874.134644762835,29850.687664829216,29814.52254230053,29860.164804478267,29886.271642002066,29932.025662902077,30003.2830242256,30036.22949555272,30065.420873811352,30075.18858613832,30127.357557697007,30188.847206693557,30237.283436928206,30296.023821356754,30387.129531756585,30505.437315158528,30594.419609835102,30633.579866120803,30694.287204061417,30763.62231536178,30796.345269244346,30831.839839439373,30947.845393162417,31072.568127223032,31187.23257627876,31279.925260534917,31405.609119607107,31504.739106266396,31654.965180750514,31775.32932464234,31824.614921166292,31883.60117478385,32013.800086236013,32106.112790836432,32158.728797284224,32230.8578766415,32284.7702842677,32371.40564577647,32464.299495732725,32524.738612739875,32564.077682981217,32692.957841510517,32765.131624356705,32741.371720000712,32759.29781905387,32799.86623524025,32823.89436052971,32874.72222742107,32950.96402775813,33011.64901395429,33103.5146836656,33188.29485038458,33273.41029327039,33335.57049460059,33336.03988123416,33360.336227457075,33337.87272427949,33405.643213467985,33490.66924937597,33518.20659854491,33573.415407349516,33632.424012711526,33666.42101602805,33733.20802846051,33810.902692187155,33921.74499294102,34004.692316614666,34016.20346500915,33993.292926942464,34106.32569865295,34196.60439450794,34245.800584054065,34324.18815185883,34453.42593829941,34507.628918603536,34576.18171884796,34679.446778231475,34782.60007889272,34881.86417601874,35012.59952933783,35080.70529469315,35120.75962075706,35160.81394682097,35243.51540130561,35312.51523643914,35383.83965299602,35463.03188360118,35560.731358615325,35618.1082866321,35628.36773733708,35691.91374682352,35759.39366333409,35821.1068297752,35876.38269381317,35899.00265920194,35922.31552866883,35973.3892647492,36017.91393970417,36018.58449203784,36091.78645512897,36161.8368222519,36244.31475929198,36292.70628603772,36302.22812917568,36300.97643148618,36347.28924599758,36462.95952355379,36515.486123023766,36575.679370841906,36631.75989768028,36660.43718581643,36710.70625909642,36722.15035225754,36698.50220662382,36706.54883462773,36726.55364591523,36722.50798016882,36747.81015489223,36760.930628887494,36815.044202213794,36818.106391204165,36843.02858627184,36847.36482469617,36847.20836248498,36817.279376659324,36819.60395808268,36868.800147628805,36808.830417255216,36776.08511162819,36783.170614620525,36795.24055662639,36790.14435889058,36775.615724994626,36778.476748284906,36765.98212313439,36711.577977130175,36675.368151112576,36691.12613095357,36773.98404764939,36799.934422962004,36751.140564816065,36704.64893634903,36693.048380976725,36653.53049677974,36575.634667353,36497.33650652606,36416.93728172032,36364.52244097262,36282.73740801065,36144.84949646586,35944.91314231314,35764.66867502555,35511.84809349157,35288.73298033869,35059.13586129378,34850.70584424804,34650.54597265077,34449.82730744211,34228.880313501395,33996.712743844124,33770.423682978595,33556.78570947477,33315.811552502106,33068.71301754868,32770.04900813687,32483.834920386664,32302.897549020956,32105.576348969502,31915.430058888207,31711.716259922538,31565.44644420701,31463.45543425744,31331.848362904595,31128.961578483773,30969.303067839515,30810.04688859545,30666.012247325452,30525.911513079587,30422.73586067389,30360.508604110317,30282.85864387258,30232.008425236756,30155.029017332676,30082.743475764215,30078.921327462358,30021.052661067566,29925.253084332122,29937.188915871255,29942.88861070736,29961.842890005457,29951.985770700667,29953.416282345806,29984.37344841641,30046.46659451325,30090.99126946822,30072.841652970514,30053.954428905778,30034.620169951937,30067.61134476797,30115.466429646785,30195.977413174798,30278.298888003697,30299.778914425246,30367.616458847104,30473.56372756526,30574.48185378097,30678.395113753693,30735.41441385918,30827.324787059402,30933.652035433297,31055.826670626007,31168.88179408095,31280.10407449056,31382.25154665131,31508.09186793469,31608.1606278611,31651.388901637663,31736.102013123276,31855.795604681447,31959.485347209615,32105.799866414058,32256.29416183164,32382.737980215312,32489.51226347831,32571.565517373743,32650.198954367515,32715.533103410376,32826.97890126454,32939.36347238582,33062.4545291012,33070.635267571844,33101.0112882866,33112.45538144772,33177.34249560148,33312.57054955608,33383.269117268224,33450.592571567606,33570.80025324825,33706.944728725524,33775.385770247674,33843.42448036963,33904.914129366174,33934.66430123619,33997.986793278076,34038.15287806426,34094.70279153619,34130.80085883151,34234.3788426374,34336.481611309246,34398.910033572916,34398.66416438391,34478.817520000644,34556.15455581601,34629.669443329505,34711.58858675821,34847.12956513519,34968.36542706077,35006.67631705717,35016.37697415078,35104.44284730469,35221.40952603931,35331.648329692885,35464.954133624335,35544.50399214077,35616.74483022033,35642.27052238829,35684.35885719763,35781.767759533854,35916.995813488466,36053.43086164366,36138.09926964036,36178.62298233783,36281.19513764323,36459.07032001857,36610.838664870105,36663.07469166216,36714.66251786501,36772.531184259795,36843.52032464985,36872.3540749972,36893.81174967429,37051.50330680649,37165.81012795092,37212.72643956261,37231.16662873824,37303.13924588433,37365.25474372563,37462.77540478414,37562.84416471054,37579.80913875212,37628.06655503113,37712.6008525611,37808.243967085364,37854.62383683012,37924.584796975236,38009.76729509441,38123.940005772114,38188.58125073687,38193.7668554505,38257.5810858704,38314.2427580646,38405.974317309185,38495.35894338595,38564.09055758602,38598.48989230274,38611.81153199811,38650.25653246123,38702.06787610863,38742.12220217255,38736.73543175882,38720.01632690625,38745.921998729944,38777.125033989556,38796.63810689904,38809.557415194206,38815.637089686046,38871.33763686867,38866.35319785514,38897.73504707039,38956.72130068795,38990.45008307101,39008.46558910199,39020.64728983013,38958.24121931091,39003.48115008845,39104.287517581884,39075.409063745625,39025.67643233257,39015.41698162758,38985.443292313015,38994.92043196207,39002.72119077697,39028.82802830077,39074.67145617861,39151.628512338226,39150.35446290427,39164.52546888894,39205.42916124215,39201.07057107337,39169.62166662475,39103.43815129258,39030.79498181283,38923.97599506092,38865.01209318783,38799.990868567336,38755.376786634544,38742.18925740591,38589.057456142604,38438.38434676938,38300.94347011369,38166.63183768175,37987.32614366128,37782.69592317294,37589.06276095662,37330.43072586426,37114.87050233728,36928.993395446945,36687.035761718245,36400.888729201404,36086.62320215979,35747.05550039477,35500.69457300837,35288.21889021622,35072.50220447805,34861.74760600896,34604.81430349521,34308.8995586514,34022.81958136792,33752.452880436525,33500.2581477473,33326.115706696,33113.483561692665,32937.75414678504,32767.38915054669,32570.939668528998,32393.623279765045,32225.04642308312,32075.759121866125,31943.481498179615,31817.797639107426,31677.965125795025,31599.957537646,31544.771080585848,31454.85001264215,31359.519822540264,31287.211929227346,31298.76778111074,31295.504426420266,31268.43646388489,31233.679501256884,31196.41914324989,31203.057611353113,31235.489992557767,31235.46764081331,31268.883498773994,31274.873766288016,31268.36940865152,31263.4296731269,31280.439350657387,31320.80660114367,31349.707406724385,31459.812099911225,31578.119883313168,31617.146029132135,31676.46755891652,31816.25536874001,31917.017032744534,31992.431818536737,32111.231340316695,32201.778257105147,32342.281322751205,32507.61717648711,32628.808334923786,32684.37477163968,32774.005266905464,32926.265350135014,33049.42346208375,33131.56612295701,33204.5892720925,33314.91748272389,33441.47305982984,33572.789558504766,33693.1537023966,33749.502450168424,33764.43341546457,33814.79189572238,33868.10080624829,33999.59611887886,34135.494725167126,34288.55947119707,34434.628121212496,34494.66490681945,34494.463741119354,34503.11386622356,34527.16434325747,34530.71827062586,34564.62586696457,34612.14567567655,34733.60505504669,34826.45420151403,34894.068228491335,34958.97769438955,34959.804708934396,35023.79775330994,35098.698448979674,35135.28825465301,35166.379531190345,35187.88190935635,35241.83902047146,35301.1829020003,35322.975852844225,35370.85328946749,35516.07257319362,35625.7078797469,35738.40537529056,35823.6549286431,35892.40889458763,35970.751758903476,36025.66999503017,36090.646516161745,36120.10611535384,36150.43743257969,36245.275884303555,36342.103641283946,36433.321110406054,36508.71354445381,36629.10004009009,36704.35836367111,36716.07067776569,36704.40306716002,36698.233985690356,36719.44579117844,36802.102542174165,36869.783624384836,36966.87960229869,37029.75505945147,37090.507100881,37106.66741212218,37180.182299635686,37313.286937867044,37388.96994459271,37411.18757858129,37414.96502339423,37452.87358199043,37477.12522472444,37456.27104714764,37476.67818983534,37577.01517069521,37577.05987418412,37635.82261035712,37681.62133474604,37727.80003879071,37703.45898907888,37666.37744502752,37701.134407655525,37777.4656149704,37846.3313396372,37894.164072771564,37952.41271882209,37990.500091373935,38000.491321145455,37959.65468402561,37921.16498007357,37961.062843926295,38022.731306878486,38068.53003126741,38104.71750554055,38147.54344791692,38171.705683673106,38171.23629703955,38133.5512558879,38103.197586917595,38118.575587102845,38095.17331065814,38151.432651452145,38198.818349697394,38166.45302372611,38169.26934352748,38192.20223333863,38210.73182949208,38208.27313760199,38260.822088816414,38328.30200532699,38313.21457781966,38308.45365625068,38310.51001674056,38324.50220876959,38327.40793554878,38255.86000154734,38252.037853245485,38250.87556253381,38223.96406220962,38250.51793462252,38292.18158628721,38332.52648502904,38388.24938395612,38409.260023744115,38398.95586955021,38325.44098203671,38301.949298614185,38355.52643007355,38363.01426446608,38346.11634565787,38347.34569160291,38301.85989163636,38288.158272285254,38273.67434187822,38169.69402667213,38115.11106671227,38046.29004553438,38008.56030089382,37960.727567759466,37882.764683099354,37811.730839220385,37688.639782505015,37549.94720815983,37389.23816552617,37217.53206462051,37048.41876607165,36816.05003071428,36554.780489776196,36313.158132214325,36081.482300935066,35824.705460632504,35557.13272775802,35275.23252668769,35024.043622498946,34808.77397164988,34586.329410830665,34325.59631175951,34019.42211621071,33761.55004042984,33511.83635137515,33275.10902584899,33096.18331148426,32936.390690373264,32720.741059868466,32475.028333071274,32316.755630583244,32203.097010028006,32052.7144733327,31902.68956454868,31768.735560028024,31633.283988628864,31541.284208450823,31431.738308875363,31352.747243970305,31296.107923520558,31232.02547216719,31195.45801823831,31192.97697460377,31148.072319993058,31120.356156868478,31116.73517426672,31169.75351211471,31164.54555565662,31154.442567162823,31182.203433776314,31237.3228356031,31306.702650392373,31394.723820057374,31415.376831934078,31398.993003248335,31449.776166650794,31517.256083161366,31530.197743200988,31592.670868953574,31729.84352467579,31800.29622319892,31877.745017736557,31948.55534417097,32045.271342429085,32172.944506757798,32349.053901321164,32426.189771436428,32534.5286768113,32671.500166833423,32777.58154601831,32899.71147772211,33008.94445287519,33108.32030872349,33231.43371718332,33325.62396831798,33419.344832819086,33546.861534936615,33640.02360582633,33733.00686276041,33827.487686573,33890.07257104785,33941.973321673075,34025.56884593592,34128.8562570639,34199.37601082039,34263.72668310722,34342.002492189706,34376.401826906425,34465.85350821656,34558.47913723936,34653.11642326313,34733.917979469064,34823.23555031247,34829.80696318233,34794.20063426503,34849.968236681016,34868.766053767926,34833.83027718429,34895.52109188093,35015.34879390583,35090.42830353121,35184.86442385488,35202.231729296655,35243.11306990541,35325.70276566777,35382.99028670672,35368.52870804414,35419.04365051314,35468.84333715956,35529.52832335571,35600.27159455676,35695.8253021032,35741.06523288074,35830.718079890976,35918.11340071123,35935.30189219736,36001.26189008497,35991.98591613602,35955.55257267387,36027.68165203115,36142.34610108687,36277.015361430094,36379.63222022441,36410.63408978392,36421.452334100286,36501.04689610564,36555.048710709656,36622.036888842216,36659.006674171294,36734.779087874784,36810.37268762263,36857.71368237897,36920.90206395413,36953.13327945868,36991.71239038854,37013.930024377114,37040.215675856554,37077.252516419,37065.38374011323,37032.86195193076,37055.63837953072,37134.85296188032,37202.24347141307,37283.089731107924,37375.6706566418,37466.01640773015,37495.252489477694,37514.854969365,37526.47787648176,37522.85689388,37513.67032690887,37549.54487675964,37604.73133381979,37643.623369172026,37666.466852005346,37712.399686861005,37693.870090707554,37728.828219035655,37771.274181756286,37750.42000417948,37733.231512693346,37787.7697691643,37797.537481491265,37827.31000510573,37825.34305159367,37796.777522179786,37823.86783645962,37864.72682532392,37839.24583664487,37844.69966229197,37884.12813951113,37883.97167729994,37873.66752310604,37876.34973244068,37917.54399747181,37882.71997961045,37824.739554493375,37809.69683047495,37838.95526396695,37845.34786288117,37815.664746244525,37835.62485404311,37816.73762997838,37797.78335068028,37808.422781041,37836.563627310235,37843.760889024845,37854.08739496319,37897.78505537332,37912.53720671382,37914.45945673698,37908.290375267316,37859.34005491019,37832.16033365254,37780.39369349405,37710.81271300468,37704.88950072402,37758.44428043893,37755.873829826574,37721.340384643125,37687.96923017135,37647.26670351824,37607.458246643335,37538.14548708743,37449.69963427778,37405.30906978954,37380.96802007771,37299.652373749304,37250.09855629189,37232.66419561675,37124.48175245306,37019.383850024205,36914.2635958509,36772.28531507079,36616.02426958374,36448.63205535794,36230.00964284058,36008.280337843935,35795.37997190714,35584.53596646023,35320.5395126986,35044.13784076427,34870.598896813266,34635.5256003768,34366.27648666817,34071.90401219178,33800.37502054871,33536.289159809254,33277.59006948353,32998.908519614764,32793.00424969247,32579.746255844388,32375.69718071189,32236.66933019988,32084.342191736963,31942.40861444576,31809.527493658963,31641.64354105515,31514.529170337817,31431.537143175265,31335.15642108398,31274.04675174317,31223.576512763088,31196.12857057197,31094.763409467152,31018.47690564119,31015.23590269517,30975.539204542543,30946.638398961833,30910.003889799584,30903.097200762895,30970.107730639906,30981.6635825233,30924.26430276207,30886.73572382161,30925.091317306917,31015.79469630655,31084.146330850883,31139.578657100043,31222.79420170715,31325.94750236839,31370.047494178714,31420.160105247513,31481.113312377136,31566.72049364096,31664.732893077482,31775.73165604254,31868.804319954437,31973.701056683192,32089.125465050398,32185.640297608414,32297.130798951486,32453.727120605367,32574.44889240848,32654.98222768095,32715.71191736602,32754.29102829588,32808.315194644354,32874.00697159851,32955.92611502721,33073.563346095485,33216.458048398265,33302.244043617735,33379.5810794331,33472.318467178164,33581.99847722035,33642.10231806068,33640.13536454861,33657.81559441276,33694.651269275106,33799.12332285921,33850.10765196176,33859.070701488345,33861.97642826753,33888.17267276915,33976.12678720079,34094.591032813914,34111.98069000014,34118.68621333673,34117.54627436951,34140.43446069175,34178.208908821216,34169.64819069483,34182.50044375664,34187.86486242591,34235.36231939344,34308.094895851005,34384.98489677726,34409.08007730008,34435.455135757344,34499.895215022,34532.64052064902,34559.3061517842,34601.68505927146,34642.16406848002,34679.64794393157,34717.82472346124,34746.05497670829,34764.85279379521,34836.44543128555,34966.644342737716,35017.65102358473,35033.07372725889,35047.98234081058,35091.076504120414,35129.9908912171,35239.67090125929,35343.85238216548,35427.64907212843,35467.92691563689,35457.958037609824,35499.50993055224,35571.5943064206,35667.34917966714,35804.09715224471,35857.13784183715,35894.01822018841,36003.87704418624,36083.40455095823,36125.91756891222,36136.82522020641,36207.948471063195,36296.14845468384,36347.33394948649,36409.27063337214,36438.663177330876,36500.2645850497,36549.34901587356,36607.77647587973,36637.59370298311,36686.476968106865,36703.68781133745,36759.99185562037,36832.97030126695,36853.57860965474,36882.59117395773,36883.14996756911,36883.82051990277,36882.81469140228,36952.88741026967,37065.875478491245,37105.0580865214,37105.929804555155,37058.83467898783,37021.6413762142,37034.85125718728,37109.12610401226,37122.44774370763,37086.1038072233,37083.37689439975,37128.303900754916,37152.6673022112,37201.37175337932,37233.446506672684,37207.518483104526,37183.602116537346,37185.211442138134,37235.122887506834,37295.450245791704,37344.19940044873,37361.7678715906,37326.76503977359,37347.73097607267,37356.15758373232,37318.78546700304,37290.46580677817,37263.33078900943,37342.858295781414,37410.248805314164,37398.558842964034,37388.74642714816,37356.04582501004,37283.96144914168,37210.64772732827,37103.31465045389,37005.056381828355,36954.295570170354,36825.08013547422,36746.69256766946,36614.750220149785,36374.98305737771,36119.05558336444,35943.125002756715,35750.85529695217,35551.27657071073,35313.63282366191,35046.88710533227,34804.79536113684,34586.48587304186,34358.96746623128,34132.14196349883,33848.40891938316,33554.55053502924,33315.677442035376,33120.971396085195,32943.76676604352,32740.14237405567,32504.934967152476,32292.19106342686,32118.518009009127,31958.971257087145,31797.569310375373,31637.910799731115,31510.394097613585,31345.39352004451,31176.4590354513,31070.42235975532,30946.973675128662,30832.48804002858,30759.934277526652,30772.071274765884,30843.596857022865,30840.66877849922,30797.23933902256,30788.388048218258,30777.480396924067,30772.965344544096,30745.003312230507,30738.633065060745,30805.397725748746,30856.560868806944,30928.3993754863,30943.64326520482,30855.68915077319,30820.015766622517,30911.724974122644,31008.284510169568,31127.799287772097,31249.45983284233,31315.889217363503,31401.65286083852,31534.15400196958,31637.240247397454,31706.910634864646,31829.420546224184,31995.270490082563,32130.856171948457,32204.952204817797,32311.994709014263,32397.490131555813,32461.907859076007,32562.7365783139,32695.416533400603,32816.89826451519,32910.57442552739,32980.69184788369,33066.857822758895,33146.36297778642,33266.168328066866,33343.88534353797,33391.159283060944,33528.84602890564,33636.536733691304,33707.503522336905,33783.11947382921,33889.04439080291,33963.766272517,33995.885729299276,34045.797174667976,34150.47039395218,34288.22419503024,34353.111309183994,34395.959603304815,34426.11210657503,34411.24819651225,34377.89939378493,34356.44171910783,34401.48048418528,34458.99152266878,34525.64442463451,34602.13209416057,34649.316626705724,34706.06770587775,34764.808090306295,34819.45810549952,34854.95267569455,34913.06721127835,35004.99993622302,35042.75203260804,35063.248582273554,35134.17066743025,35263.7213782932,35317.36556498594,35356.77169046065,35431.69473787484,35503.93557595439,35513.36801211453,35577.85279486809,35650.227743414376,35655.30158940573,35685.521147909305,35742.24987533687,35824.12431527666,35895.40402834464,35968.650694924676,36038.924579492166,36055.062538988896,36128.756240458046,36197.26433721356,36239.553837723,36245.342939536924,36306.89964376684,36368.8363276525,36451.56013388159,36551.338321130075,36575.09822548607,36600.51215893176,36620.002880096785,36716.40595393252,36815.33477489171,36790.47963505741,36834.78079256783,36916.610529018704,36959.86115453973,36987.75613161995,37045.37892882573,37095.938574783635,37117.10567678281,37106.04156327743,37148.33106378688,37228.08208800341,37297.216033603676,37343.79706904854,37341.316025413995,37363.8689355694,37409.95823263624,37433.31580559204,37431.080631146506,37442.480020818715,37453.387672112905,37490.40216093089,37521.895768868424,37537.92196964288,37555.378682062474,37591.34263889106,37618.075325259604,37608.55348212165,37620.176389238404,37606.85474954305,37616.60011012556,37647.78079364071,37665.416320015946,37635.286168490195,37576.81400499511,37526.634338692944,37505.08725703803,37500.59455640252,37522.36515550198,37538.79368767663,37598.450493627846,37654.8886483775,37676.189860843406,37673.93233465342,37618.365897937525,37568.23093512427,37544.560437746106,37548.80726919261,37526.67904218186,37515.16789378737,37517.71599265528,37518.0065653332,37523.013356091185,37534.23393180775,37542.97346388978,37584.748874276745,37532.803420162614,37519.95116710081,37541.677062711366,37520.71112641229,37523.68390842485,37491.00565803119,37447.39740459888,37387.78530213658,37297.350144070406,37211.497093617574,37165.83247969538,37085.522661867464,36981.36353270573,36876.46679597697,36755.633265451586,36588.35280994807,36401.805150724074,36194.64918311229,35947.55064815887,35717.2829767803,35499.66639276343,35229.143229620844,34935.84363887831,34670.10374904916,34403.13451327497,34138.355748457405,33901.42725723115,33647.28792277431,33439.886085973514,33259.529859963644,33009.525598231034,32726.99954831595,32498.967051382908,32294.023906472197,32089.68425866178,31942.721538868136,31743.031053904422,31550.00138878839,31383.235023407346,31286.697839104872,31177.17429127387,31024.981263277685,30948.515945496078,30907.724011865143,30857.76786300753,30794.75829538802,30713.152076381695,30679.892680632198,30681.83728239981,30678.88685213171,30677.07636083083,30642.319398202828,30636.463241155536,30654.992837308986,30649.986046550996,30585.657726008623,30563.52949899787,30617.576017090803,30621.375813648203,30663.039465312897,30729.670015534168,30777.659210879712,30838.366548820326,30938.12238432436,31031.44091742527,31099.25611010267,31226.258722097722,31357.06113065018,31453.50890797483,31509.455324346465,31556.43869119152,31677.965125795025,31805.995918035023,31918.31343392294,32032.687310300746,32111.8795409059,32202.851140839,32334.234694747294,32490.406333256524,32587.569366403746,32647.315579332782,32756.928534141607,32793.47363632603,32842.848639827804,32961.31288544094,33099.33490745245,33235.36762420745,33330.09431720905,33324.260511906214,33386.59952719206,33480.34274343762,33537.74202319885,33643.21990528344,33690.53854829533,33736.40432791762,33804.957128162045,33914.10069633731,33967.364903374306,34056.12368060633,34045.59600896788,34048.07705260242,34109.36553589887,34123.78241107254,34147.49761193962,34168.75412091662,34223.515894832126,34278.657648403365,34291.21932878725,34315.98506164373,34428.257874042734,34509.998203515795,34534.42866020544,34609.530521575274,34746.94904648651,34782.35420970371,34831.10336436074,34876.29859164936,34943.95732211558,34993.60054655082,35083.387504027785,35142.70903381217,35170.78282484804,35208.91490088879,35233.79239246755,35246.37642459589,35264.14606143785,35361.95729517428,35384.44315009632,35415.57913012256,35510.75285801326,35648.19373466894,35717.43943899148,35715.517188968326,35813.61899538267,35929.89277003917,36021.13259090574,36071.75929209701,36161.68036004071,36222.208884025684,36258.86574493239,36277.28358236356,36335.28635922508,36410.276461872636,36436.67387207435,36432.136467949924,36474.49302369273,36522.75043997174,36635.649101215495,36679.63733430354,36695.17179669998,36722.060945279714,36754.18040206199,36830.8915890326,36898.505616009905,36903.333592812254,36914.19654061753,36994.97574507901,37027.363422794755,36997.21091952454,37028.07867861732,37049.08931840531,37066.233106402535,37077.43133037464,37059.371120854754,37072.33513263883,37102.28647020894,37197.862529499835,37294.73498996913,37285.23549857563,37318.897225725326,37362.572534390994,37378.799900865546,37435.416869570836,37444.13404990841,37451.778346512125,37467.648085075394,37442.92705570782,37426.476171788716,37462.685997806315,37509.89288209592,37470.62086708795,37485.41772191736,37529.00362360521,37549.45546978182,37550.50600177122,37530.79176316164,37500.61690814697,37511.681021652344,37518.72182115577,37468.9444862538,37439.12725915042,37420.75412520816,37426.78909621109,37408.706534946745,37328.597882818925,37312.21405413318,37380.476281699695,37425.20212235476,37408.19244482427,37361.5667058905,37330.78835377555,37421.49173277518,37443.93288420831,37430.61124451295,37464.720006551746,37469.525631609635,37412.70749720425,37343.975883004176,37314.58333904545,37300.993478416625,37277.85942290538,37215.11807621933,37211.69825931767,37224.66227110175,37191.3805236078,37133.71302291311,37138.87627588228,37110.9589470576,37055.034882430424,36971.10408200075,36869.89538310711,36811.51262658985,36706.325317183175,36598.50050193078,36499.63873620495,36341.81306860603,36082.55518466892,35852.175754568074,35623.33859483464,35393.56266183408,35152.163821716764,34876.52210909392,34560.02140760677,34362.342579644035,34160.23810627915,33863.809271312864,33633.7874691233,33387.71711441483,33164.19966986176,32916.74350699705,32629.523590746358,32412.979890463343,32214.295234000117,32035.593037079936,31889.189110897674,31731.743422954492,31567.458101207987,31393.092142712136,31201.42593400788,31023.349585932447,30866.641505556287,30713.755573481987,30629.40008990766,30568.424531033583,30485.298393404293,30383.30738345473,30312.653519231502,30289.832388142633,30263.569088407647,30243.11724223104,30228.32038740163,30247.185259721908,30292.8498736441,30346.047025447733,30372.91382228301,30352.73019703987,30312.98879539833,30260.976286050834,30309.7030889634,30408.83307562269,30444.819384195733,30511.159361739086,30613.128019944197,30705.686593733622,30792.791341875953,30883.65118308678,30941.452794248202,31038.481716928687,31143.423157146357,31240.4744315713,31342.376034543042,31452.61483819662,31564.753540128895,31633.127526417677,31701.814437128836,31799.648022609716,31896.11815167882,32015.051783925508,32157.924134483834,32248.448699527828,32298.38249664098,32340.49318319478,32437.56680936418,32561.30606666876,32662.023027184372,32750.915914883128,32795.8429212383,32864.64159067173,32925.84066699036,33023.54014200451,33103.000593543125,33154.119033112416,33156.555373258045,33147.592323731464,33212.43473439631,33280.361685795986,33354.56947738761,33491.11628426508,33598.13643671709,33638.168411036546,33717.96413874199,33722.07685972177,33672.277173075345,33716.51127535239,33734.68324359456,33769.01552307791,33819.21754112453,33851.582867095814,33917.52051323897,33930.0598418784,33926.43885927664,33956.21138289111,34002.47949391359,34091.88647173482,34147.36350147289,34171.212812806705,34193.40809505083,34174.61027796391,34215.893949972866,34245.15238346486,34287.21836652975,34388.40471367892,34420.59122569457,34468.26749661774,34520.68233736543,34571.08552111215,34609.35170761964,34638.677196345,34722.56329328576,34781.594250392234,34822.073259600795,34944.15848781568,35028.849247556835,35085.64503021778,35150.53214437153,35232.5183430336,35270.71747430771,35283.2791546916,35319.44427722028,35360.9961701627,35415.08739174454,35467.613991214515,35534.49041062479,35592.247318297304,35668.71263607891,35716.09833432416,35782.773588034346,35875.68978973506,35934.27371195242,35948.71293887054,35923.0307844914,35967.06372106835,35993.88581441472,36030.40856485469,36064.986713527054,36118.742658942065,36230.36727075187,36286.33603886796,36344.87525759641,36385.242508082694,36353.34656874497,36339.08615578248,36359.3815397479,36424.13454343493,36517.117800369,36529.76888773071,36572.12544347352,36599.21575775334,36570.225545194815,36635.06795585966,36670.24960163231,36648.54605776621,36703.48664563736,36721.74802085734,36691.55081409822,36688.712142552395,36712.98613703086,36753.398091006056,36824.56604535175,36768.39611153556,36726.464238937406,36738.80240187674,36748.54776245925,36687.92983149646,36655.94448518092,36686.83459601815,36700.536215369255,36728.74411687185,36743.78684089027,36744.010358334825,36725.905445326025,36726.955977315425,36764.86453591163,36782.94709717597,36759.924800387,36744.90442811304,36799.0850566727,36849.55529565278,36891.28600255084,36895.26461306389,36902.998316645426,36895.219909574975,36856.216115500465,36742.266922267314,36724.3184714697,36762.00351262135,36748.145431059056,36746.29023626927,36767.68085571299,36793.07243741422,36788.065646656236,36790.21141412394,36781.762454719836,36797.766303749835,36801.32023111823,36746.379643247084,36760.9753323764,36730.71107038392,36711.913253297,36689.561508841696,36660.191316627424,36627.31190053367,36598.09817053058,36544.632797793485,36450.17432572536,36379.81103418005,36307.70430656723,36227.77446839505,36087.517271938,35916.03468847689,35753.0904713977,35540.34656767209,35350.22262933524,35097.06677163443,34820.48628574447,34585.88237594156,34351.81490800559,34128.789201830536,33890.51960593696,33700.9544612115,33531.03649986225,33281.52397650766,33020.88028441433,32790.54555780239,32603.148532289095,32358.911020625954,32130.833820204,31970.28123978153,31818.423487952172,31596.962403888992,31410.25828245381,31256.05359745665,31210.679556212373,31132.023767474147,31004.90939675682,30904.77358159704,30823.39088003527,30730.586437056834,30704.881930933232,30705.574835011346,30695.36008779527,30628.662482340635,30602.287423883372,30584.920118441598,30596.29715636935,30630.96471201953,30665.207584525062,30698.8469599303,30745.360940141793,30811.90208338524,30852.470499571624,30944.09030009393,31019.48273414168,31081.464121516245,31135.488287864722,31186.98670708975,31254.153699177947,31359.989209173826,31487.95294618046,31539.943103783502,31574.38714198913,31625.907912958613,31712.386812256198,31847.97249412209,31945.9401900697,32032.039109711543,32150.97274195823,32249.029844883666,32320.041337018174,32393.064486153664,32493.267356546803,32533.366386099624,32569.173880717026,32609.11644805866,32746.512621225433,32883.03707635845,32970.61121113434,33060.420520355765,33070.702322805206,33085.8568055459,33154.4766610237,33248.71161564727,33291.71637197928,33309.95539545482,33328.2167706748,33368.449910694355,33461.209650183875,33509.243549018334,33535.81977317569,33571.33669511518,33618.14124800459,33656.38508276762,33708.621109559674,33742.30518845382,33785.8240349083,33810.768581720426,33795.47998851299,33860.23299220002,33867.63141961473,33857.595486354294,33836.5848465663,33843.98327398101,33891.748951882,33901.87429212026,33918.25812080599,34013.364793463326,34127.78337333004,34180.06410361101,34257.84817431548,34303.468084748754,34330.044308906115,34394.46203642631,34484.85249100358,34532.7522793713,34582.12728287307,34620.52757984729,34642.36523418012,34683.157167811056,34741.02583420585,34782.17539574807,34874.95748698205,34954.686159454126,34957.971865889056,34974.8027294639,35047.15532626573,35102.43119030371,35123.0394986915,35207.77496192157,35321.47828596572,35380.55394656109,35437.93087457787,35468.88804064847,35538.24550369329,35635.67675777397,35645.48917358985,35654.72044404989,35688.56098515523,35729.10704959715,35795.357620162686,35824.705460632504,35853.785080168855,35894.57701379979,35957.89950584168,36007.095695387805,36055.822498300375,36102.42588548969,36138.79217371847,36106.76212391402,36087.651382404736,36111.38893501627,36141.29556909747,36231.149581807804,36280.70339926522,36381.889746414396,36496.57654721457,36506.366611286,36459.15972699639,36436.29389241861,36438.77493605315,36421.6982032893,36412.89161597391,36490.18394830036,36543.448155337355,36575.20998420835,36617.566539951156,36631.51402849126,36648.18842985493,36594.63365014001,36532.00406217624,36539.0225099352,36587.0340570252,36694.30007866622,36757.644922452564,36798.48155957241,36784.1317396321,36732.70037564044,36703.15136947052,36659.274895104754,36628.13891507851,36647.00378739879,36640.00769138428,36584.821234324125,36587.346981447576,36653.262275846275,36647.339063565625,36614.414943982956,36597.11469377454,36576.57344062012,36571.65605683995,36549.77369901821,36533.881608710486,36578.62980111001,36656.88325844804,36684.28649715024,36682.96774422738,36693.45071237692,36694.12126471058,36638.800697183695,36612.67150791544,36606.54712993469,36592.77845535022,36576.014647008735,36537.61435003452,36571.678408584405,36620.136990563515,36598.27698448622,36496.91182338141,36417.78664800962,36413.51746481865,36450.44254665882,36505.98663163026,36558.133251444495,36555.13811768748,36521.58814926007,36483.053741819116,36455.22581997226,36417.808999754074,36408.62243278294,36415.14914216389,36402.27453735763,36387.544737761586,36362.734301416196,36310.431219390775,36211.5471019205,36154.39369134828,36127.10221136835,36079.82827184538,36010.42610531165,35903.6741737931,35731.6327967206,35543.65462585147,35363.656027752884,35162.937362544224,34939.71049066907,34706.24651983339,34483.086703191606,34247.54402012158,34017.477514443104,33799.436247281585,33519.99473810133,33301.10410465051,33094.64104111684,32861.5570499369,32609.98816609242,32296.661412317924,32020.28209212805,31749.870687707746,31462.002570867848,31187.567852445587,30954.617971732376,30748.5572395989,30589.792798732855,30415.270378025816,30190.30007008315,29995.951652044256,29883.34356347842,29798.585748503894,29724.445012145643,29629.271284254944,29518.74190792345,29470.5068433889,29430.273703369345,29383.67031618003,29374.304935253258,29392.454551750965,29406.647909480085,29377.18831028799,29403.831589678717,29390.509949983356,29379.781112644807,29403.988051889904,29398.601281476174,29417.30969158527,29482.64384062813,29539.149050611148,29539.283161077878,29556.114024652725,29580.52212959792,29596.28010943891,29659.37908403624,29772.90359412475,29874.067589529466,29914.524246993573,29965.866204007412,30068.393655823907,30178.96773564431,30286.9490131079,30414.95745360344,30550.274914535872,30624.102726471752,30674.6400206852,30794.735943643565,30920.106878293383,31075.652667957864,31217.85446618253,31358.69280799542,31465.355332536143,31543.966417785457,31688.090466033278,31890.59727079836,31965.095635067897,32019.186856649743,32075.803825355033,32105.21872105822,32196.547948902604,32286.133740679474,32408.777762505742,32433.588198851136,32461.19260325344,32523.68808075048,32607.037735824317,32752.771109672918,32907.601643514834,32989.81135962145,33034.60425550988,33036.59356076641,33059.97348546666,33112.76830587009,33169.74290248667,33201.12475170192,33184.22683289371,33205.17041744833,33271.44333975832,33329.31200615311,33353.54129714266,33361.31970421311,33415.500332772775,33541.38535754506,33575.94115447297,33586.46882611142,33636.64849241358,33714.499618351416,33765.528650942884,33847.827774027326,33956.56901080239,33972.21523192111,33981.20063319214,34025.18886628019,34114.5511406125,34245.510011376144,34360.75560578771,34384.716675843796,34402.66512664141,34465.808804727654,34537.58025617364,34629.691795073966,34699.585699985706,34846.57077152381,34927.46173470756,34965.794976448415,34979.07191265487,34977.86491845428,35005.13404668976,35078.44776850317,35124.358251614365,35119.463219578654,35190.22884252416,35224.58347375196,35276.10424472144,35403.017449738676,35581.0490943252,35625.394955324526,35588.31341127317,35659.660179574515,35754.47627955393,35825.73364087744,35845.5596382093,35927.21056070454,35955.26199999595,35988.230823067526,36017.13162864824,36019.88089321624,36045.29482666193,36127.37043230182,36192.63752611131,36213.71522113267,36245.499401748115,36353.59243793398,36418.233682898725,36461.26079097519,36499.325811782575,36590.45387392687,36656.145650881015,36648.88133393304,36622.70744117587,36624.76380166576,36594.43248443991,36524.04684115015,36528.74070748576,36568.97384750532,36669.75786325429,36733.88501809657,36756.57203871871,36812.607862068166,36880.44540649002,36882.94880186902,36822.91201626206,36863.39102547062,36882.859394891195,36918.39866857513,36923.78543898886,36959.65998883963,36969.472404655506,36925.03713667836,36934.15664841612,36915.224720862476,36888.447331005016,36879.66309543409,36910.396744060134,37041.556780523875,37132.90836011271,37172.09096814287,37153.82959292288,37099.60426087431,37050.0951469058,36992.56175667784,36963.92917203059,36975.73089310299,36987.577317664305,36982.10114027275,36935.497753083444,36902.93126141206,36928.12167741319,36900.22670033297,36946.11483169971,36995.534538690394,36996.89799510217,36956.62015159371,36922.86901746619,36914.30829933981,36896.09162760874,36938.582293818276,36901.63486023365,36862.67576964805,36850.2481997309,36816.027678969826,36848.63887413012,36868.42016797306,36878.366694255674,36830.95864426597,36755.92383812951,36710.75096258533,36700.08918048014,36713.254357964324,36662.4041393285,36638.376014039044,36655.20687761389,36607.99999332428,36534.06042266612,36492.754398912715,36492.486177979255,36532.51815229871,36589.313934959646,36603.01555431075,36540.69889076935,36513.36270730051,36521.09641088205,36498.31998328209,36479.56686968409,36459.003264785206,36424.514523090664,36405.73905774821,36360.09679557047,36216.3974304673,36109.19846405965,36017.28809085942,35875.24275484595,35778.079721698734,35594.013106109276,35389.0029059652,35166.91597305727,34926.90294109618,34674.4846909624,34371.4620913818,34096.6473933038,33858.735425321516,33573.43775909398,33331.21190443181,33058.27475288806,32781.09076989779,32465.75235912232,32206.673289140857,31991.783617947534,31765.360446615276,31519.491257606896,31300.84649334508,31095.3892583119,30847.642522769278,30653.20469775256,30453.000122666377,30246.02296901023,30084.330449620542,29915.30655804951,29763.18058528669,29612.887455569205,29530.70009120704,29459.286267672334,29396.52256924183,29325.354614896136,29256.26537278478,29225.330558458634,29177.81074974665,29191.11003769756,29200.676584324432,29231.63375039503,29250.699788415408,29243.860154612084,29194.552206343677,29169.71941825383,29237.244038253313,29303.114629163105,29386.643098192588,29475.513634146886,29549.117928638214,29619.592978905795,29676.567575522375,29762.3759224863,29854.44275789771,29939.871125205893,29990.296660697066,30065.465577300263,30190.702401483348,30323.069432147677,30439.41026203755,30560.24379256294,30681.41259925516,30748.892515765732,30797.127580300283,30908.439267687714,31077.261993558648,31232.159582633925,31336.25165656229,31430.84423909715,31527.940217011004,31607.043040638335,31660.374302908698,31780.87255726726,31956.490213452606,32064.650304871837,32083.045790558554,32115.612282229937,32172.631582335423,32285.99963021274,32425.56392259168,32553.50530785386,32638.441936784024,32665.68871327504,32647.65085549961,32700.89271079215,32795.28412762691,32884.668753703685,33009.83852265341,33108.29795697903,33161.24923959366,33136.95289337074,33152.42030053381,33242.76605162216,33281.79219744113,33282.50745326369,33292.34222082403,33322.67353804989,33359.33039895659,33397.4848267418,33465.05415023019,33531.68470045146,33632.40166096707,33703.033173445845,33733.990339516444,33735.465554650495,33777.129206315185,33824.40314583816,33891.68189664864,33976.77498778999,34041.01390135454,34058.5376690075,34070.182927868715,34126.77754482956,34174.14089133035,34165.401359248324,34210.88715921488,34317.48262852224,34417.97607159329,34463.841851215584,34533.26636949377,34575.1088351141,34676.80927238575,34778.39795093512,34866.01678919992,34929.495743453,34986.02330518047,35042.30499771893,35093.669306477226,35138.59631283239,35219.2637585716,35339.270274552146,35400.983440993245,35444.34582523654,35502.415657331425,35571.32608548714,35602.126789346556,35615.02374589726,35670.65723784653,35734.69498571098,35837.80358288331,35906.44579010556,35981.90527938667,36013.108314646284,36067.19953622813,36144.469516810124,36177.8406712819,36257.05525363151,36347.64687390887,36368.70221718576,36415.864397986465,36453.63884611593,36489.200471544325,36520.76113471522,36509.65231772093,36458.06449151808,36494.96722161379,36488.0605325771,36487.166462798894,36511.03812587716,36525.27618709519,36529.90299819744,36569.26442018324,36669.26612487628,36735.40493671953,36796.447550826975,36800.649678784575,36778.968486662925,36751.162916560526,36850.29290321981,36877.71849366647,36821.21328368346,36853.980941054935,36957.40246264964,36976.58025939229,36953.6250178367,36936.50358158393,36923.606625033215,36913.57069177279,36861.468775447465,36838.871161803145,36809.590376566695,36790.81491122424,36843.699138605494,36877.24910703291,36881.36182801269,36868.308409250785,36867.86137436168,36892.06831360678,36885.96628737048,36819.60395808268,36785.98693442189,36726.57599765968,36654.08929039112,36674.83170924565,36741.10463155564,36754.94036137347,36721.94918655744,36676.46338659088,36688.712142552395,36750.64882643805,36801.275527629325,36806.08115268721,36737.595407676155,36663.16409863998,36610.838664870105,36620.04758358569,36626.1943133109,36588.55397564817,36557.932085744396,36544.40928034893,36522.32575682709,36515.955509657324,36494.5648902136,36483.63488717495,36446.03925300112,36423.30752889008,36448.76616582467,36454.82348857206,36508.914710153906,36490.31805876709,36477.443453960834,36483.43372147485,36435.846857529505,36399.14529313389,36341.14251627237,36296.37197212839,36248.87451516086,36244.73944243663,36173.6385433243,36043.663149316686,35936.30772069785,35846.67722543207,35710.10806681014,35601.635050968536,35434.01931929819,35220.29193881654,35015.237035183556,34798.49216920044,34563.84355590863,34352.7089777838,34136.09822226742,33888.575004169346,33630.948797577475,33390.42167549392,33144.597189974455,32933.9767019721,32700.937414281063,32420.75829753379,32127.481058535705,31938.02767253252,31767.886193738723,31555.499917924397,31347.025197389747,31148.58641011553,30982.580004045965,30763.667018850687,30549.537306968847,30386.861310823122,30271.12397803354,30167.277773294187,30061.531670276127,29987.03330600659,29900.196778797723,29859.80717656698,29849.1453944618,29853.459281141673,29851.20175495169,29824.62553079433,29794.338917057386,29752.31763748141,29750.484794436074,29817.562379546453,29932.942084424747,30009.04977429507,30021.499695956674,30083.302269375596,30169.289430295164,30235.718814816337,30336.592237543136,30356.8652697641,30421.77473566231,30473.094340931697,30556.24283030544,30688.632212714223,30795.361792488315,30886.422799399235,30963.961000914696,31096.328031579025,31280.551109379663,31435.024015310293,31532.254103690877,31595.82246492177,31631.36173860571,31753.223449376044,31910.915006508236,31988.0508766235,32109.48790424918,32179.65003009439,32216.016318323174,32301.802313542645,32465.90882133351,32509.360612554625,32533.835772733186,32587.144683259095,32641.28060832985,32743.38337700169,32853.488070188534,32908.22749235958,32916.050602918935,32891.32957355137,32945.66666432222,33000.29432777099,33035.900656688296,33131.49906772364,33210.89246402889,33245.67177840135,33274.9525636378,33292.56573826858,33281.76984569667,33380.31868700012,33506.62839491706,33526.67790969347,33530.634168462064,33491.71978136537,33514.87618862107,33543.03938663476,33592.10146571416,33637.49785870288,33648.04788208579,33672.053655630785,33701.08857167823,33746.082633266764,33735.84553430624,33763.60640091973,33829.924026718625,33880.863652332264,33961.93342947167,34026.59702618087,33995.885729299276,33937.637083248745,33966.47083359609,34016.47168594261,34056.72717770662,34118.03801274753,34178.25361231013,34253.46723240223,34254.20483996926,34290.30290726458,34335.07345140856,34388.963507290304,34455.63876100049,34476.04590368818,34511.16049422747,34540.37422423056,34595.493626057345,34677.18925204149,34746.5020115974,34768.07144499677,34774.173471233065,34835.55136150734,34915.99528980199,34997.892081486236,35060.23109677209,35103.21350135964,35135.690586053206,35181.891641842325,35220.71662196119,35255.38417761138,35354.38005380393,35407.554853863105,35393.45090311181,35416.62966211196,35419.91536854689,35460.23791554426,35492.849110704556,35585.56414670517,35626.33372859165,35623.27153960127,35631.58638853865,35676.24517396035,35730.09052635319,35738.49478226838,35791.848396283196,35875.75684496842,35940.95688354455,35973.85865138276,35969.3883024917,35955.083186040305,35906.8257697613,35929.80336306136,35966.37081699024,35973.5904304493,35983.22403230954,36014.91880594716,36021.75843975049,36017.55631179289,36042.27734116046,36098.08964706536,36134.478287038604,36134.38888006078,36138.65806325174,36179.60645909387,36221.94066309222,36202.561700649465,36217.33620373443,36221.49362820311,36142.83783946489,36098.38021974328,36124.755278200544,36134.56769401642,36109.55609197093,36117.60271997484,36128.309205568934,36146.4811738111,36213.201131010195,36233.183590553235,36245.54410523702,36243.48774474714,36203.27695647204,36183.65212484028,36185.440264396704,36159.02050245053,36144.335406343394,36157.880563483304,36135.75233647256,36104.45989423512,36099.29664126595,36121.98366188809,36096.81559763141,36083.80688235842,36060.24814370253,36077.99542880004,36120.44139152067,36131.9301881707,36134.05360389395,36099.654269177234,36048.960512752594,35965.566154189844,35905.41760986061,35843.011539341394,35797.05635274129,35785.053465968784,35790.104960215685,35715.651299435056,35619.33763257714,35558.60794289207,35449.17380203889,35365.399463820395,35267.945857995255,35191.52524370256,35078.22425105861,34909.62504263223,34665.65575190255,34452.62127549902,34219.13495291888,33962.33576087186,33709.29166189333,33481.683848104934,33299.13715113844,33128.39217524436,32881.04777110193,32660.99484693943,32476.66001041651,32221.358385247993,31998.019754650566,31883.243546872563,31719.76288792645,31505.029678944313,31330.52960998173,31211.819495179596,31126.5475900826,31026.836458067475,30935.350768011904,30872.028275970017,30753.94401001263,30648.577886650313,30646.67798837161,30604.075563439797,30512.79103908432,30484.85135851519,30527.453783447003,30545.938676111542,30543.43528073255,30578.415760805103,30622.359290404238,30682.127855077728,30716.638948516724,30797.127580300283,30867.490871845588,30926.141849296317,31010.922016015295,31108.375621840434,31148.74287232672,31203.012907864206,31273.644420342975,31398.188340447945,31552.035397533826,31635.54151481885,31690.817378856824,31787.488673626027,31869.139596121266,31946.722501125638,32013.48716181364,32131.817296960035,32237.026958111164,32341.36490122854,32416.310300387184,32471.966144080896,32621.231093553437,32771.36776105974,32890.99429738454,32972.30994371294,33043.32143584746,33128.50393396663,33189.16656841833,33255.43949072832,33345.94170402786,33355.8211750771,33365.87946008199,33398.37889652001,33469.77036831026,33582.847843509655,33638.32487324773,33663.98467588242,33703.83783624623,33744.67447336608,33773.575278946795,33769.082578311274,33726.39074640164,33785.01937210791,33894.252347261,33938.844077449336,33959.63119979277,33954.04326367894,33997.763275833524,34054.87198291683,34060.79519519749,34120.04966974851,34157.7123591557,34116.18281795774,34121.591940115926,34139.85331533591,34205.83566496798,34263.52551740712,34311.40295403039,34300.048267847094,34331.18424787334,34340.97431194476,34356.262905152194,34401.81576035211,34405.92848133189,34420.59122569457,34458.14215637948,34526.2479217348,34547.817355134175,34558.50148898381,34558.21091630589,34634.11744047611,34726.720717754455,34807.05288732683,34868.967219468024,34950.841659407815,34933.40729873268,34917.58226365832,34968.655999738694,35039.555733150926,35085.913251151236,35070.93758236618,35128.71684178315,35205.42802875376,35300.46764617773,35353.03894913661,35364.348931830995,35380.17396690536,35395.730781046244,35442.40122346893,35551.88006781102,35540.50302988327,35502.48271256479,35570.81199536467,35640.39297585404,35677.38511292757,35701.63675566158,35801.81727431027,35874.52749902338,35967.108424557264,36036.108259690795,36059.08585299085,36069.68057986267,36095.519196453,36151.666778524734,36148.3810720898,36171.44807236768,36223.37117473736,36277.97648644167,36248.762756438584,36217.91734909026,36211.61415715387,36250.953227395206,36288.81708250249,36338.21443774873,36387.3882755504,36429.47661035974,36469.3074189791,36511.75338169973,36505.15961708542,36500.309288538614,36495.190739058344,36483.4113697304,36451.29191294812,36514.86027417902,36566.35869340404,36556.4792223548,36563.67648406941,36573.019513251726,36612.55974919316,36640.52178150675,36646.713214720876,36612.582100937616,36579.88149879951,36556.85920201054,36544.40928034893,36557.19447817737,36633.771554681254,36668.21559288688,36604.468417700344,36572.01368475124,36539.58130354658,36536.22854187829,36568.191536449376,36613.498522460286,36631.55873198018,36547.47146933931,36489.80396864462,36503.50558799572,36467.452224189314,36474.873003348475,36515.28495732367,36516.13432361297,36464.367683454475,36435.221008684755,36450.08491874754,36467.96631431178,36486.31709650959,36458.89150606293,36467.18400325585,36461.12668050846,36447.380357668444,36436.09272671852,36407.37073509344,36338.97439706021,36300.149416941334,36309.91712926831,36249.343901794426,36243.5547999805,36204.72981986163,36174.532613102514,36195.364438934856,36229.58495969593,36192.48106390012,36100.59304244436,36009.956718678084,35892.14067365416,35752.79989871978,35638.35896710861,35518.84418950608,35350.96023690227,35138.752775043584,34934.94956910009,34779.157910246606,34575.04177988074,34327.049175149106,34100.89422475031,33822.61500628174,33550.12488962709,33279.84759567351,33034.78306946553,32810.88564525672,32547.11270893964,32234.344748776526,31946.588390658904,31717.214789058544,31557.466871436463,31331.58014197113,31020.600321364444,30772.920641055185,30586.685906253566,30497.23422494343,30373.67378159449,30165.8696133935,29915.999462127624,29726.724890080084,29549.319094338312,29402.53518850031,29343.10189999365,29237.892238842516,29151.793319200675,29032.636169509435,28956.528479639113,28930.28753164858,28872.932955376265,28823.200323963207,28845.641475396333,28874.944612377243,28902.571368524,28940.614037586933,28950.67232259182,28965.02214253213,28997.231006292226,29032.859686953987,29077.22789969777,29148.932295910396,29220.748450845298,29349.2262779744,29522.74287018095,29629.494801699497,29713.805581784916,29830.23581865261,29862.019999268057,29868.971391793657,29994.45408516575,30137.818174102093,30206.16980864642,30300.203597569896,30453.78243372231,30561.450786763526,30633.646921354168,30703.518474521457,30816.260673554025,30968.408998061303,31073.216327812235,31206.99151837725,31324.986377356814,31418.483724413363,31510.215283657944,31635.49681132994,31726.691928707594,31876.426264813694,32017.689289771235,32048.959380264212,32077.25668874463,32132.241980104685,32202.158236760886,32241.67612095787,32318.78963932868,32447.893315302532,32551.02426421932,32627.534285489834,32641.615884496678,32679.747960537432,32683.435998372555,32717.433001689078,32745.953827614052,32781.47074955353,32839.20530548159,32878.27615478947,32935.58602757288,32969.76184484504,32968.688961111184,32977.42849319321,32995.06401956845,33126.24640777664,33179.264745624634,33185.18795790529,33261.31799952006,33334.475259122286,33336.30810216762,33354.16714598741,33434.47696381533,33485.751865595805,33527.124944582574,33579.8750614971,33645.32096926224,33701.71442052298,33810.09802938676,33918.19106557263,33934.37372855827,34002.61360438033,34136.16527750078,34206.84149346846,34250.80737481205,34285.76550314015,34341.42134683387,34455.035263900194,34499.850511533085,34539.435450963436,34628.484800873375,34699.56334824125,34756.716758813476,34844.55911452283,34901.10902799476,34961.54814500191,35034.995977282044,35093.870472177325,35118.56914980044,35187.479577956154,35272.840890030966,35338.42090826284,35412.29342368763,35485.04835188966,35583.39602749301,35718.48997098088,35789.59087009321,35809.50627440289,35833.71321364799,35886.373923584695,35940.331034699804,36113.981737373084,36199.9465465482,36180.187604449704,36158.12643267232,36175.806662536466,36225.0475555715,36301.42346637529,36370.490356742186,36416.78081950913,36459.80792758559,36477.5105091942,36472.74958762522,36419.843008499505,36446.73215707924,36452.87888680445,36427.15202893639,36455.18111648335,36418.792476510105,36440.63013084294,36449.5037733917,36468.0557212896,36484.12662555297,36511.99925088874,36497.64943094843,36487.34527675453,36532.36169008752,36557.86503051103,36582.85428081206,36617.45478122887,36647.56258101018,36683.683000049954,36747.34076825866,36712.762619586305,36660.83951721663,36563.40826313594,36560.770757290215,36620.561673708165,36677.7597877693,36666.15923239699,36678.095063936125,36670.56252605469,36699.23981419084,36720.13869525656,36748.972445603904,36713.70139285343,36737.61775942061,36771.36889354812,36740.14350654406,36710.92977654097,36707.57701487267,36718.283500466765,36702.03378224776,36680.12907268156,36688.04159021874,36682.05132270471,36656.279761347745,36635.11265934857,36679.19029941443,36680.73256978185,36687.72866579636,36719.065811522705,36770.720692958916,36755.61091370713,36746.06671882471,36707.62171836159,36610.68220265892,36570.1808417059,36557.30623689965,36533.90396045494,36456.6563316174,36369.663342197346,36391.79156920809,36345.43405120779,36271.47212880518,36236.066965587976,36154.4830983261,35953.764433117445,35787.8474340257,35591.777931663746,35385.046647196614,35254.08777643296,35086.31558255143,34813.57959670777,34575.04177988074,34307.826674917545,33995.39399092126,33766.17685153209,33569.436796836475,33375.69187589787,33179.10828341344,32922.17498089969,32684.061847217305,32445.81460306819,32229.829696396555,31997.438609294728,31772.691818796615,31570.185014031533,31400.870549782583,31220.76019296172,31044.20376350925,30818.697013699653,30615.72082230101,30479.822216012744,30406.933177343988,30351.411444117006,30333.284179363753,30314.9557489104,30225.347605389074,30176.06200886512,30132.744328110737,30073.825129726545,30053.03800738311,30064.415045310863,30046.28778055761,30081.268260630164,30084.688077531824,30124.787107084645,30176.866671665513,30222.866561754534,30226.666358311937,30171.524604740694,30188.534282271183,30270.22990825533,30337.329845110162,30445.199363851472,30585.031877163874,30704.434896044124,30834.320883073913,30962.038750891537,31056.586629937487,31160.656352121398,31256.992370723772,31366.337104599133,31461.84610865666,31576.845833879215,31654.20522143903,31692.560814924338,31767.014475704967,31940.41930918924,32098.803770399547,32184.299192941096,32232.19898130882,32268.72173174879,32344.02475881872,32447.46863215788,32597.24767175289,32729.167667528116,32772.038313393394,32846.35786370729,32983.26229849605,33060.845203500416,33169.832309464495,33288.743589966725,33349.94266628536,33363.44311993636,33410.247672825775,33446.72571977684,33513.24451127583,33557.92564844199,33613.22386422442,33639.28599825931,33685.01766741487,33715.17017068507,33770.73660740097,33833.58971280929,33854.42153864164,33834.72965177651,33846.82194552683,33917.38640277224,34024.29479650197,34041.8856193883,34092.69113453521,34180.4664350112,34294.527386966634,34371.909126270904,34370.6127250925,34354.98885571824,34394.4173329374,34428.79431590966,34441.31129280464,34503.896177279494,34482.930240980415,34498.01766848775,34551.393634247026,34608.83761749716,34731.43693583452,34804.63889892565,34818.921663632595,34868.52018457892,34884.345219653274,34880.94775449607,34926.3441474848,35007.99506998004,35076.547870224465,35136.76346978706,35162.736196844126,35182.56219417598,35194.87800537086,35276.953611010744,35329.07787908052,35369.53453654463,35395.79783627961,35457.890982376455,35463.07658709009,35473.93953489537,35498.0794189071,35536.546771114685,35592.0014491083,35690.72910436739,35768.73669251641,35772.98352396292,35780.91839324455,35858.054263359816,35885.90453695113,35895.98517370047,35931.815020062335,35955.93255232961,35921.667328079624,35919.476857123,35980.85474739728,36058.16943146818,36123.34711829986,36142.14493538677,36132.69014748218,36220.398392724805,36256.65292223131,36206.96499430716,36205.4450756842,36308.53132111208,36373.75371143266,36347.31159774204,36302.76457104261,36352.78777513358,36391.188072107805,36414.1433136634,36441.792421554615,36408.35421184948,36430.951825493794,36443.55820936659,36420.133581177426,36465.79819509962,36498.007058859715,36503.259718806716,36466.22287824427,36465.48527067724,36440.674834331854,36388.796435451084,36394.87610994293,36363.62837119441,36326.43506842078,36291.65575404832,36304.55271059903,36330.05605102254,36342.68478663979,36335.06284178053,36332.76061210163,36297.69072505125,36291.87927149287,36328.87140856641,36386.80713019456,36452.47655540425,36423.57574982354,36395.14433087639,36404.97909843673,36384.81782493804,36338.01327204863,36314.38747815937,36302.42929487578,36337.92386507081,36420.759430022175,36462.71365436479,36459.22678222976,36485.57948894257,36447.33565417954,36401.00048792368,36316.33207992698,36258.485765276644,36250.57324773946,36296.19315817275,36318.88017879488,36291.38753311486,36286.179576656774,36285.21845164519,36354.50885945665,36418.099572431995,36465.68643637734,36473.330732981056,36412.10930491797,36304.88798676586,36250.729709950654,36211.63650889832,36166.82126126543,36107.365621014316,36058.30354193492,36012.88479720173,35946.902447569664,35819.02811754085,35720.25575879285,35574.90236459999,35382.56560356207,35177.75656911809,35022.97073876509,34838.79236445336,34584.7647887188,34325.775125715154,34075.927326193734,33849.012416483456,33612.0839252572,33364.247782736755,33113.46120994821,32864.35101799381,32612.156285304583,32361.05678809366,32123.770668956124,31902.9801372266,31655.322808661796,31444.635265426074,31280.685219846397,31070.891746388883,30872.318848647938,30706.245387345003,30528.48196369195,30337.776879999266,30220.98901522029,30136.544124668137,30015.42002146483,29894.362973494884,29887.09865654691,29834.840278010404,29774.959954614635,29709.938729994148,29673.035999898435,29699.67927928916,29719.058241731913,29709.73756429405,29743.108718765823,29786.694620453673,29799.591577004383,29802.89963518377,29858.24255445511,29951.069349178,30018.593969177484,30056.435472540317,30089.58310956754,30140.29921773663,30217.233922151798,30301.030612114744,30374.63490660607,30407.335508744185,30510.667623361067,30726.697233521612,30841.24992385506,30933.16029705528,31057.547754949064,31158.46588116478,31188.50662571271,31269.576402852108,31441.103689802134,31631.339386861255,31713.437344245598,31835.902552116222,31972.158786315777,32065.34320894995,32162.12626244143,32226.164010305885,32297.689592562867,32350.149136799475,32499.101161849638,32646.533268276846,32755.05098760736,32855.34326497832,32907.44518130364,32954.4285481487,32972.824033835415,33056.844241242914,33173.743864744174,33187.937222473294,33189.6359550519,33175.86728046743,33219.07320249954,33382.285640512186,33450.033777956225,33430.63246376902,33477.86169980308,33545.40867154702,33562.91008745552,33524.24156954784,33526.67790969347,33575.650581795046,33640.403585482076,33672.61244924217,33674.355885309684,33657.167393823554,33708.28583339284,33738.90772329661,33744.02627277688,33778.49266272696,33787.45571225354,33843.24566641398,33954.982036946065,34074.02742791503,34130.97967278715,34138.44515543523,34223.06885994302,34290.72759040923,34341.37664334496,34348.95388471531,34344.0588526796,34378.94992577433,34446.69806321836,34483.39962761398,34542.18471553144,34602.42266683849,34681.81606314374,34724.753764242385,34795.38527672116,34806.762314648906,34782.018933536885,34844.82733545629,34965.75027295951,35016.10875321731,35021.093192230845,35052.922076335206,35040.15923025122,35081.24173656008,35141.47968786713,35226.59513075294,35393.786179278635,35493.206738615845,35561.424262693436,35557.06567252465,35480.957982654334,35534.60216934707,35658.028502229274,35748.55306727327,35816.23414948394,35855.90849589211,35890.844272475755,35925.44477289257,35944.98019754651,35983.98399162102,36022.54075080642,36049.65341683071,36074.10622526482,36110.561920471424,36145.74356624408,36248.44983201621,36317.4720188942,36362.10845257145,36346.68574889729,36349.50206869865,36387.07535112803,36413.24924388519,36434.237531928724,36475.32003823758,36512.759210200216,36585.20121397987,36629.12239183455,36600.71332463185,36573.62301035202,36577.19928946487,36578.76391157674,36607.754124135274,36638.376014039044,36717.83646557766,36732.610968662615,36696.267032178286,36708.80636081772,36708.35932592861,36726.35248021513,36727.55947441572,36671.74716851082,36621.29928127519,36605.027211311724,36609.1399322915,36592.10790301656,36611.37510673703,36603.75316187777,36555.00400722075,36524.53857952816,36472.70488413631,36559.317893900625,36663.18645038443,36647.22730484335,36561.396606134964,36534.99919593325,36571.81251905114,36594.7901123512,36609.3410979916,36629.94940637939,36632.67631920294,36739.45060246594,36822.21911218394,36803.06366718574,36744.166820546016,36676.3069243797,36662.78411898424,36627.334252278124,36579.88149879951,36570.42671089491,36636.498467504796,36648.21078159938,36582.92133604543,36469.37447421247,36415.05973518607,36373.59724922148,36276.92595445227,36190.42470341024,36068.406530428714,35918.69454606707,35777.520928087346,35626.311376847196,35414.46154289979,35125.52054232604,34858.841879229774,34612.682117543474,34370.34450415904,34129.79503033102,33893.112408293775,33635.37444297963,33431.571237036136,33202.59996683597,32936.23422816208,32708.067620762304,32519.553008026247,32342.616598918034,32177.75013181569,31952.578658172926,31739.3430160693,31564.39591221761,31401.250529438323,31266.80478653965,31158.130604997947,31053.412682224833,30915.971805569152,30770.95368754312,30679.400942254182,30649.807232595354,30557.47217625048,30474.97188746594,30428.010872365343,30370.835110048665,30346.315246381197,30324.455240303905,30314.62047274357,30323.53881878124,30424.278131041305,30522.93873106703,30570.90557466812,30585.18833937506,30623.990967749476,30694.823645928343,30722.02571893045,30695.36008779527,30783.537719671458,30930.142811553815,31036.023025038605,31129.989758728716,31174.559137172597,31205.89628289894,31354.91536318247,31515.155019182566,31633.50750607342,31758.364350600765,31794.931804529646,31784.15826370219,31862.88110767378,32058.861203057913,32153.587896059504,32232.24368479773,32342.77306112922,32430.436602882935,32516.893150436063,32616.201951050993,32706.838274817263,32748.747795670963,32791.66314502515,32846.49197417402,32918.8222192314,33012.900711643786,33101.43597143125,33129.53211421157,33177.454254323755,33231.992510794706,33206.35505990447,33155.39308254637,33220.77193507814,33296.63375575945,33352.93780004237,33393.193291806376,33435.773364993736,33483.33787719463,33570.10734917013,33606.138361232086,33683.117769136166,33726.68131907956,33660.78837642531,33627.37251846463,33667.80682418428,33704.843664746724,33776.14572955915,33839.95995997905,33904.936481110635,33945.974283930576,33967.700179541134,33909.406830001695,33943.71675774059,33972.39404587675,34001.78658983548,34060.23640158611,34104.55991084098,34181.42756002278,34189.49653977115,34216.56450230652,34275.930735579816,34288.71593340825,34317.97436690025,34353.692454539836,34365.04714072313,34411.33760349007,34501.79511330069,34573.49950951332,34545.291608010724,34514.51325589577,34565.31877104268,34641.202943468445,34681.07845557672,34702.737295953906,34755.867392524175,34821.96150087852,34891.497777878976,34939.97871160254,34996.19334890763,35001.55776757691,35022.52370387599,35088.88603316379,35124.82763824792,35189.96062159069,35252.59020955446,35275.03136098759,35302.85928283445,35349.97676014624,35389.36053387648,35414.77446732217,35470.9220493939,35485.69655247886,35455.521697464195,35457.15337480943,35479.72863670929,35544.369881674036,35631.65344377201,35635.07326067368,35583.32897225964,35585.63120193854,35579.3503617466,35542.42527990643,35536.122087970034,35535.339776914094,35617.147161620516,35674.72525533739,35713.70669766745,35767.440291338,35832.93090259205,35819.51985591887,35835.613111926694,35878.21553685851,35846.6101701987,35846.63252194316,35833.176771781065,35809.528626147345,35793.27890792834,35843.57033295278,35923.18724670258,35914.58182508729,35876.47210079099,35858.50129824893,35854.29917029133,35863.06105411781,35863.95512389602,35904.38942961567,35957.49717444148,36005.86634944277,35977.21141305106,35961.20756402106,35974.663314183155,35958.68181689761,35951.77512786092,35902.2213104035,35866.369112297194,35814.42365818306,35698.3286974822,35717.21592154693,35794.37414340665,35771.03892219531,35741.98165440341,35713.147904056066,35693.34425846866,35608.4523330274,35566.29694298469,35588.51457697327,35571.46019595387,35556.90921031347,35516.65371854946,35457.71216842082,35383.437321595826,35309.43069570431,35264.034302715576,35287.235413460185,35307.82137010353,35234.12766863438,35173.10740627139,35173.53208941604,35180.77405461956,35176.84014759542,35203.081095585956,35182.83041510945,35158.24349620861,35141.01030123357,35082.269916805024,35021.92020677569,35010.1631891922,34999.993145465036,34940.47044998055,34890.46959763403,34926.1429817847,34864.25100138796,34727.279511365836,34628.12717296209,34503.40443890148,34312.27467206415,34188.691876970755,34043.65140720027,33898.18625428513,33723.172095200076,33463.15425195149,33219.69905134429,32959.412987162235,32697.919928779596,32417.56199807668,32103.11765707942,31770.613106562272,31524.69921406498,31318.90670286497,31119.35032836799,30915.323604979945,30682.038448099906,30418.69019492748,30219.178523919407,29978.40553264684,29743.823974588395,29589.03814423539,29411.453534537977,29219.228532222336,29047.611838294488,28825.390794919826,28660.43492083966,28579.02986753343,28460.610325409216,28313.64760561557,28195.47393268036,28060.715265359315,27919.027557257126,27794.50598889661,27771.72956129665,27701.276862773524,27604.60556800432,27582.74556192703,27553.420073201665,27508.001328468483,27448.90331612865,27414.19105698956,27411.307681954826,27402.07641149478,27388.55360609932,27393.26982417939,27495.082020173315,27614.261521609013,27644.145803945758,27737.710206235675,27872.46887355672,27932.036272530113,27959.595973443505,28009.0603839231,28043.03503549517,28058.010704280223,28155.732531038826,28305.55627412275,28422.992339490935,28545.390492128194,28686.251185685538,28773.13241638332,28891.373144551893,29085.207472468315,29248.956352347894,29397.215473319946,29527.28027430538,29653.232354311032,29793.869530423824,29887.925671091758,29967.564936586015,30083.771656009158,30243.676035842425,30404.31802324272,30586.931775442576,30743.058710462894,30842.032234910996,30897.956299538175,30960.965867157684,31047.981208322195,31151.805061317096,31364.101930153603,31522.754612297373,31658.11677671871,31838.227133539574,31899.35915462484,31974.46101599467,32043.036167983555,32101.843607645467,32245.18534483735,32361.88380263851,32488.126455322083,32632.898704159106,32731.6263594182,32786.164615889145,32891.530739251466,32966.36437968783,33008.22919705262,33104.43110518827,33185.32206837202,33226.04694676959,33247.79519412461,33316.079773435566,33442.545943563695,33571.940192215465,33641.96820759394,33735.80083081732,33826.32539586132,33988.57670886239,34147.6093706619,34266.073616275025,34363.32605640007,34449.69319697538,34535.74741312831,34652.44587092946,34753.431052378546,34872.49879509197,35020.78026780847,35126.23579814861,35225.11991561889,35333.21295180475,35432.07471753058,35517.100753438564,35581.31731525866,35663.6164383431,35808.67925985804,35899.60615630224,35973.1433955602,36062.08098674786,36117.37920253029,36164.65314205326,36189.39652316529,36260.877401933365,36417.764296265166,36522.370460316,36652.88229619054,36805.589414309194,36951.367491646706,37076.82783327435,37140.64206369425,37155.75184294604,37228.2385502146,37336.73391780066,37390.06518007102,37406.94074713478,37454.10292793548,37482.266125949165,37549.18724884835,37646.43968897339,37730.21402719188,37745.61437912159,37787.278030786285,37783.344123762145,37794.76586517881,37868.839546303694,37929.41277377758,37920.6508899511,37836.11659242113,37791.92719363299,37839.11172617814,37947.8082594643,38087.37255184323,38095.35212461378,38085.47265356453,38065.17726959912,38063.67970272061,38142.55900890339,38226.60156805534,38213.81637022691,38195.21971884009,38221.10303891934,38214.73279174957,38194.839739184354,38256.642312603275,38298.730647412616,38321.507075012574,38288.89587985228,38224.522855821,38190.727018204576,38232.54713208046,38243.790059541476,38239.85615251734,38223.89700697625,38216.096248161346,38221.08068717488,38294.886147366306,38307.336069027915,38283.30794373846,38208.42959981318,38167.79412839343,38161.33447424584,38202.0146491545,38255.05533874695,38254.85417304685,38177.51713723149,38098.41431360415,38056.01305437244,38037.63992043018,38051.229781059,38072.41923480263,38111.13245619923,38167.0565208264,38213.45874231562,38188.38008503677,38151.0526717964,38177.27126804248,38190.52585250448,38216.3197656059,38206.88732944576,38223.85230348734,38323.63049073583,38385.65658159931,38401.66043062931,38382.88496528685,38358.365101619376,38390.93159329076,38382.97437226467,38329.73251697213,38320.79181919001,38363.953037733205,38378.68283732925,38395.84897707093,38394.150244492324,38371.61968608137,38371.865555270386,38379.24163094063,38462.457175547745,38484.272478136125,38478.61748678893,38476.3823123434,38439.43487875877,38382.95202052021,38312.38756327481,38193.00689613901,38001.60890836822,37839.67051978952,37672.144195097,37419.86005542995,37174.84023271087,36979.061303026836,36803.443646841486,36535.2227133778,36201.73468610462,35946.701281869566,35694.9759358139,35445.91044734841,35196.86731062738,34911.837865333306,34583.7142567294,34321.61770124647,34055.47548001713,33821.676233014616,33628.33364347621,33453.05126345769,33258.43462448533,32964.26331570903,32694.52246362239,32485.265432031803,32290.089999448064,32153.990227459697,32006.89339719932,31928.103497994365,31911.1832274417,31813.77432510547,31684.760056109437,31583.841929893726,31521.52526635233,31527.604940844172,31484.868405445628,31446.46810847141,31476.66531523053,31517.09962095018,31486.790655468783,31508.382440612608,31585.987697361434,31623.270407112886,31650.0701487148,31658.11677671871,31715.85133264677,31801.905548799703,31865.898593175247,31970.057722336976,32058.54827863554,32162.260372908164,32282.021019699696,32426.7038615589,32582.897851812584,32706.458295161523,32807.35406963278,32903.86890219079,32986.168025275234,33109.61670990189,33246.454089457286,33416.79673395118,33509.69058390744,33618.76709684933,33748.317807712294,33866.759701580966,34005.675793370705,34162.65209468032,34260.35156969447,34333.93351244134,34450.58726675359,34528.21487524687,34619.78997228026,34665.58869666919,34705.50891226636,34806.65055592663,34931.57445568734,35048.787003610974,35195.99559259362,35326.261559279155,35443.697624647335,35491.865633948524,35580.646762925004,35649.4677841029,35738.67359622403,35897.30392662334,35977.27846828443,36017.15398039269,36064.24910596003,36122.34128979937,36174.64437182479,36274.84724221793,36322.43410616328,36345.389347718876,36453.3035699491,36448.07326174656,36467.2063550003,36507.90888165341,36560.05550146765,36640.67824371794,36579.38976042149,36546.13036467199,36637.43724077192,36719.73636385636,36793.85474847016,36863.01104581488,36943.87965725418,37033.06311763085,37011.04664934238,36986.459730441544,37018.02039361243,37048.754042238485,37052.15150739569,37051.65976901767,37153.36020628932,37288.36474279937,37297.59601325941,37284.9002224088,37289.32586781095,37410.40526752535,37468.497451364696,37504.23789074873,37538.16783883188,37553.03174889467,37568.38739733546,37612.24151995677,37677.68742772191,37762.69111188545,37846.845429759676,37864.391549157095,37829.52282780681,37828.60640628415,37865.79970905778,37848.790031527285,37850.7346332949,37870.51592713784,37947.98707341994,37929.85980866668,37888.777302357834,37932.22909357895,38038.33282450829,38075.41436855964,38136.65814836718,38164.97780859206,38227.696803533654,38277.67530413572,38316.61204297686,38379.86747978538,38430.225960043186,38401.68278237376,38372.759625048595,38417.75368663713,38436.12682057939,38380.26981118558,38369.54097384703,38385.634229854855,38404.07441903048,38414.13270403537,38427.566102453005,38454.499954521656,38482.97607695771,38448.46498351872,38391.60214562442,38338.382642076336,38303.31275502596,38267.95229529766,38246.58402759839,38259.436280660186,38244.415908386225,38220.87952147478,38210.910643447714,38178.38885526524,38160.529811445456,38120.85546503728,38093.38517110171,38046.491211234475,37988.6672483286,37937.34764305921,37920.80735216229,37847.113650693136,37765.68624564246,37697.51342505377,37661.013026358254,37672.94885789738,37648.11606980754,37591.96848773581,37518.43124847785,37498.76171335718,37477.32639042454,37391.093360315965,37315.11978091238,37267.24234428911,37250.41148071426,37278.50762349458,37264.60483844338,37231.05487001596,37233.62532062833,37208.479608116104,37162.09973837134,37127.27572050998,37120.68195589566,37092.13877822623,37035.27594033193,36950.65223582414,36887.173281571064,36914.59887201773,36918.10809589721,36870.63299067414,36856.10435677819,36836.16660072406,36781.985972164395,36699.28451767976,36578.04865575417,36523.53275102768,36504.153788584925,36505.78546593016,36548.2761321397,36541.9282367144,36454.28704670513,36351.73724314418,36297.578966328976,36222.72297414816,36191.11760748835,36217.8502938569,36214.60929091088,36219.906654346785,36237.27395978856,36165.32369438693,36073.793300842444,36030.162695665684,35975.33386651681,35918.13575245569,35850.231152800465,35796.94459401901,35757.22554412193,35710.42099123252,35659.10138596313,35568.28624824122,35421.34588019203,35238.732127992174,35116.02105093253,34923.013737560956,34725.13374389813,34530.31593922567,34309.50305575169,34049.37345378083,33756.63265664967,33488.81405458618,33217.95561527677,32907.71340223711,32669.98024821046,32405.06737292616,32091.092418562464,31824.83843861085,31615.648462253626,31351.808470703185,31064.76736840813,30840.735833732586,30582.036743406865,30305.523312750258,30094.925176492357,29892.68659266074,29693.420790841676,29471.73618933394,29263.283820543747,29133.844868403063,29039.609913779488,28942.558639354545,28827.84948680991,28741.772918912524,28664.860566241812,28570.513852895958,28491.768657179913,28428.490868626937,28356.115920080654,28292.189930938475,28257.20945086592,28279.56119532123,28300.393021153573,28273.9732592074,28275.359067363628,28259.60108752264,28264.764340491813,28294.447457128463,28347.018760087343,28484.236119298475,28589.13285602723,28636.295036827927,28697.650575357748,28762.492986022593,28838.332454959447,28953.466290648736,29058.161861677392,29126.468792732812,29203.470552381346,29306.89207397605,29398.310708798257,29528.84489641725,29649.05257809789,29730.479983148576,29857.035560254524,29945.369654341896,30051.875716671435,30152.592677187047,30247.297018444184,30350.226801660872,30438.896171915076,30563.57420248678,30609.23881640897,30646.052139526862,30707.8994164347,30782.91187082671,30893.6424128583,30976.388570831845,31008.217454936203,31025.51770514461,31143.22199144626,31270.604583097054,31345.192354344414,31417.63435812406,31427.290311728757,31462.98604762388,31525.637987332106,31591.1062468417,31626.422003081087,31629.618302538194,31670.298477446853,31708.65407093216,31729.687062464604,31741.55583877037,31748.887210951714,31745.735614983514,31764.980466959536,31846.497278988038,31884.092913161865,31922.64967234727,31958.65833266477,32001.037240152033,32015.990557192632,32039.415185381793,32152.60441930347,32249.968618150786,32318.476714906305,32381.88861392601,32447.98272228035,32485.824225643188,32512.8251329452,32586.876462325632,32682.452521616524,32809.27631965594,32949.66762657972,32980.803606605965,33021.08145011443,33095.75862833961,33143.74782368515,33154.70017846825,33190.75354227466,33321.399488615934,33448.80443201118,33484.544871395214,33518.743040411835,33554.43877630696,33604.35022167566,33688.705705249995,33775.78810164787,33884.08230353383,33960.637028293255,34006.703973615644,34056.79423293999,34057.062453873456,34088.310192621975,34190.05533338253,34293.85683463298,34330.20077111731,34351.569038816575,34385.45428341082,34448.553258008156,34509.7970378157,34607.13888491856,34680.3855514986,34649.96482729493,34651.88707731808,34692.030810359814,34746.412604619574,34780.07433176927,34767.1550234741,34811.992622851445,34916.77760085793,34981.038866166935,35033.520762148,35057.168907781714,35128.2921586385,35124.60412080337,35073.820957400916,35124.425306847734,35197.6049181944,35237.83805821396,35237.14515413585,35258.714587535214,35259.340436379964,35218.72731670467,35141.32322565594,35119.30675736746,35163.00441777759,35207.886720643844,35218.324985304476,35208.08788634394,35198.8566158839,35182.33867673143,35236.765174480104,35263.14023293737,35324.62988193391,35362.06905389656,35390.09814144351,35399.12824620346,35365.44416730931,35363.67837949734,35375.32363835855,35360.504431784684,35329.45785873626,35304.20038750176,35300.75821885565,35273.08675921998,35303.30631772355,35368.01461792167,35373.4013883354,35378.49758607121,35381.80564425059,35390.925155988356,35392.26626065568,35397.273051413664,35414.14861847742,35431.58297915256,35403.53153986115,35370.920344700855,35361.219687607256,35330.64250119239,35372.93200170183,35398.21182468079,35397.96595549178,35347.451013022786,35327.46855347974,35325.12162031193,35285.3802186704,35254.4230525998,35199.236595539645,35194.69919141522,35194.2074530372,35125.31937662594,35098.85491119086,35071.11639632182,35015.2146834391,34942.236237792524,34828.68937595956,34746.18908717502,34678.91033636455,34566.88339315455,34458.2315633573,34305.07741034954,34079.481253562124,33848.20775368306,33699.30043212181,33503.34268848213,33219.609644366465,32982.30117348447,32750.021845104915,32492.038010601762,32223.99589109372,31961.18407978822,31718.57824547032,31452.3242655187,31187.634907678952,30923.92902659524,30668.40388398217,30458.141023891098,30282.36690549456,30074.227461126742,29871.184214494733,29724.98145401257,29603.075039753323,29442.5001075864,29263.194413565925,29100.831341842575,29012.676061710845,28936.881296262898,28841.260533483095,28724.53972393748,28629.365996046785,28510.20884635554,28386.782513473336,28359.871013149146,28308.037317757287,28287.205491924942,28284.36682037912,28297.531997863294,28370.62220223215,28437.05158675332,28460.07388354229,28481.68802043057,28532.471183833026,28582.427332690637,28657.462138827104,28742.197602057175,28806.280053410537,28853.08460629995,28939.943485253276,29012.78782043312,29076.870271786487,29180.49295908129,29302.488780318356,29353.450757676455,29477.614698125686,29650.01370310947,29737.297265207442,29788.50511175455,29882.0024588111,30010.212065006745,30124.09420300653,30256.8412133266,30355.14418544104,30413.12461055811,30499.46939938896,30606.221330907505,30728.910056222685,30815.523065987,30881.483063874613,30942.391567515322,31031.642083125364,31121.294930135602,31190.786503647152,31256.880612001492,31312.20117952838,31361.084444652137,31342.554848498687,31369.77927324525,31380.485758839342,31401.429343393964,31449.150317806045,31497.877120718615,31522.687557064004,31555.119938268657,31636.524991574886,31652.998227238448,31634.379224107175,31597.07416261127,31599.1081713567,31618.710651244004,31582.43376999304,31549.599057388197,31584.132502571643,31629.394785093642,31728.144792097188,31735.632626489718,31700.808608628347,31744.90860043867,31788.606260848796,31853.11339534681,31894.173549911207,31987.112103356376,32069.858261329922,