0.0,42886.53795558667,44017.53622502521,46277.96814179041,47736.8665023883,49807.24153605003,51322.53334790866,53109.33179966591,54731.77787444328,56298.43399506021,57987.66708227004,59108.51765972587,60623.921230306776,61226.07722593275,62619.79789969896,63004.15849735242,64614.69109233512,64897.15008701684,66439.86748932213,66641.86020396474,68427.09403361012,68678.95349013251,70169.99365925713,70141.85281298791,71473.63680286847,71672.88025294307,73014.52136212842,73291.5488829075,74480.84050188548,75041.15403189111,76141.30689398132,76974.49052029736,78053.87861178859,79186.8885382281,80071.95056342489,81351.16325034658,82194.80749306768,83883.99587678861,84441.29192129278,85821.89212106373,85919.39043037778,87256.4941354387,87088.18549969024,88278.90763031336,87833.92910169711,88754.82097325576,88215.60749001593,89386.43656807383,89300.04707575406,90557.95855020983,90722.35563067862,92414.98618304565,93631.18930234782,95916.7892833697,97897.06443513208,99290.67335017603,99884.29097942007,99901.077139506,99894.37161616942,99890.01302600063,99885.98971199867,99881.8769910189,99878.01013922814,99877.49604910566,99899.5795726275,99905.99452328618,99901.09949125047,99897.14323248187,99893.74576732467,99890.03537774508,99886.01206374312,99893.92458128031,99908.40851168735,99903.20055522925,99899.08783424948,99894.77394756961,99890.43770914528,99886.66026433233,99886.7273195657,99903.84875581846,99903.75934884064,99899.69133134978,99896.38327317039,99893.03051150209,99889.65539808934,99886.66026433233,99884.31333116452,99899.93720053878,99909.99548554367,99904.45225291875,99901.077139506,99897.38910167088,99893.16462196883,99878.1218979504,99853.49027556066,99792.73823413113,99483.34538738077,99678.4761164756,98906.22334554474,99340.56244380027,98491.01734054297,98791.22362032218,97929.67563029237,97395.3348273438,96374.3965476032,95200.6170392772,94262.80489716589,93023.40066711912,92242.02838445049,90260.43447976524,88852.38633780317,86254.28661755164,84868.38905434479,81757.24974361059,80238.40400438357,77512.83228550342,76572.9190794133,74114.87538991874,73779.6662783225,71802.56507427276,71366.1472637829,69477.15663637598,69060.76598891806,67419.03035867577,66918.23952415462,65583.75097319495,65136.73843583327,64185.20232262639,63456.66956385012,62425.80710957135,60799.91886614786,59499.82964990493,57702.95056139834,56508.361578984455,54213.77619669154,52905.8862216337,50117.90843223434,48681.96531319205,45659.6294831788,44339.35664169272,41398.00118184104,40219.907786835174,37653.4357849879,37070.278772148944,35227.51155227561,35192.9557553477,33980.23950818056,34178.43242626577,33476.98998176932,33738.90772329661,33237.06635678606,33414.67331822793,33379.80459687765,33504.0579443047,33663.80586192678,33515.747906654826,33907.08224857834,33219.341423433,33207.718516316236,32131.8843521934,32364.521308484236,31009.42444913679,31018.253388196637,29301.818227984695,29161.024589660716,27349.21453585798,27322.16892506706,25605.554950899477,25392.45341926258,23685.361288232958,23666.474064168226,22588.024745944113,22622.871115549937,21758.484453974303,21711.7246045738,21185.63159532924,20968.596156668205,20631.353036326534,20147.817748524874,19931.855193597698,19210.56440002494,19282.49231368212,18360.01346826714,18368.328317204516,17035.493795334554,17113.635493950307,15679.34640399771,15870.789095257414,14377.670213898447,14570.521065058836,13148.592489790022,13532.886032210117,12446.770065637835,12937.390856431826,11952.014202119613,12238.764731736748,11476.100859177215,11618.190898679602,10883.600817155937,10618.039741282433,9876.900598633361,9131.693438493425,8421.37735144822,7426.881185398243,6873.0496612846455,5464.219208266641,4862.264378340767,3161.6989566920947,2693.720483031331,1076.236495523035,1176.2158484716235,-29.01256430298857,589.2590390752601,-223.36098234188347,845.6335479776321,407.53935665361365,1689.8365843101246,1664.5791130756277,3133.558110422863,3351.778191540026,4718.8108824266055,5187.616370632216,6507.978619096115,7455.960804934598,9052.434152654905,10759.749801129079,12425.893536316578,14396.46803098536,15943.25345078152,18237.41414992978,19498.633682564938,21603.318643965562,22441.665523250762,24638.842003207446,25164.778550240822,26951.95698165381,26979.00259244473,28782.341335098903,28782.766018243554,30257.26589647125,29907.192874812234,31006.921053757796,30649.82958433981,31657.73679706297,31474.161919851533,32316.82268581661,32276.097807419043,32733.235685018983,32732.118097796214,32919.068088420405,33209.28313842811,33105.68280287776,33369.25457349474,32999.91434811525,33634.36861447914,33219.274368199636,33931.73622271255,33177.297792112564,33976.14913894524,33198.62135632293,34109.633756832336,33379.11169279953,34438.85260091455,33606.36187867664,34170.07287383948,33077.92193626427,33575.717637028414,32601.98624157742,32554.220563676427,31507.823647001227,31578.20929029099,31203.348184031034,31235.646454768954,31140.048043733605,31314.68222316292,31968.046065336,32220.84429512552,33126.31346301001,33278.752360195205,34526.2479217348,34328.367928071966,35371.56854529006,34746.077328452746,35569.31442848616,34657.072682031714,35332.43064074882,34231.31665364702,34788.54564291783,33631.4852394444,34012.53777891848,33028.94926416269,33586.98291623389,32878.656134445206,33268.67172344586,32872.82232914237,33083.46516888919,32988.67142065423,33270.3034007911,33641.32000700474,33781.37603776169,34391.221033480295,34352.57486731707,35138.48455411012,34770.328971186755,35558.7420533588,34832.824448683794,35503.9802794433,34586.28470734176,35356.27995208263,34317.035593633125,34896.63867910369,33835.020224454434,34547.951465600905,33701.423847845064,34285.20670952877,33458.840365271615,33897.4039432292,33323.18762817235,33553.67881699548,33094.10459924991,33258.7028454188,33203.1364087029,32982.971725818126,32896.135198609256,32540.429537347503,32976.62383039282,32347.39987223147,32560.07672072372,31684.715352620526,32319.929578295898,31403.59746260613,31864.40102629674,30710.469867047057,31492.691516004983,30482.61618406966,31109.269691618647,30167.098959338542,31101.692450248298,30592.63147027868,31203.03525960866,30393.320964970706,30698.04229712991,30109.319699921576,30030.2392280387,29404.189217590003,28907.15347613734,28468.50049120194,28104.390574024987,28422.791173790836,28212.640072422037,29008.004547119686,28911.936749450775,30113.38771741244,29973.912832011323,31258.445234113366,30878.06324697295,31979.110178841376,31284.172091981425,32327.752688855257,31594.43665676554,32453.883582816554,31675.528785649396,32624.852076155195,32259.9151444334,33103.5146836656,32838.87002931476,33536.11034585361,33584.256003410344,33983.59226984886,34039.53868622049,34049.842840414385,34092.24409964611,33635.59796042418,33734.03504300535,32959.390635417774,33252.28789476012,32340.940218083888,32836.74661359151,32066.48314791717,33004.5411592175,32254.39426355294,33071.9093170058,32243.933647147853,33357.36344544452,32814.1937034361,33839.71409079005,33330.273131164686,34335.02874791965,34102.41414337327,34900.28201344991,34670.75194963836,35214.50283700262,35190.139435546334,35133.56717032995,34853.879791960695,34402.30749873012,34278.59059317,33419.90362643047,33274.79610142662,32171.402236390382,32390.06935239665,31271.364542408533,31622.465744312496,30678.193948053595,31712.78914365639,31130.72736629574,32192.032896522633,31581.696162426015,32801.16263641866,32450.731986848354,33458.72860654934,33054.6537702863,34067.187794111705,33939.179353616164,34601.48389357136,34399.42412369539,34494.955479497374,34123.91652153928,33969.309505141915,33887.435065202124,33324.17110492839,33286.39665679892,32432.247094183815,32589.20104374898,31643.3199218893,32062.77275833759,31223.107126129526,32078.664848645312,31442.489497958362,32595.370125218647,32065.387912438862,33278.3053253061,32706.905330050628,33614.69907935847,32955.769652816016,33770.11075855622,33322.67353804989,34013.05186904095,33719.41700213158,33956.524307313484,33562.574811288694,33661.637742714614,33686.29171684882,33466.57406885315,33633.5863034232,33097.07738126247,33241.58140916603,32651.338893334734,33415.54503626168,32914.0165941735,33811.21561660953,33126.24640777664,34001.45131366865,33242.0954992885,34210.44012432577,33388.61118419304,34146.871763094874,33380.408093977945,34234.06591821503,33581.238517908874,34039.04694784248,33358.168108244914,33822.34678534827,33547.53208727027,33536.04329062025,33151.41447203332,32982.18941476219,33057.134813920835,32693.918966522095,32822.933235518125,32342.79541287368,32944.70553931064,32328.736165611288,32916.43058257468,32288.10069419154,33312.95052921183,32630.88704715813,33510.361136241096,32671.053131944318,33611.41337292354,32913.63661451777,33813.87547419971,33177.61071653494,33993.33763043137,33554.90816294053,34415.62913842549,34406.733144132275,35140.47385936664,35362.538440530116,35922.80726704685,36295.32144013899,36468.860384089996,36928.32284311329,36907.62512774767,37740.56288487469,37720.73688754284,38817.08995307564,38541.649406152894,39625.12786687945,39176.37189345025,40323.709288085614,39760.06534815614,40871.30467549618,40381.42149226922,41689.55733651607,41357.36571042129,42463.77706095899,42044.45833497743,42875.04915893664,42518.40472440776,43065.977760073874,42862.688644252856,43301.67690535509,43340.12190581822,43394.25783088897,43478.99329411904,43252.59247453124,43578.61501915634,43243.51766628238,43984.27682927571,43616.70239170818,44531.1122573748,43991.451739245866,44977.163669724905,44236.71743115395,45115.45391266989,44404.400218057664,45445.87975095269,44695.53168958804,45486.47051888353,44713.9048235303,45333.38342110913,44653.66687222324,45280.14156581659,44929.53210229064,45196.188413642456,44874.949142330785,45030.629042462,45043.57070250162,44930.56028253559,45057.33937708609,44708.69686707221,45045.62706299151,44419.0853141648,44878.92775284383,44144.67294748699,44910.197843336806,44011.68006797792,44620.206310773654,43633.086220393925,44629.72815391161,43761.13936437838,44422.81805548883,43478.590962718845,44187.253020674354,43418.62123234526,43996.70439919286,43389.385150597715,43763.01691091262,43341.75358316345,43480.80378541992,43217.83551190323,43082.78627190427,43039.490942894336,42794.26995447516,43038.28394869375,42526.47370415613,42955.33662502011,42250.51906711091,42860.74404248525,42073.828527191705,42697.95628761724,41742.73213657524,42624.39669661483,41819.97976541278,42652.78341207307,41683.34355155749,42322.71520170155,41417.447199517155,42016.004564285824,41281.86151765126,41699.41445582086,41106.6014893772,41274.03840709191,40847.902399051476,40953.38028113607,40960.64459808404,40859.10062302359,41026.06815410473,40663.16523112837,40957.180077693476,40425.07444919043,41068.58117205872,40466.02284503256,41231.771258326924,40597.02641928511,41677.241525321195,40989.2771827313,41798.119759335495,40915.516426028786,41867.879553780505,41071.2410296489,41627.106562507935,40731.561569161604,41463.380034372814,41169.81222269681,41933.325461545646,41936.47705751385,42514.09083772789,42620.82041750198,42744.827895740025,42758.32834939103,42303.53740495889,42152.70783337449,41284.968410130554,41347.7097568166,40332.046488767446,40563.20822992423,39459.72495791018,39922.96486174642,38872.23170664689,39580.11145354646,38588.58806950904,39234.7099464786,38338.516752543066,39129.03089869391,38092.60286004578,38271.57327789942,37184.27266887101,37387.517081203114,36537.03320467868,36361.884935126895,35452.615970685,34864.60862929924,34087.259660632575,33423.05522239867,33079.26304093159,32327.30565396615,32260.652752000424,31391.54987234472,31603.310299314297,30654.21052625305,31097.937357179806,29925.364843054398,30231.248465925273,29020.812096692574,29566.574641057807,28304.818666555726,28408.642519550627,26838.611285520947,26914.629568413446,25736.826746085495,25960.344190638567,25275.374981805682,25678.98043143516,25331.097880732763,25653.834718922943,25511.85643814283,25521.422984769702,25509.509504975023,25198.999071001897,25250.564545460293,24691.681527099794,25021.839144449135,24372.63272674474,24889.49446552926,23985.74638196783,24502.1834376077,23435.044102077976,23930.470517929854,22911.946226590422,23565.824158885975,22479.93170975825,22813.240923075788,21652.447778278325,21936.694912516465,21060.998268246447,21239.29813376643,20416.083385477472,20510.474802312234,20118.335797588326,20173.768123837486,20112.390233563216,20157.160777707195,20512.240590124202,20344.244878798116,20686.003051519758,20346.994143366115,21183.172903439154,20997.25109305991,22132.56324917832,21868.18681576095,23164.319773235296,22972.877081975592,24460.765655132014,24531.263057144053,26406.17208554412,26813.577331731005,28747.919648637733,29333.80357430024,31259.048731213657,32102.223587301207,33974.02572322199,35137.076394209435,36909.99441265994,38214.062239415915,39586.74992164969,40785.40692155444,41642.417507459824,43031.48901837933,44030.07555366463,46273.09546149915,47836.01884079204,50732.69316347756,52171.43025057677,54952.30018523934,56230.97643029409,58979.59279770766,59945.05404771019,62560.14109374775,63411.58609528376,65941.53534669106,67126.91541038935,70098.51278048907,72145.1279097948,75797.35825030306,78692.44559913226,82521.99232840448,86000.57196623945,90384.37490276992,94876.15911676397,98096.12907125105,99390.63035138015,99449.30368057534,99488.59804732777,99527.80300710238,99567.16442908817,99606.99523770752,99646.82604632688,99686.34393052387,99725.97357344313,99765.55851287348,99805.14345230383,99844.4154673118,99882.1228602079,99895.69036909228,99889.54363936707,99885.2744561761,99881.16173519632,99877.25017991665,99876.55727583854,99895.62331385892,99898.1267092379,99893.23167720219,99889.36482541142,99885.49797362066,99881.65347357435,99879.79827878455,99897.90319179335,99904.49695640767,99898.95372378275,99895.22098245872,99891.30942717903,99887.42022364381,99883.44161313077,99880.80410728505,99898.28317144909,99908.14029075389,99902.26178196214,99898.28317144909,99894.28220919159,99890.25889518963,99886.66026433233,99896.51738363713,99908.56497389854,99902.9770377847,99898.79726157157,99894.70689233624,99890.68357833428,99886.54850561006,99884.35803465343,99901.77004358413,99908.16264249834,99902.41824417333,99898.08200574899,99893.83517430248,99889.81186030053,99885.74384280966,99892.06938649052,99909.16847099883,99904.36284594094,99899.84779356097,99895.44449990327,99891.06355799003,99886.57085735451,99882.03345323009,99882.4804881192,99903.08879650699,99895.82447955901,99822.64486821233,99772.46520191016,98342.73586782646,97225.12629331664,94737.10891450751,91453.4811918117,87924.87834988575,83283.67272420797,79535.24047556406,74990.08029581074,72493.03281224165,69741.98010468246,69569.98343109888,69054.50750047059,71426.83224997905,72963.4699777925,76530.11548878139,77450.60502893986,78572.81906280745,76986.73927625887,75176.4491410791,71174.65986903428,67466.34900168765,62468.52129322544,58986.67830069999,55236.94965087768,52105.805528855984,48741.39860169871,45315.189101122516,42235.47634309249,38147.78931710593,33777.911517371125,28261.970372434902,22742.877631530482,14680.893979179142,7092.074405202199,-509.8879945144647,-1972.1614685251081,-1983.2702855193957,-1988.5676489553034,-1991.294561778851,-1994.2002885580407,-1998.0671403488088,-2001.3975502726496,-2005.2196985745072,-2010.3829515436832,-2014.5403760123702,-2017.2449370914624,-1951.8884363041445,-813.5364429398112,167.36986248133928,3107.6971420880727,6883.577332923095,10729.9325740257,14622.17594649505,17510.535420243195,20804.981387255357,22872.0483627377,25763.380618498402,27205.96220564392,29746.1709077562,30671.86840437274,32864.686294160645,33413.51102751625,35404.22444393927,35684.314153708714,37315.27624312356,37984.822748282284,40387.121187105324,42062.585599730686,44890.77417740515,46928.403905439845,49433.945051901945,51370.54489499866,53378.938541285825,54828.85150061268,55862.686736904,56556.68605049683,56660.062868602625,56709.41552035994,56062.62309105672,55659.71054550535,54361.25300660766,53494.988798497776,51803.69935079806,50817.875661596736,48951.63911004533,47788.09670067987,45794.16463305529,44577.40272014174,42572.4512425007,41309.04123890892,39367.926343432235,38083.86332796375,36309.82772229049,35151.113289727364,33623.34920446268,32393.35505883158,30945.49845999461,29652.96413337757,28352.249068289886,27025.33775870058,25816.398956346387,24369.034095887437,23237.946419471078,21755.086988817096,20785.803590512704,19359.203500652733,18503.42226069239,17028.90003072024,16190.240227012662,14721.350636643248,13945.901566255281,12492.121755137654,11706.569696255887,10309.876240477115,9578.437754921646,8310.043312316337,7573.6874429807,6393.560039229398,5618.379189774894,4576.296159779568,3847.4728283253708,3074.884781227682,2456.1884947047824,1989.0593873333203,1505.4570442982965,1276.485774098131,750.191599153471,559.0841840605956,-39.47318070807227,-87.14945163124224,-628.2851848942262,-520.2368521972719,-1011.2376226470021,-926.3233454612906,-1585.2751237481982,-1597.6132866875275,-2072.8560772962664,-1961.38792769765,-2150.796610211922,-1892.3657408196618,-2083.4955076569927,-1903.1839851360305,-2062.0378329798978,-1930.81074128279,-2010.7182277105128,-1914.2033951524968,-1908.3472381052063,-1846.075278052721,-1642.7191069983373,-1617.6180979750275,-1345.3738505093875,-1484.0664248545677,-1255.4751343101425,-1472.6670351823611,-1123.8680629572943,-1347.7878389105606,-931.5089501749219,-1007.1025499227703,-325.5755097360027,-108.83064375289008,819.057323820272,1290.3438556604215,2346.1061532623953,2957.15814318158,3982.946751468987,4642.658489067375,5582.10230852393,6206.319475927291,6927.073827633122,7451.490456043537,7947.09568585106,8405.351150673765,8761.123867168888,9284.132335678618,9588.920723071185,10083.788345311683,10196.485840855341,10618.375017449263,10646.493511974038,11073.590645026046,11058.324403563072,11463.405068326601,11336.111883653628,11611.194802665092,11426.97172486445,11724.920478453694,11653.39489619671,11911.065806277491,11804.604447436865,11980.333862344487,11846.91629969076,11858.96388995217,11703.731024710063,11639.91679429016,11525.967601057006,11352.741581528377,11176.408669520459,10807.515479030071,10655.791837667446,10353.305679953775,10389.381395504643,10130.749360412283,10190.808497763694,9874.844238143472,9976.477620181755,9700.053596502972,9871.357366008446,9666.548331564467,9900.280523333613,9707.742596595597,9834.879319057383,9480.134782807205,9275.88454197461,8681.082270274434,8326.114216579703,7816.78501567662,7600.93421947172,7327.997067927965,7178.2850835663185,7098.914039005523,6946.832769731614,6940.015487672746,6702.32703713501,6581.605265331897,6123.238041786914,5965.635891632544,5501.837194184923,5540.840988259433,5256.437391810106,5570.457049662716,5541.62329931537,5971.112069024095,5879.872248157531,6134.458617503478,5840.3096604716375,5861.923797359919,5478.636083440314,5454.406792450762,5176.21698096001,5128.808930970304,4912.667562087484,4817.7173516413395,4704.081082830558,4645.273643168645,4717.98386788176,4655.890721784916,4778.110060466535,4581.951151126761,4627.77222726014,4322.402694511735,4495.360493106901,4168.734451381499,4321.150996822238,3983.997283458386,4250.988870977029,3990.032254461319,4313.841976385353,4111.379875109181,4453.540379231022,4376.896247493773,4834.86113963856,4987.009464145835,5487.308560288973,5748.421639015871,6308.891631232695,6809.9506866873135,7371.717080082546,7976.801154232163,8526.1623294547,9231.270460041816,9688.20717194166,10431.1121024027,10756.017059805043,11395.5898756492,11483.052251702817,11980.333862344487,11870.184465668735,12237.781254980715,11970.543798273064,12253.539234821706,11848.503273547087,11885.49541062062,11381.910608042552,11560.970432874017,11358.351869386659,11691.54932398192,11926.35439948492,12632.043675427876,13174.073478469072,13906.249571591565,14568.26353886885,15088.299225366025,15603.484583316396,15834.378103539719,16241.582184026503,16297.215675975762,16676.077744493217,16523.817661263663,16778.31462363179,16490.468858536347,16780.92977773306,16344.37785677646,16434.611849142533,15922.131052271254,16090.149115341797,15622.014179469847,15661.934395067025,15130.18639447527,15224.35429386548,14902.198601031138,14963.397677349769,14726.469186123513,14820.234754113526,14832.908193219686,14951.260680110538,15150.973516818705,15357.3248216301,15871.23613014652,16198.376261994394,16859.04912460436,17011.398614811733,17622.07062507518,17679.246387391853,18354.604346108958,18411.668349703355,19137.36243693381,19123.906686771716,19766.89931951753,19693.51854247076,20232.173232099205,20064.15516902866,20430.924943795795,20153.405684638703,20273.278090152515,19908.475268897448,19973.876473173677,19842.045884376275,19932.99513256492,19985.745249479445,20098.82272467884,20377.437219314244,20487.988947390193,20947.71962734695,21067.9720125165,21660.092074882043,21788.055811888673,22558.36398105192,22721.464660342295,23559.319801249483,23772.84601603103,24732.69697817528,24957.913155306956,25755.445749216768,25874.669954141376,26675.398847508295,26817.868866666424,27396.51082712541,27428.071490296305,27801.524436655574,27698.594653438886,27684.937737576693,27390.654670078122,27066.576727220625,26580.44863706215,25869.59610815002,25291.356479091228,24437.296323453942,23977.967974897383,23069.347211044696,22764.894099818957,22029.588762472722,22146.868365629718,21630.476013478758,21893.734859673365,21941.277020129804,23258.733541814512,23921.26159921427,25481.122789516783,26570.032724145978,28340.98378908441,29741.879372820782,31593.140255587132,32977.495548426574,34510.8475698051,35655.99449348384,36691.48375886485,37336.17512418928,37661.34830252508,37768.27904799927,37293.25977483509,36692.623697832074,35546.381538675014,34256.015331270144,32046.232467440663,29837.05310071148,26400.740611641482,23002.85077129016,17963.068838485342,12753.212482120096,6211.348618429735,959.0239475994048,-2604.5593743991108,-3068.626292780196,-3070.2579701254335,-3071.979054448492,-3074.661263783129,-3076.4494033395536,-3079.265723140922,-3082.0373394533804,-3084.6301418101957,-3087.8711447562155,-3090.2180779240225,-3092.4532523695534,-3095.5154413599303,-3098.6223338392183,-3100.2763629289107,-3101.6398193406844,-3104.2326216975002,-3105.8419472982823,-3106.981886265503,-3108.591211866285,-3109.9546682780588,-3112.2345462125,-3114.42501716912,-3116.6378398701954,-3119.051828271369,-3120.884671316704,-3123.164549251145,-3125.757351607961,-3126.6961248750836,-2960.7120705499733,-1215.8007879019724,-978.693482720075,-1224.8085409174612,-2093.0844060283193,-3116.883709059204,-3145.493941961997,-3146.7679913959496,-3149.5396077084074,-3151.6406716872066,-3153.518218221452,-3156.200427556089,-3159.329671779832,-3162.235398559022,-3164.202352071089,-3167.756279439483,-3170.4161370296642,-3171.980759141536,-3174.6406167317173,-3176.719328966061,-3178.0827853778346,-3181.3908435572203,-3183.7377767250273,-3185.525916281452,-3187.5152215379744,-3189.303361094399,-3192.522012295963,-3195.874773964259,-3198.2440588765216,-3199.8310327328486,-3201.976800200558,-3204.323733368365,-3206.9612392140916,-3209.621096804273,-3212.3033061389096,-3214.49377709553,-3217.77948353046,-3219.8581957648034,-3221.6910388101387,-3223.8591580223037,-3039.278452310378,-2240.6059194333457,-1808.1890712009754,2044.4246583491158,4604.504061282166,8603.32055131442,10424.607744766206,12489.596008014203,12161.584158132573,11789.941703074182,10020.778777692172,8152.888197051072,5427.137664215286,2378.113851322395,-282.6154568929025,-2835.60935683362,-3096.3201041603215,-3065.1170689007126,-2994.7090738664956,-2971.6867770775293,-2735.764114351763,-2831.3401736426563,-2280.0120449080523,-2711.914803017951,-1740.9550238794118,-2433.1214944269054,-1256.816238977461,-1745.3806692815626,-147.20858898265232,518.7392853187663,3328.04063892849,5454.518551173038,9247.788399194289,12699.925923338644,17391.914712418882,21876.56871993169,26792.544340198558,31968.984838603123,37407.41013376834,43718.067552813,49643.0679730258,56830.40551309651,63116.54306847371,71086.16931273571,77950.77001461625,86571.39081613909,93179.97463702854,98191.5263165863,98798.48793727017,98838.25169065615,98878.37307195344,98918.56150848407,98958.72759327026,98999.00543677872,99039.19387330937,99079.42701332892,99119.391932415,99159.42390673446,99199.54528803173,99239.57726235119,99279.29631224828,99318.97065865644,99358.82381902025,99398.54286891734,99438.01604962541,99477.57863731131,99517.23063197502,99556.86027489428,99596.5569730469,99635.98545026606,99675.23511352959,99714.4400733042,99753.68973656771,99792.89469634232,99832.05495262802,99870.94698798025,99893.94693302477,99889.0295492446,99884.26862767561,99880.04414797356,99875.8196682715,99871.52813333609,99873.62919731489,99896.71854933722,99895.66801734782,99889.78950855607,99885.6320840874,99881.58641834097,99877.60780782794,99873.53979033706,99873.13745893688,99894.75159582516,99898.61844761593,99893.05286324656,99888.96249401123,99884.98388349818,99880.96056949622,99876.84784851645,99875.90907524934,99898.7302063382,99906.2850959641,99900.54069763908,99896.18210747029,99891.97997951269,99887.80020329956,99883.7768892976,99879.61946482891,99870.87993274689,99574.2052285916,99219.52774757479,98284.33075956473,96785.10985196946,95238.81617055133,93294.3708651508,91509.00292503869,89300.49411064317,87426.81442818814,85161.93451427633,83308.50551229782,81072.0346655887,79317.40037410264,77209.49676150046,75543.46478503523,73565.3130489961,72015.3983849762,70181.52715939608,68684.29555705734,67016.45308929123,65667.54766315791,64226.843622546636,62990.769802423696,61710.730100957175,60499.06438577943,59267.97500467003,57948.17154981751,56632.860795600514,55117.993666886534,53636.117712988584,51903.67870374664,50313.262678773724,48475.412842680555,46887.924896231285,45104.14392997551,43662.18819167474,42025.68286963498,40741.77631637768,39288.01885700451,38187.441311769646,36937.93409322907,36002.133608118726,34929.76396438646,34097.116779937365,33147.16764058681,32357.681674680913,31500.46992307543,30739.258913905494,29961.954648727737,29203.78347680372,28470.176872036085,27697.208845282657,27027.01413953473,26265.691371642515,25652.627724722355,24933.817974784135,24420.085480223355,23741.397111582413,23261.147530215687,22598.2841966491,22150.489348231476,21488.58713967647,21004.180133841055,20311.3431109599,19802.170372268007,19090.02144217747,18509.300769484136,17778.264615328862,17184.87050352937,16520.777824017743,15984.201846623642,15446.754151195784,15002.803802824475,14607.55790562128,14247.694819890836,13976.523456159051,13687.247179418468,13529.645029264097,13286.614511801543,13176.822743037075,12941.190652989228,12858.042163615486,12580.411145736116,12417.355169934652,12054.452246958286,11856.3487358509,11440.136902348626,11140.757637114244,10646.87349162978,10312.893725978582,9821.758845062119,9439.141683476173,8938.596718144026,8542.568509884895,8090.4597747873995,7723.824110486998,7348.4489141045715,7005.260229737786,6703.936362735792,6378.517315210976,6128.02131510035,5819.075503239096,5644.396620320871,5370.900675165734,5273.245903640497,5060.390241192608,5059.339709203209,4921.07181800268,5011.506976068852,4964.389498757065,5165.197570943543,5246.557920760861,5559.392936157338,5763.196142100828,6164.812286473785,6467.8572377988385,6897.144841807466,7236.399619150116,7649.906891573298,8002.684474311409,8377.344414871266,8736.246375590132,9082.050214058187,9453.53620690539,9732.843605618908,10059.827275255595,10294.587647269684,10644.414799739696,10848.508578361105,11178.666195710444,11371.740564315387,11741.639583306263,11956.663364966318,12335.257212550308,12570.06228805331,12971.365508003892,13234.311429776124,13644.17536785309,13930.925897470224,14335.69363781138,14638.291554247327,15000.21100046766,15276.813838102084,15576.84130392567,15814.37329225222,16008.609951568837,16163.038154010554,16230.987457154688,16285.950396770288,16234.451977545259,16219.833936671488,16062.723524895137,15972.467180784606,15717.791404460837,15550.823873379693,15217.53701180661,15003.58611388041,14621.818318583766,14373.535141174216,13982.893703328813,13756.448180252097,13414.242972641347,13217.94995283484,12953.059429294995,12839.49021571758,12684.458516175571,12629.696742260068,12548.381095931662,12510.383130357639,12454.74963840838,12345.49431151084,12213.306094802154,11990.660368282839,11780.129287258302,11431.21855631096,11136.7790266012,10685.810230470925,10353.372735187142,9849.296194231058,9492.696463191089,8993.269085081707,8697.57785768245,8263.73049780494,8055.322832503657,7702.880525932375,7530.794445370966,7202.402615833595,7007.607162905594,6666.586597750974,6432.69794377064,6118.611230684666,5898.6924169889,5654.678422770313,5454.049164539477,5286.992226480512,5113.945020907524,5029.544833844285,4859.448058539398,4837.655107695474,4692.681693158352,4734.121827378492,4602.246535092179,4698.023760083171,4592.232953576202,4759.245188146257,4730.7243622212845,5021.364095373642,5141.884701476658,5578.503677666626,5871.043309097685,6480.575380393909,6975.845334034602,7665.843685369931,8242.026953938837,8993.78317520418,9677.366575880835,10368.326052227743,10980.36151890296,11518.613877131209,12004.47374635622,12269.230159429331,12484.835086445224,12414.02476001081,12372.316404857207,11980.445621066765,11663.87786434625,10990.8444870525,10582.276950153942,9904.773223969129,9565.6078536043,8967.25165453573,8756.832332233469,8316.525318208376,8250.766486020862,7989.228724149314,8095.019530656283,8109.570516296687,8490.77951798195,8837.209205294754,9398.819136478798,9959.624404862452,10573.112734927267,11183.82944867962,11734.688190780664,12398.914980759024,12873.6883847342,13450.072819003204,13647.70694347703,13925.315609611942,13767.132314101735,13822.095253717334,13416.209926153413,13278.143200652981,12655.513007105948,12342.58858473165,11528.985086558472,11049.361354036493,10072.23249342829,9427.518776359413,8401.908982027648,7747.963994498729,6890.796946382159,6445.393734621255,6054.48407584239,6138.9066146500845,6558.359451098377,7321.78328296939,8626.409903336753,10234.908489574014,12455.554301208771,14617.951466792998,17223.427262714777,19551.763779135203,22254.313201226378,24541.678970060228,27073.729285446323,28964.575107643024,30952.986294387138,32235.48468774375,33606.048954254264,34336.72748049825,35149.41455714876,35404.91734801738,35701.05561030574,35575.90819310048,35642.516391577294,35541.0394717502,35627.54072279224,35751.16822137454,36086.578498670875,36640.79000244022,37290.778731200546,38188.26832631449,39019.19442644053,40072.16275598559,40889.72251292736,41838.82228598861,42381.433234385644,42983.38806431151,43072.32565549918,43209.47595947695,42819.43801873184,42526.339593689394,41782.3617794945,41217.91317676463,40336.94152080316,39728.035298351686,38899.12085522662,38300.407028246766,37504.550815171104,36821.392097639095,35947.64005513669,35046.21655299861,33963.43099635017,32732.363966985224,31351.137918369524,29645.990389107516,27912.702013576272,26200.558388299753,25206.08457399423,24228.352216285733,23614.461554820726,22700.386965320944,22232.87787829374,21471.398648190338,21256.26310780801,20862.201853060946,21144.057350642368,21265.87435792379,21934.459738070935,22374.967917796126,23167.471369203493,23680.086276541508,24327.549258178387,24653.281230125576,25017.927589169456,25151.725131478925,25140.45985227345,24939.69648357588,24520.847144227882,24068.827816108205,23316.91513263168,22676.87293015396,21774.130675093016,21243.992000102044,20430.746129840154,20099.4932770125,19515.062214739588,19604.223323371807,19444.542460983095,19938.33719948974,20168.001373768016,21021.145107882632,21573.7919895401,22519.002559066124,23114.788307522336,23995.5140942948,24562.510795892573,25268.870624169187,25691.452704841224,26091.951261991413,26338.78157601137,26477.72001954556,26611.718727555126,26628.504887641062,26855.710370029257,26883.51594013166,27209.404374290036,27309.20491328298,27831.74399515915,27993.39181105993,28545.54695433938,28688.307546175427,29283.668611486988,29489.192901753537,30126.888171063445,30396.45020919445,31038.727586117697,31290.274118217723,31746.9426091841,31820.591607164337,32050.90398203182,31994.24230983762,31996.544539516515,31790.752028316503,31549.174374243543,31226.303425586633,30773.18886198865,30374.05376125023,29806.76648697454,29421.91415094306,28724.58442742639,28271.40280859504,27572.55316645541,27267.63066859611,26475.842473011315,26061.5528895322,25250.877469882664,24943.071596988633,24195.1598757696,23856.843871694073,23092.391859578118,22756.26632645921,21967.428561142515,21425.219944145676,20500.885903940907,19812.09454680616,18931.346408289242,18192.129515663328,17317.326941171523,16394.311653889617,15497.850239020616,14512.20536377494,13826.967934008591,12993.985473392662,12613.245858340963,11791.416918208233,11455.805475211797,10638.826863625869,10498.36850146872,9776.854190451408,9823.994019507649,9270.7883442388,9553.113228453783,9251.789361451789,9681.993386983084,9544.865434749774,10084.168324967424,10110.677493891419,10596.492659627516,10724.277582678507,11295.588170956156,11767.522903385508,12352.199834847432,12919.196536445206,13428.145757692548,14049.725419250182,14235.334305207052,14627.719179119968,14452.727371779369,14704.34095911276,14101.581466386495,13941.677086553227,12749.8597204518,12164.467533167308,10429.368666335185,9449.87052081472,7303.678369960591,5975.291845237237,3583.990464686211,2259.962530131642,8.560718126382605,-1389.809118486538,-2723.314192690157,-3163.7106136930724,-3200.1216054107676,-3214.9855154735465,-3217.555966085907,-3219.5676230868844,-3220.4840446095523,-3222.9203847551807,-3225.155559200711,-3227.9495272576246,-3230.5423296144404,-3232.1516552152225,-3234.945623272136,-3188.588105271829,-3142.2305872715224,-3045.1569611021237,-2582.609961343999,-2839.565615602209,-1952.871913060178,-2382.8300694024647,-931.5089501749219,-732.7348867338761,705.3092962872144,1054.5105999124767,2726.4881404028106,3742.4419811298826,5473.785754893513,6899.782347653192,8850.173217078831,10948.97966968771,13052.815264799032,15699.351215285209,18036.829595187857,21187.19621744111,23319.70910068859,26298.92841564756,28061.810500837626,31005.155265945825,32377.55237550168,34889.24025168899,35828.52760893436,38237.419812371714,39053.817278601804,41153.42839401107,41887.593792390086,44005.71215220835,45070.705720270365,47396.67295177853,48993.68274136577,51557.383126900575,53865.75953552241,56841.55903357972,59926.77032074575,63311.785556290815,66998.57169372699,70381.03883040414,74202.22600725008,77770.27967813965,82059.93706702437,85645.62626428918,89655.84214399364,92682.29069498667,95970.41111831798,98055.27008238675,99198.42770080897,99325.63147850413,99365.32817665675,99405.1142817872,99445.21331134002,99484.9323612371,99513.67670460662,99448.81194219732,99454.1763608666,98684.292874848,97725.87242434888,96356.22457936103,94864.71502360285,93170.22927644603,91306.09378887342,89413.92921375386,87315.54744428962,85279.37057964451,82925.41896407832,80700.88394890833,78094.7823041418,75636.98448383623,72716.68436726146,70036.26317218103,66901.00632917957,64098.119926228515,60902.155745286436,58116.14490939915,54976.3283105288,52245.92861484631,49219.86004350901,46687.519155445,43997.57611722662,41702.40958957787,39316.07029629592,37252.80311737098,35198.320174016975,33250.96914183726,31345.997017144804,29482.621488883677,27823.40679447732,25920.960416908314,24273.793312763373,22289.450143510123,20712.154592532468,18754.655868370042,17455.237204460765,15723.692264997038,14727.184441946083,13275.550398296165,12645.946460479077,11613.027645710426,11480.906484235107,10985.033033494119,11221.55919332018,11129.358247442038,11660.525102677955,11984.290121113077,12817.987837551575,13618.69437917404,14695.869647964199,15874.499484836995,17111.780299160517,18567.884691701496,19891.107963455674,21480.473456439195,22727.20905866731,24226.497021495943,25234.85126910821,26523.76461312349,27150.574582883666,28030.182782433367,28221.334901015154,28786.07407642294,28754.580468485412,29094.12581850598,28908.58398778248,29160.890479193986,28977.60617466047,29127.362862511025,28952.169889470326,29088.068495758595,28950.784081314097,28840.433518938247,28472.076770314787,28050.232297209775,27513.96924423805,26742.319970407483,25935.26553335971,24848.1660900314,23934.627942398543,22604.766202541137,21547.640448527392,20036.43900590408,18994.311272419844,17386.170314093866,16246.276050362118,14419.132699863041,13103.576076457033,11058.592624496536,9537.735228268532,7314.630724743692,5666.010757209153,3296.9940658800683,1336.9919463386473,-1036.5174456259545,-2264.92461740072,-2309.6504580557894,-2312.310315645971,-2312.98086797963,-2315.2607459140713,-2318.9040802602867,-2321.2286616836386,-2324.044981485007,-2326.79424605301,-2330.147007721306,-2331.9351472777307,-2333.6115281118787,-2336.5843101244345,-2338.3500979364035,-2341.345231693415,-2344.0944962614176,-2346.7543538515993,-2349.6377288863337,-2352.2752347320597,-2354.108077777395,-2357.0361563010406,-2360.9924150696297,-2296.105300915873,-1512.184919379344,-1118.302478587923,973.6196367287204,3549.6581852028594,6639.831559637972,9936.11036969547,13064.05819226005,16480.969367142843,19386.629091099392,22757.40626542643,25317.06098521483,28502.273977073906,30638.38549117869,33504.77320012727,35288.777683827604,37883.34582845519,39491.732655970176,41978.319523134174,43550.09419323137,45898.927259317315,47407.46884435044,49501.24615445687,50867.04949939841,52613.301886713736,53831.69547697252,55257.245034843094,56324.33966688391,57412.26612475707,58321.49038571005,59145.12981714366,59971.92084454547,60554.496712028595,61323.53083175789,61737.440435581266,62445.70016213658,62753.774255964076,63458.74827608446,63708.08198548341,64350.60523159567,64553.648478227675,65158.017296554724,65258.8013123037,65645.95587801408,65571.68103118909,65768.84576902936,65558.33703974927,65506.659806568605,65102.47321158329,64803.362167282365,64269.267233522805,63779.540512507025,63141.06293214118,62497.3997470617,61813.771642896136,61034.58983118413,60285.31465355333,59441.737466065584,58744.31833557109,57867.68291803395,57161.63601417971,56269.93552087969,55625.08769334408,54752.430886319984,54115.495576321555,53222.83395800996,52568.464287336385,51691.113613976675,51031.58069033393,50122.44583635877,49341.05120194569,48344.275157961274,47488.516269745385,46476.13870813116,45523.015621067956,44440.252416163974,43381.78555748291,42255.61526484672,41093.41396014857,39917.60044307714,38686.9804486013,37560.05019665363,36377.19588007878,35320.80773363206,34118.39564065882,33063.46035760169,31816.233016995553,30743.550448840913,29469.29984918831,28418.96902548898,27184.593937944646,26200.871312722127,25032.053891665208,24090.598415207674,23006.382346914095,22165.643830972174,21221.506145180007,20477.461275751743,19684.376678988538,19077.34800307131,18480.399963903423,17976.010498524964,17532.082501898112,17169.917186488772,16937.570802875853,16677.329442182712,16570.532807175256,16390.95889222132,16418.473889645804,16306.46929818026,16401.687729559868,16306.46929818026,16417.87039254551,16302.669501622857,16402.11241270452,16269.521864595637,16311.230219749239,16121.441557579228,16126.425996592761,15955.077523598377,15965.87341617029,15837.619106485738,15813.613332940738,15705.63205547715,15698.054814106801,15668.774028870348,15646.578746626228,15643.33774368021,15628.674999317527,15701.96636938648,15668.371697470153,15748.92738448708,15697.138392584133,15820.363559766241,15754.11298920071,15844.27992633342,15692.399822759608,15707.844878178226,15463.62971825954,15388.930188289904,15069.836684445942,14918.873002394797,14517.882706866589,14250.77936062567,13777.704689229095,13431.118539705103,12931.534699384536,12509.086729179231,11972.466048296219,11458.599443268711,10897.458898718227,10304.914153208036,9729.133216039327,9057.619757368537,8461.610491467773,7669.397612738325,6993.346749943108,6067.112811459639,5325.727799621559,4264.288158927937,3395.38644497233,2164.7440987520336,1214.3702762568328,-155.4340309422053,-1264.0805559254356,-2518.5722134795446,-2869.6957671279633,-2875.4848689418877,-2878.3905957210777,-2880.670473655519,-2883.822069623717,-2885.766671391329,-2888.113604559136,-2889.9464476044714,-2892.8074708947506,-2894.5285552178093,-2896.1378808185914,-2899.9823808649044,-2902.128148332614,-2904.1621570780467,-2907.4478635129767,-2910.5547559922643,-2911.6946949594853,-2913.795758938284,-2916.0309333838145,-2919.7413229633958,-2921.060075886259,-2924.1669683655464,-2927.117398633647,-2930.3584015796664,-2931.7442097358958,-2933.2864801033115,-2935.655765015574,-2937.6897737610075,-2940.953128451482,-2942.9871371969152,-2863.414926936022,-1616.9698973858235,204.33964781041718,2952.7548495238843,6404.311228312401,9832.912365545317,13710.80591807436,17170.274814400054,21056.818492033304,24270.529958072897,27860.84596643996,30713.93438743763,34024.607720924345,36524.158599872426,39358.42685203873,41372.38608269526,43649.62651129085,45183.89495419204,46971.67688270532,48092.594515394514,49297.912335146946,49883.90801953173,50475.89397143054,50613.29014459731,50727.26168957492,50522.653820831045,50138.67320283332,49559.60655922968,48770.858200890805,47975.38196747089,46855.492515026635,45841.05859292252,44479.72559687205,43415.78256079943,41906.48101645482,40749.71118565931,39118.056192166354,37941.616826250174,36253.523678007565,35079.252431303554,33353.85422156504,32098.043811088064,30343.968313213387,29134.090737592072,27512.181104681626,26321.816601969793,24806.65890057789,23703.600311708487,22434.580020258432,21429.489127336637,20416.441013388758,19498.924255242855,18737.08739722817,17985.733507363024,17668.83047447568,17145.062046654468,17167.72671553215,16947.182052991637,17510.60247547656,17622.808232642205,18529.774967405196,19039.081816563823,20518.186154149313,21618.09314705052,23560.973830339175,25058.540708844746,27217.138077871572,28923.380842611892,31109.71672650775,32900.38203005576,34919.14688577019,36562.33537940209,38274.72487386762,39733.1761995764,41114.58106214775,42325.10683835827,43295.55252737433,44200.88758479209,44826.06587720703,45546.10497309029,45876.03907299508,46395.359503669686,46514.87428127221,46883.23102989567,46784.07869149193,46915.7751698226,46589.03736937492,46531.92866229161,46004.1592722129,45703.930640689214,44976.02373075768,44464.03467226442,43568.64614112928,42861.19107737435,41837.86116097703,40924.70299299991,39737.84771416756,38516.25782445167,37087.10963572379,35608.16176034949,34082.69990476369,32391.432808808426,30751.820594289376,28899.66564174481,27283.07572401473,25393.146323340694,23855.18984260438,21979.34204093719,20574.132570520946,18794.598435711676,17593.706261361393,15928.613058163293,14816.211440111572,13187.305711186615,12081.520209493663,10456.324870148286,9339.587013672235,7749.618023588422,6547.697668993195,4991.390406059076,3822.4388745354267,2439.134113685383,1135.0886386738587,-244.72925004115703,-1523.2043293958104,-2369.75429889611,-3115.073217758324,-3165.945788138603,-3198.042893176424,-3191.7620529844826,-3216.036047462946,-3206.558907813896,-3173.7688986979606,-3080.1150894302236,-3120.325877705321,-2844.214778448913,-2981.0968614932135,-2243.2657770235273,-2261.661262710245,-950.3514707507456,-156.48456293160476,1607.179833314399,2887.800680136762,4801.042950277681,6398.83505092085,8344.50970226642,10157.794971203206,12115.718378510282,14306.234038619286,16443.530195180203,18984.00711822595,21171.66175504467,23895.467686112846,26118.08045125967,28950.15823246935,31122.43486910282,33894.18529202763,35869.25248733193,38397.927689305274,40082.91394506859,42203.647458988125,43534.917358746214,45325.49325531641,46381.36731164066,47737.246482044044,48476.41867118105,49471.69714828696,50051.99313783564,50732.4249425441,51077.96056007869,51348.841351132556,51421.328058401115,51254.38287906443,51037.01216423657,50701.73599740696,50756.497771322465,50540.84814081766,50581.14833607058,50220.97232591776,50262.18894269335,49904.4269209417,50009.94950651521,49680.14951707715,49794.63515217724,49394.74009212734,49303.88025091652,48699.17615642264,48454.5363133593,47836.77880010352,47493.23248782546,46836.471180495166,46379.89209650661,45722.79551300949,45247.30685321175,44735.42955344076,44289.93693470203,43913.89118598595,43541.444068127166,43354.091746102786,43052.65612037851,42991.56880278216,42708.55101448906,42704.66181095384,42444.8674851498,42527.16660823424,42276.22357323451,42310.75701841796,42004.202843213425,42051.119154825115,41750.04115701213,41694.7429412297,41312.662221510676,41167.77821395138,40735.74134537475,40458.24443796211,39938.298158442754,39492.514967026116,38876.523241582305,38265.27008596302,37574.08709217156,36878.29963902231,36219.12434329085,35428.76665935119,34724.93257819803,33857.28256193192,33182.23752763719,32296.90728150693,31659.36847440821,30755.016893746484,30126.239970474242,29177.073142179626,28523.441079073084,27565.579422185354,26918.22819927075,25957.684333048386,25261.47219675448,24255.643696265663,23500.60176856539,22477.428314379253,21613.33222548154,20553.948945277803,19626.150384682463,18592.58336932461,17565.72187730335,16555.758304090297,15569.733449188883,14749.893814312676,13877.594635199863,13309.703863823876,12645.45472210106,12397.640931325072,11948.706143940228,11944.213443304712,11631.154910463682,11791.394566463778,11625.030532482926,11940.3689432584,11883.617864086375,12241.648106771483,12189.121507301512,12450.033420328311,12297.214543487376,12330.518642725783,11988.671063026317,11796.75898513305,11355.401439118557,10986.843524795,10509.924353352113,10004.730225173262,9550.587481330334,8956.612224175004,8570.776411387493,8007.758320302763,7765.733631340699,7142.634051160104,6934.472255047829,6267.5185522459215,6138.5489867388,5511.381389067339,5467.169638534741,4785.128508225502,4636.265890153157,3910.7729686228004,3874.361976905105,3286.1087663303338,3196.2547536199995,2625.5700141870993,2590.2095544588037,2281.017873408541,2299.8827457288203,2209.5593463849245,2313.2043854241833,2519.555690235578,2721.9507362783834,3153.853494388282,3385.5740291564503,4027.6278886351456,4174.657663662156,4844.003003120781,4946.172827025989,5781.569276043091,5808.905459511931,6529.704514706674,6385.714576925586,7114.917888035523,7037.714962686892,7775.613102389944,7683.009825111607,8339.055876619324,8332.93149863857,8989.849268180045,9134.800330972712,9849.340897719967,10196.977579233358,10772.445591979695,11296.370482012091,11872.553750580997,12593.643378453658,13109.231067804227,13922.968676444136,14084.9741202562,14529.058579094242,14059.157855410322,14098.049890762555,13163.299937641614,13139.718847241265,12031.988743780703,11898.54882938252,10760.733277885114,10995.918333043854,10364.168627759056,10936.842672448478,10715.35923664084,11645.504730403987,11954.763466687617,13162.94230973033,13940.738313286105,15305.289960538144,16415.121127977505,17672.36205009962,18873.2542244499,19913.638521866622,21159.301240360885,21914.119650616605,23138.592915367237,23559.096283804927,24565.61768837186,24517.695548259682,25420.437803320623,25380.696401679088,26619.273617181017,26887.293384944605,28383.00506866039,28937.14951719636,30820.66396721172,31959.775919887536,34190.7705892051,35662.454147631426,37842.48683959089,39400.09050370342,41378.175184509186,42829.38454501445,44327.51021713141,45526.01075482497,46494.95887696253,47250.045508151714,47533.957366223025,47908.170271893774,47584.360549969744,47576.380977199195,46824.98238384514,46712.9777923796,45779.926571837255,45692.285381828,44829.35158364196,45013.373495742504,44380.282685790386,44706.34993390441,44262.623102977646,44712.78723630754,44517.52239674597,45123.209967995885,45185.23605885936,45861.577494332494,46130.9383667634,46726.63470824179,47113.252832085236,47622.35851554376,48131.19597806883,48480.01730203835,48905.88508914532,48893.77044365054,49060.201532864754,48716.25288918649,48845.51302737153,48256.65631969647,48156.073469647585,47279.39334862153,46968.90526639286,45797.78561565705,45175.289532576746,43615.85302541888,42584.52118450656,40677.02331269065,39359.92441891723,37315.589167545935,35802.57723362175,33843.960922236554,32600.019288065352,31235.69115825786,30315.738059966334,29355.61887688862,28600.84517012181,28077.2779080007,27489.315270103845,27383.524463596877,27215.573455759702,27889.143274920378,28165.612002088073,29115.784658883174,29488.678811631064,30741.78466102894,31285.62495537102,32646.309750832294,33343.52771562668,34874.19752767057,35662.945886009446,37060.10872842178,37781.51128071681,39022.30131891982,39720.90509187044,40785.36221806553,41455.24399939108,42359.08148993034,43013.11588443707,43605.14653982479,44025.40403907347,44302.09628368572,44646.17903783072,44687.865041239864,44941.40087859641,44894.57397396254,45262.84131560819,45215.09798945165,45621.67622109369,45560.32068256386,45992.13403369594,45938.95923363677,46463.91230391411,46581.7954041714,47154.491800605276,47167.2322949448,47391.420291831535,47132.94471895036,47086.49779397223,46674.59984714983,46423.90268133911,45918.976774093724,45462.263579638435,44832.793752288075,44119.95191811943,43305.00731527893,42277.98936104648,41254.413575460145,39923.03191697978,38706.89585291098,37245.00235855608,36146.41411857773,34706.80531344478,33657.81559441276,32240.089147101542,31298.99129855529,30013.11779178593,29269.631715969055,28167.400141644495,27527.380290911235,26512.29816821792,25927.75534722273,25059.233612922864,24568.702229106693,23852.7311507143,23338.10458637531,22669.653316694894,22136.072473057804,21588.052402502588,21027.001264929924,20552.563137121575,20009.125174179695,19717.412557293483,19188.167952080723,18986.510513604942,18509.18901076186,18510.217191006803,18109.91979955671,18182.428858569725,17823.0575112173,17990.092097531808,17664.15895988452,17787.495885788907,17420.368483110487,17549.002772450778,17274.90333019535,17342.226784494735,17066.540368382975,17137.753026217582,16963.320012488366,16884.35129932777,16663.136084453596,16548.359876675593,16459.802265143666,16217.621113970414,16075.32990876793,15691.237532047931,15561.485655484876,15114.718987312197,15081.526646796066,14578.008899451364,14549.778646204311,13954.1940634482,13852.538329665464,13154.292184626125,13042.421703627313,12377.63612003757,12314.648904162515,11676.461896474588,11503.437042646055,10879.599854898437,10824.838080982934,10483.102260005744,10466.0702307308,10234.975544807381,10214.143718975034,10136.896090137494,9996.035396580148,9897.933590165805,9603.538763944956,9502.35241679578,8841.076057085522,8405.552316373864,7286.691044174558,6638.535158459564,5122.259869844898,4126.713171805522,2045.4751903385152,554.457372958347,-2108.6188684247577,-3258.4373066946637,-3359.8248195439364,-3364.541037624006,-3366.776212069537,-3367.8267440589366,-3369.614883615361,-3370.8665813048583,-3373.325273194942,-3376.2757034630426,-3378.28736046402,-3381.126032009844,-3383.674130877749,-3386.088119278922,-3387.5409826685172,-3389.552639669495,-3391.832517603936,-3394.6935408942154,-3397.9121920957796,-3400.057959563489,-3402.315485753475,-3405.601192188405,-3407.4340352337404,-3409.9150788682796,-3412.7537504141037,-3416.1512155713103,-3417.96170687219,-3419.638087706338,-3421.158006329299,-3424.6895819532374,-3428.221157577176,-3418.900480139313,-3267.6238736657947,-3268.9873300775685,-1966.8194016002897,-886.9842752199502,1282.9677799901701,4509.687961302753,7679.008862854107,11706.234420089057,14869.408591915202,18851.81890151726,21637.896792637923,25596.83777056191,27696.471237715632,30843.239229111583,32178.621849849445,34731.28047362334,35349.6414839794,37294.66793473577,37408.88534890239,38679.64907641996,38281.743321626585,38867.96252345592,38001.74301883495,37742.14985873102,36493.112026824005,35783.55589909028,34573.43245427996,33389.058219082144,31956.42315821924,30206.21451213533,28823.759117574587,26591.959785456635,25007.623434975558,22370.028182271504,20887.57108301772,17711.477602896404,15720.272448095377,11874.654814559795,9514.735283224021,5224.250879794465,2646.4018400194454,-1669.2953311556973,-3281.2807895279875,-3345.5420548369952,-3350.101810705878,-3352.0240607290343,-3355.1086014638668,-3356.963796253657,-3359.1542672102773,-3362.28351143402,-3365.3680521688525,-3367.424412658741,-3370.28543594902,-3373.2358662171205,-3374.912247051269,-3376.81214532997,-3378.9802645421346,-3381.2601424765758,-3383.6070756443833,-3385.7975466010034,-3381.5730668989504,-3381.416604687763,-3372.0735755054448,-3322.184481881199,-3315.4789585446074,-3104.992581008981,-3302.22437408261,-3073.0295864378913,-3298.8492606698587,-3098.555278605852,-3278.620931937806,-2901.0999680876694,-3147.1926745406004,-2686.4114625944453,-2907.5149187463426,-2567.656644303399,-2641.260938794725,-2572.0599379610944,-2533.50317877569,-2852.730793086385,-2756.8194576286623,-3108.501804888464,-3021.97820210197,-3413.4913579811287,-3429.8081314335027,-3452.092820655444,-3454.9538439457233,-3457.2337218801645,-3459.9159312148013,-3461.9722917046897,-3464.16276266131,-3466.777916762581,-3470.6894720422592,-3474.5563238330274,-3475.6515593113377,-3477.3055884010305,-3480.5912948359605,-3484.0111117376223,-3486.8721350279015,-3489.7555100626364,-3492.437719397273,-3495.052873498544,-3496.393978165863,-3499.545574134061,-3501.020789268111,-3504.3735509364074,-3506.7875393375803,-3508.866251571924,-3510.833205083991,-3512.5542894070495,-3514.7894638525804,-3518.186929009787,-3520.9808970667004,-3523.3054784900523,-3525.674763402315,-3528.8040076260577,-3530.949775093767,-3534.0119640841444,-3536.8729873744237,-3539.5551967090605,-3541.8797781324124,-3544.897263633879,-3547.6912316907924,-3548.808818913558,-3550.8428276589907,-3553.5920922269934,-3555.290824805597,-3558.08479286251,-3561.124630108432,-3564.052708632077,-3566.1984760997866,-3334.522644820529,-2908.4983955023763,-2300.5756498069345,565.9014661194642,2708.8302622831184,7335.775474998412,10928.55017525556,16644.00299119985,21132.36738829224,27404.982138273972,32655.876297459163,39537.307862914546,45675.4321665087,53302.07089210402,60834.63112528696,69591.41875403152,78479.16525353972,87548.74319419185,95952.23915007582,98398.59287722026,98559.16780938719,98598.43982439517,98638.4270952257,98678.95080792317,98719.67568632076,98759.46179145119,98799.42671053729,98839.70455404575,98879.75888010966,98918.40504627289,98955.0619071796,98995.20564022132,99035.55053896314,99075.56016153815,99115.56978411315,99156.0040898328,99158.73100265635,98828.75219926264,99007.18617524937,97892.88465891895,97348.61968143222,95926.62405093004,93994.87453638013,92175.19666852913,89437.5103041542,87232.19778921579,83940.43403153826,81789.72682830416,78233.3184162758,76022.73088964593,72180.3319073119,70007.29531136696,66207.94578885386,64341.753940791365,61013.378025696045,59661.38805882789,56996.00958776589,56168.32449058587,54116.94843971115,53655.11669577559,52402.34612254454,52383.280084524165,51922.878852233756,52394.63477070747,52650.964576120925,53095.6301803148,53628.451064640416,53774.56441814476,54503.52186006569,54436.77955112214,55313.549079126016,55002.569258519325,55980.23456099446,55484.76344165367,56559.43531506483,56035.912756432626,57336.11373139784,56821.57657403667,58012.41046338207,57518.90629755334,58844.521205964236,58547.84650180895,59582.35229043392,59284.045908933396,60194.63362629815,60125.41027372006,60890.71165212532,61050.772494169774,61471.72289749658,61520.13677598677,61245.12091220867,60998.51411563327,59854.194206499364,59241.89051889069,57325.519004526024,56285.537038509494,53745.50715035286,52351.22768297526,49105.441463642295,47260.39436583452,43603.805435157476,41579.07266367348,37712.62320430556,35439.87547634548,31490.523396792818,29070.52237636118,25276.29140332835,22742.251782685733,19132.55681187592,16633.52002305031,13434.4713013734,10540.523891511428,7123.970344539923,3969.0216146733305,1043.4464864070997,-2080.925057044632,-2446.0408027220733,-2458.6695383393217,-2462.3128726855366,-2465.9562070317515,-2469.979521033707,-2472.7287856017097,-2475.2768844696147,-2477.48970717069,-2481.356558961458,-2484.038768296095,-2486.005721808162,-2488.6432276538885,-2490.7442916326872,-2494.0299980676173,-2496.354579490969,-2498.8579748699635,-2500.8696318709412,-2503.484785972212,-2507.128120318427,-2510.5702889645445,-2513.1630913213603,-2515.934707633818,-2517.901661145885,-2520.0250768691394,-2522.103789103483,-2524.8977571603964,-2527.7811321951312,-2530.6421554854105,-2533.6819927313322,-2535.716001476765,-2538.9570044227844,-2541.7062689907875,-2543.8073329695862,-2546.221321370759,-2548.1212196494603,-2550.714022006276,-2553.396231340913,-2555.4302400863457,-2557.4195453428683,-2560.0794029330496,-2563.3427576235244,-2565.734394280242,-2567.678996047854,-2569.93652223784,-2573.266932161681,-2575.3456443960245,-2577.513763608189,-2580.6653595763873,-2582.31938866608,-2489.6714078988325,-2484.642265396388,-2257.727355686111,-1972.6308551586694,-2000.414073516616,-1020.9606314850607,-1048.3862219317225,752.4267735990016,1268.7967740055053,3271.2001527786438,3959.790344213289,6265.372784778212,7357.791943286889,9666.4812763311,10734.514681639039,12761.370868846283,13927.975467202124,15761.869044526702,17064.975746271106,18874.952957028505,20587.65537591641,22175.545653765876,23945.89322160402,25277.677211484577,27227.19636287646,28422.947636002024,30491.378067896138,31338.28566530772,33214.62520535293,33782.85125289574,35730.69402345348,36279.02701843107,38239.00678622804,38617.801799512126,40367.697521173664,40693.116568698475,42436.70909842361,42987.90311669149,44639.27234879403,45214.24862316235,46747.84651372988,47593.34595124078,48885.54500169099,49615.19534769003,50384.27417090823,51030.77602753354,51452.24052098281,52351.13827599744,52553.935653440436,53386.02404427815,53225.02442896658,54029.62017412426,53639.068143256685,54641.9462134774,54200.70042618518,55104.11323357979,54644.0472774562,55725.06704629267,55358.140809314355,56360.66125162378,56049.0779339168,57088.09877492175,56990.98044526344,57836.92691766345,57793.206905508865,58505.936980955245,58709.740186898736,59339.6570491382,59834.94935452335,60379.68371864364,61199.50100177539,61609.29788461899,62589.28776851747,62830.5301464236,64010.322274008075,64205.363596125084,65640.05501747788,65753.51247233301,67262.00935387723,67348.57766015264,68848.58087880384,69000.68449982221,70744.00880861387,71063.90697525823,72719.97007369639,73130.63867457374,74862.83181462668,75538.63680823288,77112.51254230888,77881.83723471609,79167.0401891518,80185.18450083549,81534.38049964672,82946.60841782195,84213.34883133756,85788.36450438076,86732.83746633977,88411.00644004422,89166.6518648448,90912.39016203764,91433.67754622431,93263.72662350257,93765.05389989066,95715.4447693163,96094.01626515583,97940.7173920533,98184.01613044932,99339.48956006642,99226.7697127783,99633.05737174241,99421.58751745075,99696.84925041787,99452.23175909898,99689.60728521434,99464.54757029386,99652.59279639636,99567.499705255,99686.09806133487,99657.57723540989,99718.59749777288,99807.91506861629,99828.79159793754,99865.94019722227,99863.10152567644,99848.4164295693,99831.92084216129,99835.6088799964,99795.57690567695,99786.88207708384,99597.09341491383,99643.24976721405,98805.32757107349,99181.79800293423,97727.10177029393,97392.7867284759,95852.19274189386,95334.86161647578,94037.76753398986,93311.13467349228,92275.84657381137,91724.51844507677,91333.56408280898,90866.56908590425,90766.41091900003,90269.35282580291,90721.05922950021,90234.86408410837,90821.39621036008,90247.26930228107,91124.88819657425,90609.7922456017,91528.33718399254,90915.3629440502,91885.3392464327,91220.10662795385,91886.07685399972,91024.10418082526,91519.50824493269,90698.43926411144,90973.83510754528,90283.94851493223,90384.35255102547,89889.08259738477,89840.3557944722,89601.68386717844,89572.0454540307,89843.57444567376,89808.83983479021,90513.59033746604,90701.16617693499,92114.73519977751,92610.63100226296,94449.0396319675,95042.16552283353,97233.9999358654,97850.86337934296,99377.55458087381,99356.20866491899,99740.5916143169,99650.29056671746,99829.23863282664,99704.47119527713,99848.25996735811,99815.89464138683,99867.86244724542,99861.98393845368,99872.69042404776,99876.2219996717,99898.10435749344,99903.826404074,99898.17141272682,99894.10339523594,99890.03537774508,99885.96736025422,99881.80993578552,99877.83132527249,99877.94308399476,99897.63497085989,99898.57374412702,99893.65636034684,99889.72245332271,99885.78854629857,99881.78758404107,99878.45717411724,99890.37065391192,99902.26178196214,99896.60679061494,99892.65053184636,99888.89543877786,99885.11799396492,99881.25114217415,99877.33958689446,99873.98682522618,99886.39204339887,99904.60871512994,99899.33370343849,99895.44449990327,99891.82351730151,99888.11312772192,99884.20157244225,99880.5805898405,99876.95960723874,99879.30654040654,99900.16071798334,99899.35605518294,99894.99746501417,99891.39883415686,99887.50963062163,99883.86629627542,99880.1782584403,99876.6243310719,99872.8692380034,99871.01404321362,99890.34830216746,99899.42311041632,99894.01398825813,99890.28124693409,99886.59320909897,99882.99457824166,99879.39594738436,99875.39498512686,99854.04906917203,99873.2715694036,99688.84732590287,99442.68756421657,99148.71742114038,98526.48955899353,98866.07961250302,97567.06327999393,97986.33730248659,96112.14352990908,95737.19301667131,93304.89853678925,92236.12752391429,89541.02123272672,88154.83309684195,85599.44756024452,84103.06532419508,81740.4412317802,79656.00695085608,77076.41447501356,74674.67482980191,72547.30284777914,70081.6372134253,68216.65235956339,65499.931931487554,63893.82498190701,61342.976849434,60478.29961518045,58516.73287352716,58660.9463287528,57368.68022306922,58095.49189752244,57212.39682583771,58399.967360492636,57822.42063551195,58868.52697950924,58222.36039905076,59240.81763515683,58712.40004448892,59019.37890283811,57927.853814107635,57368.30024341348,55703.430557659936,53681.223533299395,50982.60801823235,47687.08916748633,44302.677429041556,39856.93780862544,36127.705708468646,31744.46156554956,29014.754773945187,25266.031952623365,23264.299126183883,19952.485853729948,18409.25436130218,15018.897058832295,13298.460936362855,9740.644364433809,8005.590201090598,4508.548022335533,2461.5752651185117,-640.4892373668239,-1906.1791188930415,-2027.4596843075378,-2058.059222466853,-2062.1048882132636,-2066.776402804423,-2068.9221702721325,-2025.2021581175518,-2047.129219428208,-1957.6998898625243,-1977.7941081278454,-1978.3081982503174,-1984.67844542008,-2045.7881147608896,-2032.9582134435432,-2069.5927226057916,-2052.9853764754985,-2098.672342142146,-2102.7627113774674,-2106.540156190414,-2108.7529788914894,-2110.4293597256374,-2113.8938801162103,-2116.1290545617408,-2118.543042962914,-2121.0687900863636,-2124.578013965847,-2127.506092489492,-2130.1659500796736,-2132.7140489475787,-2134.7927611819223,-2137.206749583095,-2140.4924560180257,-2142.347650807816,-2144.5604735088914,-2147.8238281993663,-2150.215464856084,-2152.2047701126066,-2155.468124803081,-2158.5303137934584,-2160.8772469612654,-2162.4418690731372,-2165.861685974799,-2169.2367993875505,-2173.1260029227738,-2174.601218056824,-2176.7693372689887,-2179.7868227704553,-2181.731424538067,-2184.2571716615166,-2187.1405466962515,-2189.666293819701,-2192.1696891986953,-2195.6565613337234,-2198.1376049682626,-2199.679875335679,-2202.4738433925922,-2205.021942260497,-2206.7206748391004,-2209.022904517997,-2212.2639074640165,-2214.700247609645,-2217.4048086887374,-2093.3302752173277,-1848.489266453894,-722.6542499845326,4157.715041365032,9129.659429747991,16915.59903807629,23458.98282038961,31581.472644981463,37847.53833383779,45117.08559001513,50325.04204810167,55704.481089649336,58777.175399920394,61001.352787179094,60701.59354228897,58750.10743738502,54579.696605169374,48210.321153440615,40376.52646023351,30398.7747906178,20050.72177061102,8154.877502307595,-6.280840191941285,-2263.49410575558,-2302.050864940985,-2305.0236469535407,-2308.1975946661946,-2311.8632807568647,-2315.1042837028845,-2318.3899901378145,-2320.0887227164176,-2323.106208217884,-2326.1907489527166,-2329.5435106210125,-2332.1586647222834,-2334.818522312465,-2337.9030630472976,-2340.0935340039177,-2341.8369700714316,-2346.173208495761,-2349.503618419602,-2350.732964364644,-2352.3869934543363,-2354.5551126665014,-2356.8796940898533,-2359.2266272576603,-2362.8699616038757,-2366.84857211692,-2368.5249529510684,-2370.7377756521437,-2373.7776128980654,-2376.236304788149,-2378.9408658672414,-2380.6619501903,-2383.388863013847,-2385.9369618817523,-2388.4850607496574,-2390.116738094895,-2391.3460840399366,-2394.1847555857607,-2397.358703298414,-2400.1303196108724,-2316.959478492675,-362.14296366488503,4221.842196207309,12609.49076527247,24084.362278504646,37046.652978259684,52194.92193399929,67904.95728313414,85769.14200414921,97252.41777329658,99396.57591540526,99447.31437531882,99488.59804732777,99529.90407108118,99571.12068785676,99612.516118588,99654.22447374159,99695.48579400609,99736.45654159266,99777.58375139044,99818.9121268883,99858.27354887409,99873.04805195905,99867.99655771215,99865.00142395514,99861.96158670922,99858.96645295221,99859.32408086349,99878.9712642397,99881.80993578552,99877.71956655021,99874.61267407093,99871.52813333609,99868.33183387898,99865.02377569959,99862.81095299852,99878.34541539496,99890.30359867855,99885.20740094275,99881.76523229662,99878.56893283951,99875.3726333824,99872.0198717141,99868.6224065569,99872.60101706994,99893.32108418002,99891.46588939022,99887.53198236608,99884.2239241867,99880.91586600732,99877.38429038339,99873.83036301499,99876.04318571606,99899.89249704988,99901.81474707303,99897.25499120414,99893.90222953586,99890.54946786756,99886.99554049916,99883.30750266404,99879.7759270401,99879.55240959555,99898.90902029384,99901.34536043947,99896.09270049247,99892.04703474607,99888.06842423302,99884.04511023106,99880.24531367366,99878.30071190605,99894.32691268051,99900.69715985027,99895.75742432564,99892.38231091289,99889.14130796687,99885.94500850976,99882.61459858592,99879.19478168426,99872.35514788094,99457.93145393509,98662.65638621527,97561.74356481357,94903.56235546617,92441.47300022519,88734.03385091232,85525.91032098656,81251.18389739799,77744.12813712694,73298.36616496637,69642.4924901119,65132.17867996439,61418.861021859775,57106.40485363065,53685.827992657185,49940.25676730356,46869.104727399914,43672.49234586863,40959.258789927815,38366.747005790116,35980.20654680807,33879.25432673148,31699.288690005385,29929.812840201004,27620.452954823133,25694.64900429833,23154.574412652782,21449.762159557602,19019.56874365434,17436.104111207023,15060.068972118972,13682.396850871666,11393.757032603864,9958.216244961768,7515.841128330366,5777.434203318859,3119.1635869936454,1182.3402264523777,-1067.11698378527,-1969.3451487237394,-1986.6006954432364,-1990.1769745560855,-1993.7979571578453,-1996.7707391704012,-1999.8105764163229,-2003.2974485513507,-2006.9184311531105,-2010.4947102659596,-2014.227451589996,-2017.4237510471048,-2020.9553266710434,-2024.509254039437,-2026.2079866180406,-2027.9514226855545,-2031.5947570317696,-2034.7016495110572,-2037.674431523613,-2039.4625710800376,-2041.8095042478449,-2043.8435129932777,-2046.4363153500935,-2049.0738211958196,-2051.9571962305545,-2054.259425909451,-2056.069917210331,-2059.288568411895,-2062.328405657817,-2065.3905946481937,-2067.5587138603587,-2070.1738679616296,-2073.1690017186406,-2076.2088389645623,-2078.7569378324674,-2080.768594833445,-2083.674321612635,-2087.31765595885,-2089.709292615568,-2092.1679845056515,-2093.8220135953443,-2097.13007177473,-2100.683999143124,-2102.8744700997436,-2105.4449207121042,-2108.3059440023835,-2111.546946948403,-2113.446845227104,-2115.056170827886,-2113.960935349576,-2117.291345273417,-2083.674321612635,-2104.0144090669646,-1983.8737826196889,-2030.5889285312808,-1953.6989276050244,-1971.3344539802617,-1900.4123688235725,-1851.9537868444668,-2027.5043877964483,-2007.1643003421188,-2112.1727957931516,-2096.5936299078026,-2154.5293515359585,-2159.5361422939473,-2162.4418690731372,-2164.1406016517403,-2167.023976686475,-2169.8179447433886,-2172.388395355749,-2174.4224041011817,-2177.842221002844,-2180.3679681262934,-2182.826660016377,-2185.352407139827,-2188.7945757859443,-2190.4933083645474,-2193.0190554879973,-2196.5506311119357,-2198.986971257564,-2201.892698036754,-2204.0384655044636,-2206.5865643723687,-2209.0452562624523,-2211.6827621081784,-2214.2085092316283,-2216.5330906549802,-2219.0811895228853,-2221.1375500127733,-2224.669125636712,-2227.0384105489743,-2229.5194541835135,-2232.179311773695,-2235.2638525085276,-2236.9849368315863,-2239.06364906593,-2242.8187421344214,-2246.3279660139046,-2249.0995823263625,-2251.535922471991,-2254.419297506726,-2255.983919618597,-2259.4931434980804,-2263.0917743553846,-2264.119954600329,-2267.025681379519,-2269.8643529253427,-2272.1665826042395,-2275.4299372947144,-2277.3968908067814,-2279.2967890854825,-2281.9342949312086,-2285.599981021879,-2288.952742690175,-2291.4114345802586,-2293.7807194925213,-2296.731149760622,-2298.7428067615997,-2300.8662224848536,-2304.0625219419626,-2306.767083021055,-2308.5552225774795,-2312.1985569236945,-1709.8413955976243,15670.562168426773,70984.84885511981,98489.27390447544,99481.89252399118,99525.23255649002,99569.8019349339,99614.6618860557,99659.3206714774,99703.17479409871,99745.73251554162,99787.28440848403,99828.27750781507,99859.45819133022,99860.06168843052,99856.39600233985,99853.64673777185,99850.94217669276,99848.39407782485,99850.74101099266,99875.50674384914,99879.28418866209,99875.03735721558,99872.0198717141,99869.0247379571,99866.05195594454,99862.96741520971,99859.97228145269,99863.70502277673,99887.73314806618,99888.1801829553,99883.82159278651,99880.5805898405,99877.56310433902,99874.56797058201,99870.9693397247,99867.03543270058,99865.78373501108,99887.50963062163,99896.13740398138,99890.99650275666,99887.62138934391,99884.53684860907,99881.29584566306,99877.56310433902,99873.9197699928,99877.96543573921,99785.78684160553,98447.05145919937,95941.46560924836,94183.85853574975,92498.69346603077,88225.3752023429,82774.3435233049,79139.65930219404,77155.47259515198,75184.36165861627,71378.32896451103,66496.88678942762,62542.61732609479,59580.49709564413,57805.030978325725,56212.156261462726,53590.207229877386,49466.668005784515,44948.218160655284,41329.448381596616,38782.53415614774,37379.693970643755,37787.65801044202,38691.964887614835,38577.83688042604,38028.162780781124,37091.110597981286,35278.67469533381,32197.620832636458,27136.76120481029,23524.875763043852,21021.458032305007,18723.475184854888,17588.431249669942,17152.77339849155,17878.936872355567,19108.953369731113,20765.664668758473,22925.49138373034,24006.4664490779,23740.12306214846,22764.759989352227,20516.040386681605,16882.63021500471,13114.461376006768,11762.560816116431,12212.70259770186,12791.076337227385,13360.375268504056,12502.358854098184,10682.345710080352,8390.978978989004,6149.277824077347,4494.891106473339,4202.2620680644595,4454.210931564681,4595.652770477864,5374.879285678779,6329.209366942569,6050.527817073801,4491.98537969415,2350.7106126201884,-59.54504722893802,-1121.5434815339424,-1326.4419229557423,-1876.138374345109,-2064.7423940589897,-2070.442088895093,-2073.481926141015,-2075.9182662866433,-2035.7968849893673,-1849.0480600652768,-1966.0817940332645,-2085.2165919800514,-2089.709292615568,-2092.615019394758,-2094.5596211623697,-2097.5324031749255,-2100.996923565498,-2103.768539877956,-2106.0707695568526,-2107.858909113277,-2110.6528771701905,-2113.2903830159166,-2115.972592350554,-2118.4312842406375,-2121.828749397844,-2124.443903499115,-2126.768484922467,-2129.2048250680955,-2132.4905315030255,-2135.262147815484,-2136.9832321385425,-2139.2854618174388,-2142.682926974646,-2145.2310258425505,-2148.583787510847,-2150.483685789548,-2153.18824686864,-2155.065793402886,-2158.1056306488076,-2160.989005683542,-2164.185305140651,-2166.129906908263,-2168.5885987983465,-2171.1814011551623,-2173.014244200497,-2175.830564001866,-2177.6187035582907,-2180.3232646373826,-2183.6089710723127,-2186.1347181957626,-2189.800404286433,-2192.9967037435417,-2195.6342095892683,-2198.092901479352,-2201.2221457030946,-2203.211450959617,-2206.206584716628,-2208.955849284631,-2212.085093508374,-2213.895584809254,-2215.8178348324104,-2218.3882854447706,-2220.511701168025,-2222.0092680465305,-2225.1608640147288,-2228.2677564940163,-2231.352297228849,-2234.3250792414046,-2236.2249775201058,-2236.0014600755526,-2165.2358371300506,-1977.3694249831947,-1751.0803641176658,-1392.2678103766216,-949.7032701615418,-526.2047679668389,-86.59065801985956,393.3907024134043,863.5819987752436,1311.5333094040525,1762.0550706452216,2226.5913756598684,2656.638938979976,3128.7077818760613,3590.405415344884,4007.041931991808,4442.520969214555,4909.918297519481,5406.886983738778,5891.964541907852,6356.8584748337835,6809.369541331475,7259.9136543171,7746.287613664582,8177.5645229297315,8634.031848196013,9085.872362360044,9550.587481330334,10014.922620644882,10454.089695702756,10837.310354388996,11212.909068215975,11562.020964863415,11967.660423238329,12353.697401725936,12732.380656287749,13069.266148718138,13400.519001545788,13772.183808348635,14139.84765289398,14446.021848442775,14752.084285269295,15092.590760301444,15484.640358047529,15778.722259846005,16054.341620724395,16325.580039689547,16589.040051584252,16875.030621889906,17180.221340682667,17514.245809822776,17834.881584034156,18136.808948136444,18403.174686810336,18687.42182104848,18945.98680090747,19203.769469710525,19474.493798553205,19743.05000818372,19979.643223243147,20224.52893549549,20436.155251998338,20671.161493201434,20971.39012472512,21276.849064451348,21494.242131023664,21664.51772028419,21859.7602081013,22099.70618482902,22346.46944361561,22549.13271059188,22727.656093556416,22931.839279155647,23149.1652904946,23361.775083753477,23535.55989689349,23755.836338500543,23962.27705028976,24186.17447449857,24343.798976397393,24462.1738150327,24614.702119195717,24801.227426675254,24985.025821331245,25124.098375332163,25246.585934947245,25373.87911962022,25578.93402325321,25797.064697392547,25989.80378983066,26165.30968729373,26266.786607120826,26430.80370793387,26611.11523045483,26757.697970592737,26877.436265639815,27037.69827338437,27132.737890808334,27247.53645033079,27385.781989786865,27517.16554369516,27627.94078921566,27775.73052355415,27944.620304658452,28096.165132065435,28197.82086584817,28275.917860975012,28352.651399690083,28455.0670927843,28582.98612630202,28683.703086817633,28717.700090134156,28817.388870404826,28903.174865624296,28928.208819414238,28990.950166100287,29072.891661273443,29176.983735201808,29223.430660179933,29234.897105085507,29279.533538762757,29333.55770511123,29363.687856636985,29399.987089632406,29470.3056776888,29569.2792021369,29636.021511080446,29692.97375595257,29732.491640149554,29857.840223054915,29982.719419326717,30081.402371096894,30149.508136452216,30177.60427923254,30198.0784771536,30238.132803217508,30263.054998285177,30335.29583636473,30402.932215086486,30474.904832232576,30549.693769180034,30604.43319135108,30653.53997391939,30676.27169803044,30730.4523265901,30753.586382101344,30823.39088003527,30810.963310118117,30822.295644556958,30883.807645297966,30885.88635753231,30939.93287562524,30977.75202724362,31022.701385343244,31071.67405744482,31068.6342201989,31053.792661880576,31039.018158795618,31019.058050997028,31009.6703183258,30961.725826469163,30892.770694824543,30876.25275567207,30911.859084589374,30934.926084867253,30967.358466071903,30981.104788911915,31027.439955167767,31067.181356809302,31087.11911286344,31055.84902237046,31090.427171042822,31167.02659929116,31224.40352730793,31231.511382044722,31217.072155126592,31227.08573664257,31239.60271353754,31239.401547837446,31239.312140859623,31259.4287108694,31290.00589728426,31310.278929505224,31292.91162406345,31285.49084490429,31297.896063076983,31352.702540481394,31333.792964672204,31294.610356642053,31278.494748889778,31232.628969267487,31194.541596715644,31200.21893980729,31214.725221958786,31271.453949386356,31308.222569015335,31317.185618541913,31337.68216820743,31376.820072748673,31393.248604923323,31418.03668952426,31401.429343393964,31451.229030040387,31416.15914299001,31337.950389140893,31297.784304354707,31289.916490306437,31281.71340009134,31237.65811176993,31226.683405242373,31222.838905196062,31211.70773645732,31193.893396126437,31215.485181270265,31229.455021554833,31200.040125851647,31168.479462680756,31133.454279119287,31150.59806711651,31142.01499724567,31118.366851611958,31165.752549857207,31179.74474188623,31179.141244785937,31152.31915143957,31122.43486910282,31118.009223700672,31144.138412968925,31178.046009307625,31147.871154292963,31176.101407540016,31219.955530161325,31195.83799789405,31156.945962541817,31173.285087738645,31120.02088070165,31069.99767661067,31027.48465865668,30979.89779471133,30960.27296307957,30935.50723022309,30956.137890355338,30939.709358180688,30953.88036416535,30969.437178306245,30951.622837975367,30992.012440206105,30948.337131540437,30929.852238875897,30955.065006621484,30979.540166800045,31016.822876551498,31026.121202244904,30993.241786151146,30947.465413506678,30916.35178522489,30921.760907383075,30912.484933434123,30869.279011402014,30854.01276993904,30871.268316658538,30826.09544111436,30818.04881311045,30830.72225221661,30818.965234633117,30788.835083107366,30715.677823505146,30703.719640221556,30721.332814852336,30740.152983683707,30719.924654951654,30719.455268318092,30715.566064782866,30703.429067543635,30648.421424439126,30584.651897508134,30609.708203042534,30649.181383750605,30675.84701488579,30677.344581764293,30659.507889688957,30627.947226518063,30559.081501851262,30485.9465939935,30484.44902711499,30499.42469590005,30457.470471557437,30400.62998540759,30374.456092650427,30357.02173197529,30331.786612485244,30291.397010254506,30290.055905587185,30288.111303819576,30338.693301521937,30377.272412451795,30388.515339912814,30377.898261296545,30355.926496496977,30356.52999359727,30357.982856986866,30336.167554398486,30372.91382228301,30333.105365408108,30303.779876682747,30289.318298020164,30243.54192537569,30200.693631254868,30223.291244899185,30242.424338152927,30234.33300666011,30245.84415505459,30268.955858821377,30258.69640811639,30267.145367520498,30279.818806626656,30256.617695882047,30264.150233763485,30250.60507662357,30227.761593790245,30211.377765104506,30181.91816591241,30184.35450605804,30199.464285309827,30146.7141683953,30094.656955558894,30103.53059810765,30062.939830176812,30032.89908562888,30050.13228060392,30100.826037028557,30083.01169669768,30077.379057094942,30111.510170878195,30122.28371170565,30086.632679299437,30064.19152786631,30026.75235590367,29994.968175288224,29975.097474467457,29971.990581988168,29991.146026986367,30010.145009773376,29974.918660511812,29933.992616414147,29956.657285291825,29970.98475348768,29961.30644813853,29987.83796880698,29935.087851892455,29938.954703683223,29958.579535314984,29952.589267800962,29940.429918817274,29869.44077842722,29826.033690695014,29831.84514425339,29806.85589395236,29800.32918457141,29790.1814925887,29765.996905088057,29736.559657640417,29695.387744353742,29721.1146022218,29825.609007550363,29877.86738608687,29873.128816262346,29848.27367642804,29833.454469854176,29810.72274574313,29760.967762585613,29714.27496841848,29729.764727326005,29777.530405226997,29771.65189643525,29787.588690231885,29769.79670164546,29749.41191070222,29753.256410748534,29734.39153842825,29737.07374776289,29748.473137435096,29748.74135836856,29731.038776759957,29704.909587491704,29656.473357257055,29616.48608642651,29608.66297586715,29624.398603963687,29632.28876975641,29627.505496442976,29604.32673744282,29622.722223129538,29637.80965063687,29649.38785426472,29653.947610133604,29660.407264281188,29641.2965227719,29639.128403559735,29651.10893858778,29642.592923950306,29627.70666214307,29622.67751964063,29643.688159428617,29640.827136138338,29624.42095570814,29609.825266578828,29599.029374006914,29575.828263262305,29632.355824989776,29654.774624678448,29693.666660030685,29699.83574150035,29688.101075661314,29668.319781818365,29643.95638036208,29665.1011306168,29668.07391262936,29637.072043069846,29630.277112755433,29605.891359554695,29570.75441727095,29569.346257370267,29573.682495794597,29576.118835940226,29598.358821673253,29585.528920355908,29585.23834767799,29575.358876628743,29572.497853338464,29542.255943090433,29537.606780243732,29554.75056824095,29568.586298058784,29586.914728512136,29591.56389135884,29577.348181885267,29559.198565387556,29530.923608651592,29493.797361111327,29475.535985891343,29467.26584044288,29471.31150618929,29501.106381548212,29542.121832623703,29607.254815966466,29632.57934243433,29579.069266208324,29543.731158224484,29511.45523923102,29505.487323461453,29422.227075365434,29372.516795696833,29373.164996286036,29390.53230172781,29398.15424658707,29417.73437472992,29437.985055206427,29380.786941145296,29374.416693975534,29410.62651999313,29489.41641919809,29487.11418951919,29460.359151406188,29424.26108411087,29432.710043514973,29425.445726567,29410.738278715406,29452.960723991484,29479.000506281915,29469.433959655045,29405.53032225732,29385.301993525267,29382.619784190632,29356.892926322573,29397.014307619847,29424.86458121116,29455.709988559483,29460.672075828563,29483.090875517235,29482.64384062813,29433.2464853819,29408.659566481063,29421.422412565043,29408.301938569777,29380.3846097451,29363.66550489253,29323.208847428425,29326.4722021189,29329.735556809374,29349.829775074697,29378.462359721943,29395.85201690817,29457.20755543799,29504.325032749777,29450.904363501595,29396.321403541733,29377.85886262165,29364.939554326484,29385.77138015883,29397.640156464597,29404.032755378816,29385.525510969823,29371.108635796147,29360.826833346706,29354.344827454668,29381.2339760344,29423.59053177721,29456.4028926376,29472.764369578883,29432.710043514973,29357.138795511582,29318.492629348355,29343.437176160478,29389.548824971775,29399.875330910127,29385.525510969823,29366.593583416176,29394.600319218676,29444.623523309652,29491.472779687978,29473.41257016809,29432.26300862587,29381.85982487915,29363.553746170255,29412.705232227476,29431.43599408102,29419.90249394208,29385.6372696921,29396.00847911936,29438.186220906526,29472.58555562324,29483.31439296179,29444.087081442725,29417.376746818634,29374.32728699771,29328.90854226453,29323.857048017628,29363.352580470157,29396.142589586092,29400.657641966063,29360.08922577968,29354.680103621497,29346.231144217392,29372.22622301891,29311.80945775622,29293.972765680883,29303.60636754112,29363.732560125896,29350.2768099638,29380.183444045004,29387.00072610387,29361.58679265819,29384.09499932468,29368.09115029468,29361.698551380465,29374.684914908998,29336.798708057253,29308.970786210393,29340.307931936735,29378.171787044026,29429.02200567985,29385.14553131408,29355.19419374397,29348.108690751636,29329.020300986806,29307.584978054165,29301.304137862226,29362.547917669766,29418.58374101922,29431.30188361429,29412.97345316094,29494.534968678352,29629.919484844148,29668.83387194084,29632.556990689875,29608.37240318923,29578.935155741594,29580.94681274257,29542.099480879246,29513.310434020812,29505.733192650463,29510.114134563704,29503.498018204933,29458.526308360855,29412.05703163827,29463.51074737439,29434.028796437837,29433.022967937348,29428.507915557377,29467.82463405426,29439.05793894028,29400.881159410616,29411.92292117154,29466.282363686845,29451.17258443506,29466.461177642486,29512.483419475964,29562.283106122388,29580.94681274257,29570.1285684262,29607.411278177653,29589.70869656905,29594.71548732704,29624.465659197052,29614.00504279197,29612.261606724456,29606.38309793271,29575.113007439737,29530.856553418227,29530.65538771813,29514.785649154863,29488.03061104186,29510.80703864182,29573.391923116676,29635.95445584708,29651.310104287877,29608.57356888933,29654.037017111426,29681.328497091356,29674.041828398924,29671.15845336419,29661.904831159693,29655.758101434483,29699.902796733713,29714.11850620729,29626.27615049793,29584.90307151116,29587.29470816788,29580.47742610901,29549.162632127125,29525.961521382516,29499.40764896961,29470.171567222067,29458.906288016595,29420.707156742475,29388.72181042693,29332.462469632923,29377.300069010267,29429.603151035688,29489.41641919809,29461.70025607351,29439.549677318297,29415.76742121785,29390.085266838705,29419.634273008618,29506.94018685105,29551.375454828198,29507.297814762333,29488.16472150859,29460.06857872827,29473.904308546105,29448.177450678046,29413.174618861034,29375.95896434295,29401.39524953309,29413.845171194695,29414.716889228454,29412.951101416482,29447.50689834439,29413.644005494596,29397.081362853216,29436.263970883367,29459.330971161246,29485.97425055197,29511.812867142307,29473.59138412373,29408.927787414526,29351.975542542405,29413.465191538955,29414.068688639247,29347.594600629163,29401.171732088536,29404.52449375683,29413.73341247242,29334.51883012281,29302.98051869637,29317.687966547965,29300.588882039654,29302.041745429247,29349.159222741037,29395.986127374905,29411.654700238076,29419.3437003307,29404.47979026792,29398.087191353705,29425.937464945015,29449.339741389722,29453.49716585841,29439.348511618202,29426.138630645113,29431.950084203494,29384.273813280324,29425.49043005591,29533.35994879722,29560.584373543785,29481.861529572194,29474.64191611313,29473.36786667918,29462.527270618353,29433.939389460014,29399.5400547433,29370.706304395953,29364.47016769292,29318.76085028182,29333.84827778915,29342.85603080464,29344.152431983046,29339.838545303173,29404.457438523466,29396.52256924183,29409.26306358136,29391.5381302283,29380.451664978467,29368.71699913943,29364.537222926287,29366.817100860728,29380.362258000645,29405.53032225732,29507.65544267362,29513.288082276355,29493.819712855784,29443.036549453325,29437.560372061776,29467.891689287626,29505.710840906006,29527.392033027656,29537.807945943827,29509.22006478549,29521.982910869472,29578.66693480813,29552.202469373045,29554.95173394105,29568.586298058784,29576.18589117359,29554.057664162836,29544.669931491608,29552.76126298443,29555.19760313006,29510.762335152907,29471.959706778493,29470.05980849979,29496.233701256955,29509.465933974498,29463.421340396566,29435.660473783075,29452.916020502573,29458.883936272137,29415.58860726221,29404.412735034555,29392.119275584137,29401.417601277546,29451.910192002084,29458.280439171846,29378.39530448858,29345.739405839373,29400.948214643984,29387.403057504067,29354.836565832684,29368.649943906064,29479.849872571216,29564.384170101188,29567.80398700285,29596.57068211683,29581.393847631676,29529.761317939916,29513.01986134289,29550.36962632771,29596.190702461092,29614.20620849207,29609.467638667542,29623.973920819037,29677.707514489593,29710.631634072262,29690.179787895657,29656.830985168337,29670.756121963994,29636.267380269455,29557.52218455341,29551.26369610592,29557.343370597766,29543.060605890823,29555.84580371926,29534.544591253354,29482.755599350407,29444.467061098465,29465.455349141997,29491.65159364362,29511.097611319736,29502.3133757488,29486.443637185534,29456.581706593242,29495.049058800825,29501.30754724831,29481.816826083283,29510.896445619637,29506.89548336214,29488.052962786314,29463.600154352207,29461.968477006973,29551.107233894734,29617.804839349374,29623.01279580746,29589.887510524695,29501.37460248168,29458.079273471747,29430.184296391526,29440.73431977443,29429.78196499133,29380.00463008936,29372.516795696833,29373.634382919598,29360.08922577968,29367.10767353865,29386.039601092292,29407.3408135582,29406.20087459098,29468.674000343563,29499.83233211426,29503.386259482657,29465.276535186356,29419.90249394208,29383.357391757658,29393.907415140562,29458.39219789412,29461.70025607351,29486.26482322989,29522.854628903227,29511.321128764288,29472.853776556705,29429.11141265767,29371.62272591862,29308.590806554654,29290.70941099041,29308.411992599013,29345.739405839373,29406.357336802168,29474.619564368673,29495.049058800825,29484.610794140197,29494.3114512338,29421.95885443197,29286.619041755086,29285.03206789876,29336.10580397914,29362.39145545858,29415.029813650825,29468.383427665645,29504.392087983146,29516.08205033327,29516.79730615584,29478.73228534845,29447.01515996637,29429.02200567985,29394.980298874416,29378.79763588877,29354.255420476846,29393.05804885126,29435.1463836606,29456.55935484879,29446.366959377166,29435.3475493607,29408.525456014333,29430.92190395855,29490.489302931943,29531.70591970753,29516.573788711285,29528.151992339135,29522.02761435838,29547.709768737528,29575.850615006762,29555.935210697084,29564.630039290198,29528.12964059468,29521.93820738056,29557.253963619944,29540.646617489652,29526.74383243845,29556.292838608366,29574.397751617165,29560.56202179933,29506.962538595504,29485.840140085238,29455.754692048395,29388.990031360394,29443.5506395758,29501.79928562633,29564.071245678813,29591.049801236368,29621.358766717767,29590.37924890271,29548.51443153792,29499.474704202978,29511.79051539785,29522.340538780754,29492.25509074391,29514.785649154863,29559.533841554385,29618.363632960754,29645.744519918506,29588.412295390644,29567.982800958493,29608.66297586715,29653.478223500042,29631.3946999782,29637.295560514398,29640.335397760322,29637.83200238133,29579.829225519807,29569.99445795947,29558.505661309442,29545.22872510299,29512.349309009234,29511.544646208844,29560.204393888045,29559.310324109832,29524.195733570545,29572.56490857183,29645.58805770732,29653.098243844302,29665.3022963169,29639.10605181528,29661.86012767078,29661.837775926328,29642.168240805655,29629.71831914405,29611.255778223967,29575.403580117654,29600.325775185323,29652.651208955194,29617.06723178235,29600.14696122968,29640.827136138338,29593.977879760016,29553.90120195165,29616.217865493047,29625.359728975265,29609.2888247119,29614.742650358996,29613.982691047513,29560.874946221706,29563.311286367334,29521.60293121373,29522.429945758577,29535.84099243176,29528.308454550322,29547.352140826246,29530.297759806846,29518.719556178996,29541.920666923605,29537.09269012126,29510.516465963898,29521.826448658285,29554.057664162836,29537.94205641056,29548.17915537109,29547.1733268706,29513.980986354472,29477.16766323658,29457.87810777165,29478.17349173707,29510.427058986075,29514.785649154863,29482.621488883677,29531.817678429805,29574.800083017362,29581.2820889094,29563.713617767527,29526.85559116073,29497.08306754626,29478.88874755964,29488.49999767542,29527.59319872775,29529.426041773087,29522.407594014123,29521.08884109126,29509.622396185685,29504.012108327403,29517.020823600393,29513.735117165463,29486.26482322989,29518.764259667907,29584.210167433044,29562.37251310021,29520.865323646703,29520.977082368983,29519.099535834735,29498.670041402584,29486.488340674445,29517.60196895623,29510.158838052612,29471.445616656023,29447.50689834439,29456.49229961542,29440.3990436076,29441.628389552643,29429.62550278014,29403.205740833968,29439.81789825176,29458.16868044957,29432.24065688141,29442.075424441748,29455.06178797028,29475.424227169067,29525.64859696014,29568.51924282542,29588.971089002025,29569.301553881356,29524.620416715195,29494.445561700533,29544.111137880223,29586.892376767682,29597.978842017514,29607.925368300126,29577.482292351997,29556.292838608366,29540.445451789554,29498.22300651348,29467.712875331985,29521.245303302447,29511.03055608637,29497.485398946454,29527.973178383494,29510.94114910855,29482.26386097239,29525.670948704596,29592.90499602616,29636.692063414106,29601.733935086006,29536.28802732087,29528.71078595052,29549.18498387158,29534.61164648672,29569.79329225937,29589.32871691331,29567.982800958493,29568.675705036607,29588.635812835197,29592.2344436925,29589.731048313508,29563.311286367334,29571.04498994887,29559.489138065477,29519.814791657307,29473.434921912543,29484.83431158475,29513.980986354472,29534.544591253354,29552.26952460641,29600.661051352152,29594.22374894902,29547.106271637236,29552.224821117503,29611.032260779415,29612.48512416901,29585.66303082264,29605.980766532513,29623.14690627419,29565.300591623854,29513.153971809625,29478.776988837362,29491.584538410254,29535.550419753843,29525.42507951559,29589.351068657765,29627.259627253967,29648.203211808588,29655.86986015676,29614.072098025335,29590.37924890271,29605.466676410044,29533.270541819402,29471.602078867207,29496.74779137943,29547.016864659414,29546.055739647836,29483.73907610644,29501.441657715044,29566.999324202458,29575.537690584388,29550.48138504999,29625.985577820014,29642.190592550112,29595.922481527625,29549.40850131613,29553.99060892947,29561.210222388534,29509.868265374695,29503.632128671663,29521.580579469275,29536.064509876313,29546.726291981497,29509.37652699668,29488.49999767542,29525.693300449053,29494.423209956076,29398.221301820435,29386.732505170407,29401.216435577448,29417.421450307545,29393.795656418286,29369.231089261903,29381.658659179055,29462.348456662712,29548.313265837824,29572.319039382823,29616.19551374859,29627.885476098716,29587.629984334708,29507.40957348461,29460.605020595198,29462.594325851718,29484.096704017724,29471.378561422654,29465.92473577556,29490.60106165422,29503.095686804736,29498.290061746844,29577.169367929622,29596.078943738812,29563.780673000896,29501.35225073722,29487.40476219711,29508.50480896292,29517.42315500059,29510.896445619637,29536.2209720875,29549.699073994052,29570.553251570855,29556.47165256401,29506.113172306203,29501.50871294841,29518.965425368006,29530.94596039605,29534.008149386427,29601.599824619276,29603.700888598072,29533.203486586033,29500.279367003368,29497.284233246355,29462.951953763004,29433.805278993284,29437.38155810613,29469.389256166134,29512.818695642796,29579.60570807525,29595.65426059416,29577.19171967408,29575.448283606565,29589.842807035784,29582.802007532362,29625.024452808437,29626.074984797837,29649.946647876102,29599.05172575137,29598.872911795726,29630.67944415563,29657.993275880013,29673.572441765362,29628.690138899106,29586.579452345308,29592.01092624795,29620.040013794904,29587.495873867974,29530.49892550694,29479.022858026372,29467.69052358753,29457.16285194908,29442.25423839739,29430.45251732499,29449.339741389722,29480.699238860518,29487.807093597305,29513.533951465364,29582.89141451018,29625.493839442,29643.308179772877,29667.045732384413,29710.005785227513,29726.277855190976,29686.759970993993,29699.791038011437,29713.671471318183,29668.00685739599,29625.24797025299,29583.539615099387,29567.51341432493,29547.150975126147,29530.923608651592,29529.403690028634,29542.21123960152,29586.646507578673,29503.65448041612,29509.018899085393,29539.70784422253,29548.693245493563,29566.552289313353,29590.89333902518,29625.605598164275,29624.085679541313,29584.500740110965,29553.498870551455,29529.806021428827,29550.79430947236,29577.862272007736,29564.60768754574,29559.04210317637,29534.075204619792,29513.466896232,29525.38037602668,29565.635867790686,29594.827246049317,29628.19840052109,29667.090435873324,29681.17203488017,29673.795959209918,29694.940709464638,29624.800935363884,29615.703775370574,29585.394809889178,29544.960504169525,29543.50764077993,29533.024672630392,29519.85949514622,29550.36962632771,29508.348346751733,29496.725439634974,29540.736024467475,29579.71746679753,29554.37058858521,29472.49614864542,29437.78388950633,29457.87810777165,29473.859605057194,29482.487378416943,29522.474649247488,29592.100333225768,29645.968037363058,29618.25187423848,29613.401545691675,29634.501592457487,29602.270376952933,29563.870079978715,29577.75051328546,29571.156748671146,29524.709823693018,29433.31354061527,29427.502087056888,29451.485508857433,29476.49711090292,29426.87623821214,29402.088153611203,29397.30488029777,29379.44583647798,29365.341885726677,29371.95800208545,29441.74014827492,29457.900459516106,29500.279367003368,29509.465933974498,29491.763352365895,29466.572936364766,29521.93820738056,29557.455129320042,29540.37839655619,29529.738966195462,29488.03061104186,29403.384554789613,29403.87629316763,29398.422467520533,29404.90447341257,29401.283490810813,29420.77421197584,29455.709988559483,29513.377489254177,29494.3114512338,29471.847948056216,29486.68950637454,29518.74190792345,29543.21706810201,29535.46101277602,29551.531917039385,29513.064564831802,29459.84506128372,29448.579782078243,29477.480587658953,29511.187018297558,29521.44646900254,29466.483529386944,29492.590366910743,29543.28412333538,29503.3639077382,29481.392142938632,29464.91890727507,29467.623468354162,29523.838105659263,29512.59517819824,29505.353212994723,29532.957617397027,29591.273318680924,29632.311121500865,29576.699981296064,29550.883716450182,29517.020823600393,29530.767146440405,29541.697149479052,29551.733082739484,29601.62217636373,29628.19840052109,29668.342133562823,29649.209040309077,29662.150700348702,29690.939747207136,29672.72307547606,29676.701685989105,29652.114767088267,29628.71249064356,29610.317004956843,29612.060441024358,29581.751475542962,29587.160597701146,29580.164501686635,29582.109103454248,29560.159690399134,29592.122684970225,29655.579287478842,29604.505551398463,29559.355027598744,29563.445396834064,29579.024562719413,29589.373420402222,29623.57158941884,29668.565651007375,29644.515173973465,29635.48506921352,29645.073967584845,29636.066214569357,29592.659126837152,29525.98387312697,29513.377489254177,29537.94205641056,29562.57367880031,29605.0866967543,29652.181822321636,29673.617145254273,29667.313953317876,29637.83200238133,29606.181932232612,29628.220752265544,29700.72981127856,29722.32159642239,29733.564523883408,29767.673285922207,29742.21464898761,29710.676337561174,29707.725907293072,29728.624788358786,29763.761730642527,29771.763655157527,29808.2864055975,29837.701301300684,29832.71686228715,29816.80242023497,29781.956050629145,29749.970704313604,29734.45859366162,29686.87172971627,29657.613296224274,29643.174069306144,29631.66292091166,29657.054502612893,29688.816331483882,29740.73943385356,29736.380843684776,29714.990224241046,29696.01359319849,29689.73275300655,29719.572331854386,29734.480945406074,29771.27191677951,29746.50618392303,29686.603508782806,29646.660941441172,29637.80965063687,29647.86793564176,29639.44132798211,29636.423842480643,29663.804729438394,29646.19155480761,29655.95926713458,29650.796014165404,29686.11177040479,29681.060276157892,29627.170220276144,29640.447156482598,29672.79013070943,29660.96605789257,29647.599714708296,29650.997179865502,29645.275133284944,29636.245028525,29603.455019409066,29584.053705221857,29592.480312881507,29616.28492072641,29606.80778107736,29619.3918132057,29613.736821858507,29633.831040123827,29659.066159613867,29669.213851596578,29669.951459163603,29620.688214384107,29645.409243751677,29654.707569445083,29627.751365631982,29613.937987558606,29580.67859180911,29547.12862338169,29529.56015223982,29545.921629181106,29548.22385886,29528.688434206062,29591.407429147654,29668.96798240757,29727.686015091662,29770.98134410159,29784.16887333022,29760.096044551858,29718.342985909345,29690.805636740406,29669.39266555222,29653.120595588756,29678.91450869018,29706.83183751486,29720.913436521703,29727.88718079176,29608.774734589428,29501.59811992623,29481.92858480556,29510.22589328598,29570.843824248772,29619.10124052778,29612.932159058117,29609.467638667542,29603.991461275993,29572.05081844936,29512.326957264777,29539.104347122237,29568.18396665859,29552.984780428982,29545.675759992097,29588.14407445718,29620.397641706186,29576.632926062695,29522.36289052521,29586.557100600854,29641.162412305166,29669.34796206331,29626.209095264567,29645.141022818214,29645.2974850294,29601.890397297193,29546.413367559122,29546.167498370112,29603.566778131342,29616.933121315615,29549.319094338312,29490.913986076594,29519.881846890672,29564.026542189902,29565.61351604623,29566.731103268994,29545.631056503185,29511.276425275377,29531.95178889654,29546.860402448227,29578.108141196746,29587.04883897887,29534.18696334207,29505.330861250266,29526.140335338157,29541.875963434693,29531.638864474164,29537.003283143436,29545.74281522546,29564.89826022366,29494.1102855337,29468.4057794101,29517.534913722866,29573.45897835004,29626.5443714314,29619.3918132057,29625.762060375462,29654.349941533797,29635.95445584708,29587.1829494456,29583.070228465825,29611.836923579805,29649.186688564623,29727.574256369386,29705.982471225558,29709.894026505237,29708.083535204358,29680.121502890768,29669.72794171905,29695.186578653644,29715.63842483025,29662.73184570454,29614.1391532587,29635.797993635893,29617.693080627094,29654.48405200053,29643.554048961887,29615.86023758176,29645.05161584039,29672.991296409524,29655.579287478842,29602.270376952933,29585.19364418908,29582.1314551987,29579.762170286438,29588.993440746483,29600.638699607694,29595.47544663852,29576.252946406956,29552.247172861957,29580.924460998114,29617.804839349374,29618.631853894218,29584.724257555517,29566.865213735728,29607.1877607331,29653.746444433506,29711.436296872653,29698.002898455015,29697.131180421256,29716.465439375097,29675.2041191106,29629.450098210586,29538.299684321846,29520.59710271324,29538.210277344024,29539.014940144414,29590.781580302904,29601.756286830463,29640.71537741606,29681.306145346898,29664.654095727696,29644.96220886257,29636.78147039193,29603.209150220056,29571.00028645996,29565.61351604623,29545.65340824764,29566.50758582444,29611.389888690697,29632.333473245322,29621.872856840237,29578.823397019318,29540.691320978563,29510.427058986075,29538.389091299665,29559.04210317637,29544.26760009141,29565.121777668213,29620.062365539357,29681.82023546937,29665.190537594623,29693.48784607504,29707.480038104062,29695.320689120377,29697.488808332542,29663.827081182848,29660.094339858813,29627.32668248733,29569.413312603632,29543.127661124192,29596.90595828366,29648.15850831968,29652.852374655293,29678.579232523352,29685.3071076044,29616.06140328186,29596.078943738812,29648.314970530868,29647.778528663937,29618.363632960754,29608.215940978047,29599.09642924028,29599.543464129387,29586.311231411844,29577.415237118632,29588.836978535295,29633.24989476799,29683.183691881146,29734.279779705976,29723.394480156243,29710.005785227513,29693.241976886035,29676.098188888813,29689.241014628533,29677.618107511775,29679.070970901368,29691.990279196536,29667.090435873324,29686.759970993993,29680.16620637968,29667.939802162626,29641.25181928299,29621.33641497331,29603.946757787082,29660.25080207,29691.811465240895,29685.664735515686,29730.3682244263,29768.053265577946,29828.470030840643,29810.70039399867,29810.923911443224,29799.14454211528,29760.632486418785,29756.83268986138,29774.624678447806,29740.091233264357,29710.92220675018,29696.706497276606,29715.772535296983,29728.44597440314,29732.268122704998,29698.49463683303,29657.434482268633,29669.191499852124,29674.22064235457,29645.20807805158,29646.035092596423,29700.34983162282,29698.852264744317,29659.177918336147,29666.889270173226,29706.45185785912,29726.233151702065,29663.514156760473,29605.0866967543,29587.495873867974,29621.515228928954,29638.368444248255,29654.90873514518,29670.86788068627,29657.792110179915,29640.558915204874,29640.402452993687,29696.72884902106,29748.339026968366,29743.823974588395,29729.541209881452,29698.360526366298,29658.663828213674,29618.497743427488,29639.262514026468,29700.34983162282,29724.243846445544,29738.79483208595,29726.479020891074,29690.045677428923,29659.848470669804,29685.664735515686,29782.31367854043,29832.04630995349,29813.56141728895,29783.788893674482,29769.99786734556,29721.628692344275,29743.488698421563,29798.27282408152,29764.678152165194,29695.76772400948,29688.503407061507,29691.07385767387,29701.467418845587,29710.072840460878,29702.07091594588,29714.67729981867,29742.237000732068,29724.065032489903,29680.63559301324,29698.20406415511,29766.108663810333,29765.862794621327,29748.808413601928,29732.044605260446,29691.945575707625,29663.268287571467,29682.714305247584,29700.50629383401,29698.11465717729,29690.87269197377,29682.06610465838,29699.768686266983,29732.55869538292,29795.367097302333,29778.513881983028,29744.98626530007,29694.98541295355,29702.696764790628,29730.30116919293,29717.78419229796,29707.32357589288,29745.41094844472,29722.187485955656,29674.466511543575,29612.887455569205,29580.991516231483,29572.006114960448,29595.117818727234,29630.43357496662,29643.57640070634,29677.48399704504,29681.082627902346,29648.49378448651,29599.05172575137,29667.269249828965,29621.738746373507,29594.983708260504,29662.463624771077,29696.795904254428,29706.518913092485,29654.416996767166,29697.175883910168,29727.194276713646,29723.55094236743,29727.93188428067,29759.425492218197,29795.90353916926,29741.40998618722,29749.65777989123,29757.41383521722,29726.3672621688,29644.716339673563,29588.255833179457,29607.344222944288,29662.597735237807,29710.96691023909,29690.24684312902,29707.033003214958,29729.40709941472,29734.704462850626,29721.539285366453,29720.555808610417,29742.08053852088,29717.270102175487,29661.39074103722,29642.97290360605,29648.829060653337,29612.552179402373,29550.928419939093,29520.574750968786,29554.348236840757,29615.927292815126,29638.167278548157,29662.284810815432,29731.083480248868,29819.50698131406,29809.538103286995,29756.40800671673,29739.666550119706,29678.82510171236,29630.724147644538,29647.24208679701,29640.0448250824,29645.565705962865,29614.675595125627,29552.783614728884,29551.598972272754,29613.110973013758,29690.64917452922,29690.64917452922,29677.036962155937,29655.020493867458,29626.633778409217,29587.22765293451,29577.66110630764,29570.75441727095,29610.562874145853,29651.44421475461,29645.141022818214,29611.43459217961,29572.341391127276,29583.271394165924,29651.57832522134,29710.653985816716,29669.415017296677,29611.680461368618,29616.039051537402,29629.2936359994,29604.10321999827,29567.781635258394,29555.84580371926,29583.539615099387,29572.05081844936,29560.94200145507,29593.463789637543,29557.388074086677,29509.73415490796,29519.904198635126,29515.344442766243,29557.43277757559,29577.303478396356,29562.37251310021,29529.962483640014,29561.970181700013,29575.291821395378,29569.81564400383,29559.489138065477,29509.488285718955,29501.59811992623,29512.483419475964,29551.733082739484,29545.89927743665,29571.112045182235,29588.971089002025,29602.896225797682,29640.06717682686,29692.12438966327,29737.900762307738,29740.98530304257,29656.518060745962,29617.04488003789,29643.799918150893,29654.39464502271,29642.3470547613,29602.359783930755,29548.13445188218,29540.35604481173,29588.926385513114,29612.462772424555,29654.30523804489,29684.480093059552,29647.1973833081,29605.51137989895,29626.700833642582,29604.34908918728,29541.40657680113,29507.633090929165,29512.975157853984,29512.818695642796,29499.89938734763,29542.501812279443,29625.359728975265,29663.402398038197,29727.529552880475,29814.23196962261,29808.733440486605,29768.589707444873,29739.845364075347,29699.2098926556,29682.669601758673,29655.1993078231,29650.326627531842,29635.462717469065,29612.95451080257,29627.259627253967,29653.075892099845,29652.315932788366,29632.177011034135,29637.854354125782,29619.034185294415,29585.081885466803,29564.630039290198,29617.983653305015,29638.882534370725,29592.4356093926,29511.298777019834,29519.3677567682,29570.977934715505,29612.48512416901,29602.493894397485,29580.745647042473,29587.540577356885,29631.595865678297,29645.25278154049,29612.99921429148,29585.19364418908,29583.271394165924,29546.100443136747,29557.812757231328,29590.37924890271,29631.551162189386,29593.597900104276,29556.203431630547,29584.00900173295,29604.170275231634,29587.406466890156,29627.97488307654,29685.575328537863,29708.217645671088,29708.26234916,29673.125406876257,29617.089583526802,29627.751365631982,29650.259572298477,29644.604580951283,29643.15171756169,29658.06033111338,29672.432502798143,29628.846601110294,29616.977824804526,29597.24123445049,29591.89916752567,29588.635812835197,29623.459830696564,29626.633778409217,29624.19743826359,29601.935100786104,29535.617474987208,29486.93537556355,29471.959706778493,29506.247282772936,29494.534968678352,29544.84874544725,29654.349941533797,29702.517950834987,29661.658961970683,29618.654205638675,29606.20428397707,29624.219790008046,29612.99921429148,29673.483034787543,29698.27111938848,29713.984395740557,29711.63746257275,29683.764837236984,29682.848415714314,29698.807561255406,29695.879482731758,29699.589872311342,29669.146796363213,29593.217920448533,29539.70784422253,29526.006224871428,29547.732120481985,29574.95654522855,29512.66223343161,29445.182316921037,29477.011201025394,29514.808000899317,29546.79334721486,29571.402617860156,29591.653298336663,29555.84580371926,29565.166481157125,29618.609502149764,29625.180915019624,29607.210112477558,29653.567630477864,29655.713397945572,29640.49185997151,29660.00493288099,29673.930069676648,29662.48597651553,29606.58426363281,29568.94392597007,29600.504589140965,29585.2830511669,29556.918687453115,29617.156638760167,29631.528810444932,29635.14979304669,29601.2869001969,29595.52015012743,29544.93815242507,29582.444379621076,29592.77088555943,29577.504644096454,29596.190702461092,29650.751310676496,29665.861089928283,29619.235350994513,29603.47737115352,29595.363687916244,29611.94868230208,29637.228505281033,29614.00504279197,29606.181932232612,29577.303478396356,29546.56982977031,29567.021675946915,29581.66206856514,29605.131400243212,29575.56004232884,29545.407539058633,29583.740780799482,29597.308289683857,29561.23257413299,29538.232629088478,29537.338559310265,29595.698964083072,29621.492877184497,29558.930344454093,29531.527105751888,29547.888582693173,29536.869172676707,29507.789553140352,29512.975157853984,29525.156858582126,29529.113117350713,29555.063492663325,29583.47255986602,29557.969219442515,29577.415237118632,29585.126588955714,29606.271339210434,29616.709603871062,29591.496836125476,29529.60485572873,29483.87318657317,29491.852759343717,29527.3696812832,29503.386259482657,29525.447431260043,29577.79521677437,29639.173107048646,29649.34315077581,29630.277112755433,29638.971941348547,29668.319781818365,29617.961301560557,29594.134341971203,29604.416144420644,29605.869007810237,29629.20422902158,29578.71163829704,29541.250114589944,29566.060550935337,29571.156748671146,29575.448283606565,29563.60185904525,29546.234553603477,29521.871152147192,29501.486361203955,29535.550419753843,29521.71468993601,29550.3249228388,29529.98483538447,29515.27738753288,29526.475611504986,29592.99440300398,29586.311231411844,29535.3716057982,29481.682715616553,29481.436846427543,29501.911044348606,29559.444434576566,29585.081885466803,29623.63864465221,29591.407429147654,29551.442510061566,29606.450153166075,29630.500630199986,29632.86991511225,29631.282941255922,29580.298612153365,29571.022638204413,29615.81553409285,29627.72901388753,29603.186798475603,29629.38304297722,29739.890067564258,29772.255393535543,29737.78900358546,29709.849323016326,29692.794941996926,29690.62682278476,29680.523834290965,29666.06225562838,29701.668584545685,29703.747296780028,29666.866918428772,29634.121612801748,29606.1372287437,29615.971996304037,29639.329569259833,29638.591961692808,29595.922481527625,29601.84569380828,29606.09252525479,29610.85344682377,29622.901037085183,29691.2079681406,29682.423732569663,29644.96220886257,29587.071190723324,29599.208187962555,29643.688159428617,29679.406247068197,29693.666660030685,29644.671636184652,29572.09552193827,29523.92751263708,29481.906233061105,29501.709878648508,29576.722333040518,29596.458923394555,29569.70388528155,29578.66693480813,29581.03621972039,29591.675650081117,29593.307327426355,29606.248987465977,29577.23642316299,29579.136321441692,29602.896225797682,29625.2926737419,29598.15765597316,29597.643565850685,29638.234333781522,29662.73184570454,29660.183746836636,29645.610409451772,29636.62500818074,29637.452022725585,29634.568647690852,29639.1954587931,29643.129365817236,29642.548220461398,29676.88049994475,29672.34309582032,29595.408391405155,29604.95258628757,29618.564798660853,29613.20037999158,29605.936063043602,29651.757139176985,29681.037924413435,29621.895208584694,29568.586298058784,29577.482292351997,29568.541594569877,29538.74671921095,29556.739873497474,29555.80110023035,29589.261661679946,29601.108086241256,29585.260699422444,29617.313100971354,29721.092250477344,29702.205026412612,29602.180969975114,29577.61640281873,29597.53180712841,29635.35095874679,29605.466676410044,29607.791257833396,29601.44336240809,29593.262623937444,29646.43742399662,29623.348071974287,29591.94387101458,29643.732862917528,29673.617145254273,29626.119688286748,29587.272356423422,29565.85938523524,29587.115894212235,29581.930289498603,29553.543574040363,29583.852539521762,29597.800028061873,29597.889435039695,29587.071190723324,29613.937987558606,29605.51137989895,29618.92242657214,29635.753290146982,29649.745482176007,29643.241124539512,29664.028246882946,29637.876705870236,29571.156748671146,29519.41246025711,29500.145256536634,29512.438715987053,29502.447486215533,29518.80896315682,29563.400693345153,29581.595013331775,29567.96044921404,29562.216050889023,29585.037181977892,29645.18572630712,29652.80767116638,29662.933011404635,29734.88327680627,29764.901669609746,29729.02711975898,29725.58495111286,29689.620994284272,29633.138136045713,29632.802859878884,29667.425712040153,29660.139043347725,29693.398439097222,29720.935788266157,29739.286570463966,29675.137063877235,29609.579397389818,29580.09744645327,29601.152789730168,29597.420048406133,29604.684365354107,29610.38406019021,29577.32583014081,29576.85644350725,29597.33064142831,29655.579287478842,29627.90782784317,29595.207225705057,29606.047821765882,29650.77366242095,29703.34496537983,29712.665642817694,29647.510307730474,29640.335397760322,29685.68708726014,29676.902851689203,29674.757084221495,29651.3995112657,29610.026432278926,29614.072098025335,29635.32860700233,29641.363578005265,29598.09060073979,29602.00215601947,29621.492877184497,29622.58811266281,29570.307382381845,29565.18883290158,29532.532934252376,29516.730250922472,29502.380430982168,29489.97521280947,29492.366849466187,29509.197713041034,29506.94018685105,29491.964518065994,29458.950991505506,29473.904308546105,29529.358986539723,29543.015902401916,29521.93820738056,29485.88484357415,29493.104457033212,29465.522404375366,29470.998581766915,29454.92767750355,29476.78768358084,29491.338669221244,29509.398878741133,29499.11707629169,29522.13937308066,29488.79057035334,29504.995585083438,29549.386149571677,29603.969109531536,29610.317004956843,29627.48314469852,29619.10124052778,29583.360801143743,29583.405504632654,29535.75158545394,29508.84008512975,29525.93916963806,29566.172309657613,29583.070228465825,29564.65239103465,29571.67083879362,29565.568812557318,29567.580469558296,29551.777786228395,29511.58934969775,29504.2132740275,29502.40278272662,29567.46871083602,29616.01669979295,29604.34908918728,29618.92242657214,29629.494801699497,29614.04974628088,29593.642603593184,29593.106161726257,29621.269359739945,29608.81943807834,29574.95654522855,29556.80692873084,29550.257867605433,29537.673835477097,29549.60966701623,29593.95552801556,29619.011833549957,29609.221769478536,29613.66976662514,29631.707624400573,29614.80970559236,29670.01851439697,29720.712270821605,29690.380953595755,29639.62014193775,29622.074022540335,29651.91360138817,29638.837830881817,29604.013813020447,29573.369571372223,29529.0684138618,29539.305512822335,29549.877887949693,29541.630094245684,29551.554268783842,29554.95173394105,29543.820565202306,29517.020823600393,29487.225948241467,29520.12771607968,29556.4269490751,29575.403580117654,29598.58233911781,29647.644418197207,29597.129475728212,29524.441602759554,29559.46678632102,29572.85548124975,29586.87002502323,29574.46480685053,29558.796233987363,29552.381283328687,29558.23744037598,29518.965425368006,29516.014995099904,29534.678701720084,29561.299629366356,29550.637847261176,29513.64571018764,29538.590256999763,29545.720463481008,29546.94980942605,29530.610684229217,29533.672873219595,29616.262568981954,29653.545278733407,29606.58426363281,29573.011943460937,29570.37443761521,29577.37053362972,29591.3850774032,29624.309196985865,29605.869007810237,29598.80585656236,29614.250911980977,29573.86130975024,29554.37058858521,29599.655222851663,29599.878740296215,29585.975955245016,29592.39090590369,29576.81174001834,29542.814736701817,29542.725329723995,29614.519132914444,29666.06225562838,29688.503407061507,29697.041773443434,29741.65585537623,29716.711308564107,29672.857185942794,29665.39170329472,29643.665807684163,29616.039051537402,29595.47544663852,29588.09937096827,29579.60570807525,29572.989591716483,29560.204393888045,29526.050928360335,29483.984945295448,29491.808055854806,29493.104457033212,29504.257977516412,29512.371660753688,29462.370808407166,29490.98104130996,29536.46684127651,29541.89831517915,29545.74281522546,29560.56202179933,29553.118890895712,29493.73030587796,29499.40764896961,29537.09269012126,29535.483364520474,29552.984780428982,29577.14701618517,29605.399621176675,29666.21871783957,29631.61821742275,29610.540522401396,29631.282941255922,29633.2945982569,29636.133269802725,29694.024287941967,29682.356677336298,29605.2878624544,29534.83516393127,29560.47261482151,29573.593088816775,29563.55715555634,29517.13258232267,29513.824524143285,29500.12290479218,29509.108306063215,29559.13151015419,29580.499777853463,29620.82232485084,29610.540522401396,29569.882699237194,29543.261771590922,29590.602766347263,29626.209095264567,29619.838848094805,29610.115839256745,29550.61549551672,29518.138410823158,29485.68367787405,29480.36396269369,29483.180282495057,29460.82853803975,29457.16285194908,29465.20947995299,29469.21044221049,29529.493097006452,29530.74479469595,29564.540632312375,29590.89333902518,29609.825266578828,29616.01669979295,29570.732065526496,29489.59523315373,29497.88773034665,29502.827465871273,29553.856498462737,29596.05659199436,29608.640624122698,29611.009909034958,29605.37726943222,29558.393902587166,29530.454222018034,29551.822489717306,29558.505661309442,29596.257757694457,29644.716339673563,29660.42961602564,29637.38496749222,29688.83868322834,29708.48586660455,29651.555973476887,29652.58415372183,29654.01466536697,29649.0972815868,29626.72318538704,29592.122684970225,29594.268452437933,29574.129530683702,29624.175086519135,29711.97273873958,29720.756974310516,29716.487791119554,29736.425547173687,29757.950277084146,29721.87456153328,29671.06904638637,29637.653188425684,29641.54239196091,29706.40715437021,29756.095082294356,29717.82889578687,29729.1165267368,29720.868733032792,29649.745482176007,29650.326627531842,29660.407264281188,29667.53747076243,29624.95739757507,29592.726182070517,29627.438441209608,29704.373145624777,29751.51297468102,29688.279889616955,29637.42967098113,29632.2440662675,29649.566668220363,29606.651318866174,29603.566778131342,29575.202414417556,29552.448338562055,29559.46678632102,29555.46582406352,29539.394919800154,29532.868210419205,29559.980876443493,29546.346312325757,29515.344442766243,29509.018899085393,29486.823616841273,29471.31150618929,29539.305512822335,29520.619454457697,29489.349363964724,29513.332785765266,29506.336689750755,29549.721425738506,29533.114079608215,29509.242416529945,29531.03536737387,29530.90125690714,29517.870189889694,29525.31332079331,29535.349254053745,29515.92558812208,29489.349363964724,29468.83046255475,29483.20263423951,29526.721480693996,29613.893284069694,29579.136321441692,29514.763297410405,29521.71468993601,29500.189960025546,