30469 
30356 
30227 
30080 
29936 
29817 
29766 
29721 
29701 
29653 
29622 
29606 
29575 
29546 
29543 
29569 
29618 
29640 
29677 
29695 
29744 
29844 
29961 
30021 
30062 
30126 
30222 
30284 
30463 
30612 
30698 
30772 
30858 
30947 
31067 
31207 
31356 
31496 
31600 
31695 
31797 
31932 
32011 
32072 
32178 
32268 
32323 
32462 
32650 
32737 
32772 
32806 
32861 
32942 
33082 
33153 
33205 
33266 
33320 
33400 
33476 
33602 
33682 
33635 
33651 
33676 
33744 
33866 
33921 
33926 
33993 
33990 
33968 
34017 
34025 
34041 
34091 
34178 
34271 
34369 
34384 
34446 
34523 
34533 
34501 
34428 
34416 
34418 
34405 
34474 
34582 
34615 
34613 
34681 
34727 
34687 
34669 
34663 
34653 
34704 
34757 
34826 
34897 
34920 
34954 
34993 
35047 
35080 
35107 
35107 
35124 
35133 
35131 
35162 
35169 
35148 
35157 
35139 
35102 
35159 
35186 
35231 
35311 
35269 
35301 
35363 
35336 
35376 
35458 
35474 
35470 
35457 
35418 
35383 
35357 
35357 
35417 
35438 
35485 
35485 
35438 
35427 
35450 
35456 
35454 
35425 
35402 
35395 
35336 
35322 
35290 
35260 
35248 
35225 
35179 
35140 
35136 
35227 
35285 
35301 
35322 
35295 
35274 
35270 
35290 
35319 
35343 
35331 
35268 
35239 
35193 
35118 
35070 
34963 
34856 
34648 
34455 
34225 
34039 
33844 
33587 
33297 
33021 
32752 
32436 
32131 
31844 
31547 
31240 
30920 
30592 
30287 
30005 
29790 
29493 
29222 
28988 
28747 
28475 
28270 
28054 
27840 
27678 
27521 
27410 
27313 
27173 
27094 
27024 
26919 
26855 
26785 
26786 
26760 
26741 
26769 
26813 
26895 
26967 
27015 
27093 
27151 
27223 
27315 
27399 
27489 
27563 
27642 
27795 
27950 
28050 
28122 
28219 
28393 
28578 
28768 
28856 
28926 
29054 
29208 
29408 
29658 
29826 
29931 
30041 
30131 
30268 
30423 
30583 
30704 
30821 
30992 
31090 
31199 
31313 
31441 
31534 
31657 
31804 
31872 
31874 
31941 
32048 
32132 
32215 
32345 
32385 
32425 
32483 
32578 
32688 
32829 
32907 
32996 
33069 
33106 
33107 
33192 
33327 
33406 
33453 
33468 
33521 
33566 
33705 
33894 
33978 
34060 
34102 
34136 
34154 
34167 
34260 
34340 
34447 
34574 
34630 
34670 
34664 
34688 
34734 
34832 
34930 
35051 
35218 
35295 
35347 
35411 
35523 
35596 
35628 
35696 
35737 
35821 
35905 
35962 
35982 
35963 
35993 
36045 
36035 
36020 
36031 
36037 
36091 
36163 
36214 
36208 
36199 
36214 
36226 
36251 
36230 
36223 
36265 
36293 
36316 
36352 
36341 
36365 
36404 
36412 
36412 
36450 
36416 
36337 
36255 
36197 
36199 
36222 
36212 
36147 
36165 
36191 
36199 
36222 
36197 
36167 
36167 
36186 
36131 
36097 
36045 
36005 
35936 
35830 
35804 
35807 
35820 
35803 
35847 
35922 
35922 
35852 
35816 
35793 
35787 
35798 
35795 
35688 
35572 
35552 
35577 
35566 
35596 
35558 
35487 
35388 
35309 
35255 
35194 
35127 
35058 
34983 
34866 
34806 
34693 
34510 
34263 
34022 
33768 
33518 
33312 
33033 
32696 
32351 
32026 
31706 
31341 
30990 
30682 
30345 
30059 
29731 
29388 
29129 
28868 
28572 
28246 
27923 
27741 
27580 
27372 
27125 
26916 
26767 
26676 
26608 
26414 
26315 
26274 
26205 
26118 
26099 
26114 
26148 
26218 
26270 
26294 
26318 
26344 
26400 
26475 
26646 
26791 
26904 
26965 
26995 
27046 
27156 
27287 
27403 
27533 
27637 
27768 
27982 
28173 
28340 
28549 
28802 
28998 
29118 
29309 
29462 
29586 
29762 
29921 
30045 
30149 
30318 
30510 
30693 
30796 
30916 
31038 
31168 
31284 
31411 
31520 
31592 
31695 
31815 
31931 
32069 
32196 
32344 
32489 
32574 
32679 
32726 
32790 
32841 
32886 
32980 
33145 
33311 
33381 
33427 
33407 
33408 
33442 
33516 
33671 
33782 
33880 
33960 
33990 
34040 
34098 
34170 
34231 
34306 
34341 
34340 
34420 
34516 
34640 
34690 
34782 
34839 
34867 
34931 
35000 
35066 
35077 
35101 
35200 
35369 
35491 
35525 
35553 
35582 
35684 
35753 
35816 
35841 
35834 
35832 
35846 
35847 
35876 
35925 
36004 
36037 
36031 
36084 
36129 
36118 
36090 
36119 
36182 
36227 
36253 
36327 
36399 
36395 
36373 
36376 
36421 
36441 
36416 
36343 
36292 
36280 
36240 
36147 
36122 
36134 
36077 
36086 
36118 
36136 
36119 
36091 
36113 
36102 
36050 
35982 
35921 
35926 
35932 
35930 
35894 
35839 
35811 
35777 
35672 
35610 
35602 
35584 
35550 
35536 
35588 
35602 
35531 
35482 
35494 
35507 
35481 
35445 
35401 
35370 
35400 
35403 
35397 
35359 
35343 
35307 
35281 
35290 
35272 
35210 
35136 
35103 
35059 
35048 
35043 
34951 
34802 
34628 
34424 
34215 
33945 
33649 
33387 
33120 
32901 
32668 
32397 
32080 
31725 
31353 
31006 
30595 
30227 
29861 
29584 
29280 
28942 
28704 
28504 
28240 
28017 
27770 
27558 
27356 
27112 
26980 
26857 
26721 
26567 
26429 
26365 
26334 
26274 
26255 
26232 
26208 
26198 
26203 
26244 
26335 
26420 
26511 
26587 
26625 
26705 
26800 
26933 
27049 
27170 
27384 
27584 
27702 
27853 
28065 
28277 
28447 
28599 
28791 
29013 
29212 
29352 
29497 
29593 
29784 
29999 
30148 
30273 
30444 
30571 
30677 
30758 
30833 
30954 
31026 
31085 
31185 
31314 
31401 
31438 
31488 
31558 
31645 
31771 
31830 
31890 
31951 
31964 
32024 
32102 
32184 
32272 
32327 
32384 
32437 
32470 
32506 
32572 
32673 
32696 
32755 
32880 
32959 
33040 
33145 
33255 
33309 
33372 
33458 
33511 
33581 
33615 
33682 
33759 
33862 
33957 
34062 
34132 
34204 
34267 
34297 
34331 
34407 
34484 
34496 
34585 
34726 
34788 
34832 
34928 
35009 
35092 
35133 
35116 
35107 
35146 
35238 
35310 
35305 
35395 
35470 
35536 
35583 
35619 
35627 
35620 
35643 
35704 
35747 
35755 
35781 
35826 
35844 
35831 
35841 
35862 
35873 
35888 
35922 
35966 
35974 
35977 
35946 
35938 
35899 
35875 
35898 
35924 
35980 
36020 
36020 
36015 
36038 
36022 
36050 
36060 
36010 
35911 
35869 
35837 
35812 
35842 
35853 
35830 
35838 
35851 
35795 
35699 
35642 
35607 
35532 
35512 
35430 
35272 
35103 
34871 
34625 
34440 
34172 
33868 
33585 
33320 
33008 
32620 
32221 
31856 
31537 
31202 
30832 
30494 
30215 
29948 
29676 
29427 
29143 
28875 
28649 
28483 
28238 
28009 
27866 
27767 
27651 
27520 
27402 
27323 
27278 
27224 
27152 
27148 
27167 
27201 
27222 
27251 
27329 
27392 
27423 
27494 
27571 
27644 
27749 
27844 
27932 
28077 
28249 
28359 
28495 
28649 
28782 
28948 
29167 
29378 
29489 
29713 
29931 
30051 
30207 
30366 
30489 
30638 
30748 
30869 
31021 
31166 
31264 
31328 
31422 
31515 
31567 
31668 
31728 
31867 
32010 
32154 
32243 
32293 
32401 
32493 
32518 
32577 
32667 
32704 
32788 
32837 
32855 
32888 
32942 
32986 
33033 
33127 
33140 
33166 
33216 
33294 
33350 
33413 
33499 
33504 
33568 
33626 
33677 
33749 
33852 
34006 
34144 
34216 
34272 
34332 
34361 
34412 
34478 
34535 
34578 
34605 
34657 
34748 
34838 
34895 
34969 
35047 
35117 
35213 
35283 
35330 
35356 
35444 
35547 
35573 
35571 
35642 
35742 
35820 
35853 
35902 
35873 
35878 
35919 
35976 
35984 
36005 
36031 
36030 
36017 
36021 
36078 
36138 
36144 
36091 
36093 
36101 
36191 
36283 
36277 
36200 
36174 
36217 
36259 
36277 
36274 
36213 
36178 
36179 
36144 
36207 
36176 
36063 
36068 
36111 
36143 
36103 
36053 
36037 
36006 
35947 
35877 
35876 
35866 
35785 
35755 
35796 
35814 
35796 
35791 
35726 
35712 
35704 
35680 
35654 
35577 
35579 
35544 
35495 
35410 
35405 
35385 
35368 
35293 
35226 
35079 
34968 
34861 
34755 
34617 
34435 
34170 
33962 
33751 
33454 
33075 
32675 
32298 
31940 
31564 
31206 
30818 
30444 
29997 
29572 
29211 
28904 
28507 
28085 
27700 
27349 
27124 
26869 
26579 
26330 
26133 
25882 
25675 
25543 
25337 
25106 
24944 
24812 
24709 
24656 
24591 
24561 
24579 
24616 
24576 
24481 
24467 
24486 
24528 
24605 
24642 
24700 
24730 
24847 
24986 
25127 
25262 
25365 
25461 
25614 
25750 
25987 
26159 
26269 
26429 
26625 
26821 
27036 
27223 
27450 
27615 
27821 
28038 
28193 
28365 
28490 
28733 
28948 
29104 
29295 
29498 
29671 
29848 
29981 
30121 
30261 
30451 
30625 
30699 
30813 
30956 
31112 
31279 
31428 
31506 
31611 
31744 
31867 
32013 
32138 
32220 
32310 
32424 
32558 
32672 
32714 
32779 
32892 
32978 
33075 
33220 
33281 
33380 
33496 
33597 
33705 
33808 
33941 
34049 
34125 
34280 
34341 
34398 
34566 
34643 
34683 
34782 
34923 
35120 
35211 
35237 
35308 
35408 
35462 
35525 
35624 
35685 
35736 
35810 
35888 
35963 
36070 
36142 
36190 
36231 
36299 
36341 
36383 
36472 
36532 
36585 
36641 
36715 
36712 
36735 
36805 
36822 
36879 
36963 
36998 
37011 
37017 
37047 
37071 
37070 
37035 
37035 
37003 
36973 
36961 
36984 
37070 
37109 
37103 
37096 
37120 
37150 
37177 
37226 
37257 
37241 
37185 
37174 
37139 
37064 
37009 
36944 
36847 
36819 
36813 
36837 
36838 
36811 
36782 
36730 
36700 
36689 
36707 
36691 
36636 
36596 
36487 
36345 
36327 
36419 
36441 
36426 
36427 
36382 
36348 
36302 
36311 
36297 
36197 
36139 
36072 
36036 
36054 
36067 
36061 
36044 
36026 
36001 
35940 
35957 
35943 
35908 
35883 
35773 
35630 
35535 
35497 
35366 
35190 
34944 
34620 
34325 
34016 
33681 
33333 
33005 
32662 
32320 
31908 
31452 
31015 
30614 
30182 
29786 
29383 
29040 
28690 
28292 
27970 
27694 
27350 
26990 
26710 
26504 
26267 
26002 
25748 
25525 
25374 
25251 
25065 
24900 
24820 
24747 
24727 
24717 
24675 
24708 
24746 
24804 
24858 
24862 
24877 
24972 
25078 
25169 
25283 
25367 
25465 
25579 
25757 
25924 
26054 
26196 
26295 
26422 
26600 
26801 
27081 
27278 
27421 
27617 
27855 
28080 
28293 
28468 
28618 
28781 
28997 
29167 
29346 
29533 
29740 
29992 
30156 
30288 
30419 
30571 
30643 
30702 
30832 
31006 
31192 
31320 
31375 
31466 
31568 
31581 
31570 
31644 
31786 
31891 
32016 
32096 
32134 
32202 
32312 
32434 
32508 
32521 
32553 
32682 
32842 
32995 
33093 
33150 
33243 
33393 
33591 
33659 
33683 
33779 
33864 
33953 
34048 
34135 
34182 
34302 
34383 
34436 
34515 
34643 
34708 
34742 
34831 
34956 
35027 
35075 
35193 
35322 
35425 
35525 
35582 
35629 
35684 
35799 
35854 
35884 
35906 
35936 
36009 
36098 
36167 
36185 
36231 
36321 
36406 
36427 
36468 
36483 
36519 
36505 
36489 
36496 
36460 
36480 
36510 
36570 
36592 
36575 
36588 
36609 
36605 
36589 
36595 
36607 
36667 
36642 
36592 
36529 
36541 
36511 
36522 
36511 
36434 
36380 
36382 
36392 
36395 
36376 
36406 
36422 
36363 
36278 
36188 
36143 
36125 
36126 
36141 
36119 
36051 
36044 
36043 
36047 
36067 
36053 
36023 
35991 
35975 
35955 
35938 
35977 
35978 
35892 
35818 
35766 
35762 
35677 
35589 
35574 
35564 
35556 
35560 
35547 
35556 
35535 
35491 
35479 
35449 
35475 
35476 
35355 
35205 
35068 
34902 
34721 
34542 
34316 
34067 
33786 
33503 
33167 
32841 
32474 
32138 
31781 
31402 
31031 
30658 
30267 
29914 
29616 
29287 
28971 
28617 
28281 
27967 
27668 
27474 
27301 
27045 
26783 
26546 
26318 
26187 
26063 
25943 
25831 
25750 
25694 
25721 
25672 
25639 
25657 
25666 
25712 
25747 
25854 
25979 
26083 
26159 
26236 
26354 
26477 
26595 
26748 
26881 
27062 
27209 
27340 
27505 
27642 
27836 
28107 
28315 
28521 
28729 
28875 
29020 
29160 
29283 
29416 
29562 
29715 
29851 
29997 
30142 
30284 
30410 
30542 
30607 
30679 
30773 
30957 
31108 
31158 
31152 
31221 
31272 
31338 
31382 
31427 
31509 
31565 
31599 
31659 
31687 
31718 
31779 
31894 
31984 
32043 
32132 
32195 
32198 
32260 
32388 
32445 
32506 
32585 
32699 
32779 
32824 
32853 
32878 
32982 
33092 
33215 
33324 
33369 
33373 
33405 
33449 
33497 
33580 
33673 
33749 
33847 
33912 
34039 
34120 
34094 
34123 
34205 
34258 
34361 
34448 
34500 
34585 
34642 
34705 
34773 
34844 
34937 
35003 
35049 
35088 
35185 
35291 
35341 
35408 
35496 
35541 
35546 
35524 
35594 
35679 
35718 
35695 
35685 
35721 
35788 
35806 
35786 
35825 
35905 
35940 
35979 
35883 
35778 
35742 
35757 
35776 
35801 
35830 
35813 
35810 
35814 
35819 
35783 
35794 
35787 
35785 
35801 
35756 
35664 
35637 
35611 
35534 
35488 
35422 
35435 
35490 
35501 
35514 
35494 
35460 
35377 
35313 
35290 
35263 
35218 
35155 
35124 
35158 
35129 
35117 
35088 
35019 
34986 
34968 
34920 
34832 
34697 
34572 
34429 
34335 
34181 
33959 
33721 
33458 
33090 
32740 
32397 
32096 
31750 
31397 
30998 
30607 
30283 
29947 
29527 
29162 
28874 
28510 
28139 
27795 
27484 
27192 
26874 
26635 
26415 
26130 
25883 
25745 
25604 
25433 
25248 
25108 
25040 
25008 
24884 
24876 
24883 
24805 
24829 
24863 
24872 
24851 
24888 
24968 
25085 
25230 
25357 
25446 
25537 
25673 
25793 
25962 
26148 
26297 
26444 
26563 
26741 
26957 
27186 
27391 
27554 
27767 
28011 
28172 
28343 
28532 
28706 
28929 
29099 
29224 
29403 
29587 
29764 
29874 
30023 
30215 
30401 
30544 
30644 
30712 
30833 
30952 
31052 
31127 
31253 
31286 
31408 
31558 
31620 
31685 
31750 
31854 
31924 
32009 
32057 
32108 
32174 
32193 
32230 
32337 
32507 
32602 
32700 
32771 
32839 
32931 
32994 
33077 
33171 
33288 
33385 
33446 
33482 
33582 
33712 
33753 
33790 
33841 
33873 
33988 
34151 
34313 
34406 
34486 
34510 
34530 
34625 
34695 
34741 
34786 
34850 
34946 
35048 
35090 
35167 
35220 
35292 
35364 
35401 
35464 
35556 
35591 
35614 
35618 
35610 
35650 
35666 
35713 
35794 
35810 
35820 
35876 
35936 
36001 
35993 
35984 
35962 
35992 
36020 
35998 
36002 
36011 
36026 
36104 
36090 
36047 
36029 
36012 
36038 
36026 
35985 
35990 
36014 
36060 
36075 
36077 
36082 
35999 
35953 
35924 
35878 
35841 
35830 
35864 
35885 
35814 
35743 
35667 
35595 
35580 
35561 
35539 
35522 
35532 
35525 
35507 
35506 
35526 
35493 
35463 
35379 
35286 
35226 
35219 
35182 
35197 
35187 
35123 
35076 
35026 
34960 
34931 
34931 
34843 
34746 
34743 
34728 
34706 
34642 
34597 
34602 
34568 
34543 
34599 
34582 
34557 
34540 
34503 
34483 
34423 
34247 
34117 
33989 
33770 
33591 
33379 
33037 
32740 
32450 
32048 
31657 
31268 
30892 
30493 
30028 
29652 
29240 
28794 
28425 
28054 
27676 
27270 
26917 
26574 
26229 
25922 
25599 
25326 
25012 
24721 
24513 
24332 
24128 
23907 
23699 
23574 
23465 
23409 
23379 
23318 
23269 
23270 
23297 
23311 
23312 
23340 
23448 
23555 
23637 
23725 
23806 
23966 
24056 
24179 
24324 
24483 
24593 
24717 
24863 
25068 
25292 
25565 
25779 
26000 
26181 
26397 
26607 
26778 
26975 
27237 
27454 
27560 
27723 
27936 
28208 
28424 
28555 
28692 
28807 
28933 
29126 
29297 
29510 
29708 
29829 
29931 
29992 
30106 
30235 
30382 
30455 
30519 
30580 
30649 
30732 
30831 
30985 
31053 
31162 
31339 
31447 
31545 
31655 
31762 
31843 
31909 
31949 
32070 
32193 
32220 
32269 
32363 
32480 
32595 
32718 
32856 
32949 
33048 
33151 
33242 
33356 
33443 
33537 
33613 
33681 
33780 
33906 
33995 
34112 
34207 
34302 
34363 
34458 
34556 
34656 
34656 
34671 
34773 
34847 
34948 
35070 
35165 
35235 
35291 
35349 
35459 
35580 
35697 
35745 
35771 
35792 
35846 
35892 
35924 
36007 
36125 
36154 
36199 
36259 
36283 
36246 
36231 
36233 
36253 
36241 
36273 
36261 
36202 
36171 
36183 
36252 
36320 
36302 
36234 
36209 
36265 
36285 
36274 
36239 
36186 
36131 
36147 
36160 
36172 
36134 
36119 
36127 
36117 
36074 
36035 
36042 
36041 
36001 
35928 
35897 
35899 
35931 
35949 
35886 
35835 
35785 
35755 
35709 
35616 
35490 
35447 
35430 
35396 
35425 
35435 
35448 
35476 
35419 
35386 
35411 
35389 
35377 
35299 
35192 
35133 
35154 
35111 
35081 
35067 
35053 
35010 
34997 
34938 
34927 
34914 
34835 
34736 
34673 
34646 
34594 
34539 
34467 
34422 
34390 
34322 
34246 
34126 
33990 
33823 
33646 
33480 
33246 
32977 
32687 
32353 
31996 
31629 
31239 
30822 
30417 
30044 
29611 
29175 
28757 
28340 
27909 
27533 
27186 
26864 
26578 
26236 
25872 
25573 
25270 
24995 
24705 
24485 
24369 
24186 
24034 
23873 
23767 
23705 
23646 
23569 
23505 
23485 
23489 
23438 
23405 
23438 
23507 
23649 
23783 
23849 
23917 
24054 
24194 
24311 
24446 
24572 
24668 
24815 
24987 
25098 
25213 
25433 
25672 
25899 
26136 
26358 
26547 
26717 
26944 
27121 
27266 
27479 
27675 
27802 
27918 
28069 
28214 
28361 
28431 
28520 
28758 
28936 
29107 
29287 
29404 
29486 
29578 
29665 
29740 
29819 
29972 
30065 
30142 
30210 
30248 
30332 
30548 
30694 
30795 
30872 
30939 
30979 
31036 
31080 
31171 
31208 
31263 
31385 
31499 
31616 
31709 
31796 
31892 
31974 
32002 
32053 
32190 
32309 
32352 
32460 
32585 
32680 
32791 
32910 
33009 
33147 
33300 
33408 
33489 
33602 
33732 
33848 
34001 
34187 
34253 
34292 
34360 
34412 
34461 
34553 
34654 
34713 
34784 
34862 
34896 
34974 
35096 
35196 
35244 
35303 
35299 
35333 
35386 
35423 
35441 
35431 
35472 
35479 
35492 
35561 
35620 
35643 
35664 
35718 
35762 
35725 
35698 
35688 
35702 
35756 
35778 
35831 
35823 
35804 
35799 
35784 
35714 
35712 
35788 
35795 
35735 
35706 
35678 
35657 
35606 
35580 
35476 
35381 
35411 
35411 
35416 
35456 
35437 
35406 
35406 
35387 
35366 
35354 
35297 
35266 
35203 
35146 
35133 
35128 
35121 
35116 
35077 
34990 
34976 
35001 
34990 
34951 
34896 
34913 
34959 
34954 
34885 
34864 
34851 
34833 
34742 
34666 
34605 
34577 
34565 
34468 
34338 
34222 
34146 
34074 
33895 
33634 
33367 
33044 
32738 
32447 
32128 
31787 
31433 
31129 
30720 
30286 
29859 
29477 
29043 
28638 
28271 
27936 
27622 
27370 
27046 
26704 
26410 
26143 
25915 
25704 
25568 
25318 
25120 
24991 
24901 
24826 
24758 
24725 
24707 
24574 
24445 
24437 
24439 
24405 
24464 
24561 
24576 
24623 
24740 
24828 
24918 
25020 
25112 
25226 
25353 
25533 
25671 
25846 
25985 
26141 
26269 
26421 
26650 
26854 
27056 
27267 
27407 
27562 
27760 
27920 
28089 
28246 
28412 
28632 
28766 
28866 
29019 
29130 
29215 
29377 
29554 
29690 
29815 
29938 
30080 
30207 
30343 
30425 
30465 
30570 
30711 
30760 
30822 
30875 
30972 
31089 
31230 
31279 
31300 
31361 
31403 
31432 
31539 
31676 
31712 
31778 
31875 
31917 
31994 
32070 
32132 
32192 
32295 
32376 
32444 
32511 
32611 
32710 
32778 
32810 
32862 
32918 
33048 
33166 
33218 
33255 
33371 
33525 
33668 
33796 
33850 
33922 
33979 
34069 
34153 
34244 
34353 
34496 
34577 
34579 
34601 
34685 
34779 
34780 
34793 
34806 
34858 
34921 
34974 
35054 
35087 
35043 
35031 
35072 
35124 
35149 
35175 
35239 
35195 
35107 
35104 
35131 
35163 
35184 
35211 
35211 
35208 
35215 
35167 
35156 
35175 
35131 
35137 
35146 
35117 
35121 
35114 
35097 
35029 
35062 
35107 
35127 
35132 
35071 
35000 
34949 
34911 
34907 
34883 
34855 
34826 
34797 
34743 
34729 
34809 
34808 
34735 
34622 
34584 
34578 
34588 
34649 
34683 
34667 
34621 
34553 
34562 
34602 
34564 
34481 
34443 
34437 
34422 
34430 
34351 
34252 
34214 
34206 
34163 
34126 
34072 
33995 
33924 
33893 
33892 
33828 
33738 
33650 
33520 
33318 
33104 
32908 
32730 
32503 
32188 
31874 
31599 
31323 
31021 
30649 
30233 
29831 
29456 
29102 
28824 
28519 
28173 
27854 
27505 
27175 
26912 
26616 
26329 
26138 
26013 
25920 
25782 
25584 
25469 
25399 
25374 
25362 
25340 
25280 
25262 
25273 
25255 
25186 
25124 
25196 
25292 
25363 
25418 
25475 
25561 
25739 
25856 
25950 
26067 
26164 
26240 
26384 
26523 
26702 
26894 
27081 
27283 
27467 
27603 
27770 
27961 
28148 
28345 
28498 
28636 
28758 
28889 
29025 
29163 
29334 
29444 
29555 
29673 
29764 
29872 
29960 
30115 
30256 
30322 
30347 
30416 
30461 
30508 
30552 
30608 
30623 
30612 
30667 
30748 
30789 
30773 
30817 
30900 
30975 
31010 
31007 
31079 
31148 
31240 
31354 
31412 
31452 
31470 
31544 
31636 
31773 
31895 
31958 
31972 
32061 
32161 
32249 
32288 
32309 
32305 
32319 
32391 
32482 
32590 
32667 
32702 
32765 
32831 
32901 
32978 
33054 
33092 
33158 
33279 
33370 
33442 
33561 
33633 
33681 
33777 
33874 
33954 
34001 
34051 
34078 
34044 
34104 
34146 
34179 
34239 
34265 
34277 
34360 
34399 
34401 
34396 
34415 
34447 
34389 
34375 
34442 
34478 
34466 
34439 
34397 
34442 
34503 
34503 
34523 
34557 
34547 
34563 
34582 
34559 
34566 
34562 
34486 
34398 
34377 
34464 
34456 
34435 
34444 
34412 
34341 
34283 
34313 
34325 
34319 
34342 
34344 
34343 
34363 
34376 
34340 
34329 
34338 
34338 
34335 
34311 
34257 
34246 
34240 
34182 
34083 
33981 
33900 
33784 
33589 
33339 
33064 
32802 
32510 
32219 
31933 
31684 
31378 
31024 
30625 
30217 
29855 
29503 
29178 
28803 
28446 
28141 
27887 
27608 
27297 
27067 
26894 
26717 
26570 
26362 
26199 
26053 
25935 
25832 
25702 
25587 
25545 
25525 
25496 
25522 
25563 
25620 
25641 
25675 
25745 
25807 
25873 
25964 
26053 
26120 
26215 
26374 
26514 
26649 
26803 
26965 
27122 
27276 
27466 
27639 
27791 
27938 
28129 
28306 
28452 
28576 
28741 
28910 
29100 
29296 
29448 
29577 
29718 
29882 
30006 
30070 
30127 
30227 
30313 
30386 
30599 
30741 
30819 
30905 
30927 
30932 
30997 
31169 
31291 
31298 
31257 
31317 
31395 
31430 
31498 
31561 
31569 
31589 
31589 
31623 
31646 
31690 
31731 
31851 
31950 
31976 
32010 
32083 
32101 
32153 
32293 
32458 
32560 
32638 
32732 
32766 
32840 
32868 
32936 
33007 
33139 
33261 
33307 
33368 
33403 
33471 
33583 
33705 
33766 
33832 
33813 
33807 
33918 
34068 
34182 
34268 
34292 
34334 
34358 
34387 
34464 
34563 
34671 
34758 
34785 
34778 
34799 
34828 
34852 
34882 
34937 
34915 
34931 
34963 
34988 
34999 
35042 
35045 
35106 
35243 
35213 
35166 
35159 
35095 
35064 
35032 
35035 
35080 
35101 
35071 
34993 
34899 
34848 
34861 
34878 
34877 
34853 
34814 
34803 
34782 
34755 
34779 
34808 
34849 
34842 
34854 
34889 
34889 
34826 
34746 
34785 
34780 
34751 
34720 
34666 
34629 
34597 
34596 
34571 
34567 
34572 
34527 
34460 
34420 
34318 
34220 
34062 
33892 
33667 
33435 
33199 
32942 
32647 
32295 
31907 
31514 
31129 
30699 
30222 
29786 
29368 
28960 
28565 
28195 
27821 
27493 
27181 
26830 
26438 
26144 
25918 
25617 
25356 
25130 
24905 
24730 
24612 
24451 
24272 
24150 
24055 
23939 
23861 
23850 
23856 
23829 
23778 
23748 
23785 
23825 
23836 
23901 
24027 
24074 
24089 
24155 
24289 
24398 
24477 
24569 
24714 
24881 
25054 
25169 
25300 
25421 
25540 
25648 
25851 
26050 
26255 
26516 
26783 
27025 
27196 
27382 
27495 
27573 
27754 
27908 
28038 
28182 
28357 
28559 
28754 
28881 
29021 
29190 
29298 
29366 
29439 
29523 
29601 
29755 
29962 
30044 
30085 
30197 
30316 
30407 
30543 
30611 
30689 
30806 
30903 
30995 
31140 
31259 
31307 
31400 
31587 
31727 
31886 
32021 
32094 
32167 
32298 
32392 
32481 
32572 
32642 
32801 
32913 
33039 
33180 
33331 
33448 
33532 
33643 
33772 
33889 
34031 
34065 
34096 
34171 
34255 
34357 
34486 
34598 
34676 
34711 
34753 
34787 
34855 
35021 
35140 
35186 
35236 
35297 
35341 
35412 
35513 
35593 
35647 
35706 
35800 
35883 
35878 
35893 
35950 
36009 
36048 
36048 
36056 
36137 
36195 
36193 
36174 
36170 
36186 
36216 
36195 
36237 
36306 
36338 
36305 
36249 
36213 
36222 
36175 
36184 
36130 
36070 
36082 
36137 
36151 
36155 
36100 
35976 
35860 
35841 
35839 
35759 
35721 
35697 
35645 
35607 
35592 
35512 
35457 
35414 
35353 
35292 
35220 
35142 
35123 
35144 
35151 
35097 
35101 
35030 
34959 
34901 
34882 
34863 
34874 
34857 
34819 
34691 
34583 
34568 
34539 
34488 
34385 
34252 
34072 
33849 
33649 
33450 
33139 
32804 
32528 
32214 
31865 
31449 
31028 
30609 
30167 
29738 
29306 
28893 
28424 
28036 
27650 
27273 
26895 
26520 
26184 
25901 
25631 
25405 
25222 
24970 
24727 
24545 
24383 
24243 
24083 
23899 
23816 
23769 
23690 
23590 
23527 
23542 
23544 
23569 
23575 
23630 
23677 
23774 
23842 
23907 
23970 
24149 
24276 
24385 
24475 
24524 
24649 
24837 
25053 
25279 
25462 
25647 
25849 
26078 
26268 
26453 
26699 
26902 
27099 
27281 
27531 
27765 
27967 
28209 
28417 
28607 
28774 
28912 
29074 
29260 
29436 
29610 
29778 
29932 
30076 
30185 
30284 
30396 
30454 
30505 
30649 
30746 
30857 
30933 
31033 
31114 
31169 
31198 
31221 
31253 
31313 
31423 
31482 
31585 
31673 
31728 
31776 
31887 
31943 
32040 
32140 
32233 
32330 
32451 
32475 
32512 
32645 
32720 
32779 
32854 
32862 
32935 
33083 
33208 
33259 
33312 
33361 
33393 
33434 
33569 
33719 
33793 
33889 
34021 
34123 
34226 
34308 
34380 
34463 
34584 
34732 
34906 
35066 
35186 
35231 
35346 
35448 
35502 
35565 
35685 
35792 
35874 
36003 
36055 
36095 
36247 
36381 
36464 
36509 
36572 
36594 
36613 
36657 
36667 
36737 
36789 
36798 
36816 
36813 
36798 
36766 
36774 
36810 
36896 
36877 
36823 
36810 
36829 
36916 
36906 
36871 
36846 
36804 
36767 
36730 
36761 
36763 
36752 
36742 
36695 
36614 
36586 
36594 
36574 
36555 
36494 
36395 
36304 
36217 
36106 
36011 
36010 
35972 
35903 
35902 
35909 
35890 
35833 
35785 
35738 
35682 
35578 
35497 
35331 
35179 
35074 
34963 
34865 
34699 
34531 
34397 
34328 
34282 
34137 
33980 
33818 
33687 
33568 
33426 
33264 
33150 
33037 
32934 
32803 
32713 
32590 
32430 
32274 
32142 
32044 
31951 
31790 
31623 
31436 
31280 
31057 
30830 
30560 
30245 
29962 
29756 
29544 
29308 
29083 
28873 
28624 
28395 
28189 
27959 
27760 
27579 
27412 
27258 
27084 
26955 
26817 
26666 
26586 
26508 
26405 
26368 
26351 
26285 
26275 
26291 
26303 
26303 
26313 
26318 
26349 
26437 
26491 
26537 
26570 
26608 
26703 
26764 
26779 
26823 
26878 
26941 
27059 
27167 
27276 
27422 
27485 
27543 
27651 
27860 
28025 
28185 
28303 
28446 
28586 
28718 
28849 
29002 
29175 
29361 
29516 
29590 
29722 
29866 
30030 
30161 
30198 
30256 
30328 
30431 
30601 
30685 
30783 
30868 
30953 
31024 
31145 
31294 
31316 
31384 
31464 
31546 
31640 
31791 
31901 
32004 
32043 
32144 
32282 
32303 
32361 
32426 
32443 
32463 
32437 
32469 
32484 
32453 
32413 
32427 
32417 
32352 
32352 
32340 
32268 
32224 
32214 
32146 
32085 
32074 
32094 
32111 
32077 
32055 
32054 
32024 
31979 
31886 
31818 
31772 
31772 
31780 
31777 
31712 
31633 
31599 
31600 
31585 
31597 
31542 
31518 
31481 
31441 
31468 
31529 
31538 
31509 
31444 
31410 
31431 
31409 
31440 
31498 
31568 
31555 
31594 
31616 
31610 
31590 
31648 
31709 
31789 
31879 
32011 
32114 
32171 
32208 
32281 
32349 
32447 
32577 
32659 
32690 
32769 
32856 
32932 
33001 
33039 
33087 
33140 
33208 
33314 
33409 
33504 
33550 
33608 
33615 
33663 
33807 
33958 
34094 
34188 
34240 
34313 
34408 
34400 
34400 
34452 
34507 
34595 
34680 
34711 
34755 
34851 
34944 
34962 
35009 
35033 
35070 
35178 
35261 
35301 
35299 
35320 
35392 
35450 
35501 
35513 
35496 
35535 
35607 
35641 
35662 
35689 
35668 
35678 
35733 
35827 
35865 
35862 
35880 
35901 
35885 
35906 
35910 
35892 
35874 
35868 
35879 
35907 
35811 
35707 
35639 
35558 
35498 
35450 
35413 
35323 
35208 
35032 
34873 
34737 
34669 
34581 
34438 
34331 
34191 
34064 
33944 
33833 
33702 
33547 
33443 
33379 
33319 
33263 
33195 
33160 
33145 
33071 
32991 
32950 
32921 
32881 
32879 
32859 
32899 
32888 
32820 
32783 
32782 
32781 
32833 
32940 
32998 
32985 
32975 
32945 
32934 
32961 
32972 
32920 
32912 
32994 
33054 
33065 
33096 
33173 
33211 
33204 
33219 
33228 
33323 
33383 
33374 
33419 
33403 
33397 
33384 
33429 
33502 
33571 
33579 
33601 
33610 
33649 
33757 
33860 
33892 
33916 
33964 
33954 
33939 
33927 
33971 
33956 
33945 
33949 
33943 
33864 
33837 
33865 
33866 
33866 
33857 
33905 
33917 
33954 
33962 
33964 
34006 
34028 
33978 
33953 
33936 
33888 
33883 
33921 
33890 
33851 
33891 
33907 
33938 
33940 
33962 
33997 
33998 
34007 
33965 
33958 
33996 
33976 
33945 
33904 
33878 
33905 
33901 
33839 
33797 
33772 
33768 
33774 
33768 
33842 
33873 
33833 
33883 
33939 
33922 
33904 
33823 
33756 
33733 
33759 
33763 
33740 
33724 
33763 
33785 
33750 
33763 
33788 
33762 
33696 
33643 
33636 
33595 
33580 
33578 
33614 
33594 
33500 
33511 
33587 
33617 
33580 
33592 
33640 
33659 
33687 
33634 
33634 
33598 
33563 
33485 
33464 
33469 
33452 
33412 
33386 
33391 
33406 
33396 
33324 
33282 
33328 
33375 
33296 
33229 
33192 
33180 
33151 
33123 
33063 
33054 
33086 
33109 
33058 
33002 
33031 
33043 
33042 
33027 
32946 
32850 
32861 
32918 
32907 
32871 
32865 
32840 
32806 
32767 
32731 
32692 
32675 
32641 
32612 
32635 
32646 
32602 
32581 
32558 
32541 
32526 
32482 
32476 
32492 
32428 
32360 
32337 
32330 
32317 
32339 
32347 
32316 
32301 
32281 
32209 
32148 
32110 
32098 
32069 
32027 
31936 
31919 
31933 
31914 
31886 
31864 
31843 
31775 
31716 
31700 
31706 
31698 
31720 
31759 
31803 
31748 
31669 
31606 
31587 
31559 
31511 
31444 
31378 
31329 
31333 
31362 
31380 
31309 
31282 
31260 
31169 
31075 
31037 
31044 
31091 
31048 
30992 
31014 
31073 
31068 
30985 
30896 
30888 
30861 
30852 
30865 
30867 
30872 
30902 
30889 
30858 
30837 
30817 
30818 
30761 
30692 
30671 
30680 
30616 
30620 
30615 
30640 
30700 
30703 
30686 
30726 
30722 
30651 
30623 
30651 
30627 
30612 
30569 
30518 
30552 
30614 
30644 
30611 
30555 
30538 
30528 
30559 
30572 
30567 
30507 
30477 
30495 
30556 
30553 
30536 
30498 
30487 
30497 
30501 
30506 
30533 
30553 
30536 
30534 
30502 
30392 
30393 
30419 
30396 
30368 
30355 
30359 
30354 
30301 
30270 
30253 
30257 
30297 
30302 
30324 
30340 
30353 
30315 
30327 
30329 
30376 
30320 
30271 
30305 
30359 
30394 
30356 
30272 
30244 
30285 
30299 
30354 
30351 
30373 
30432 
30436 
30414 
30404 
30379 
30368 
30317 
30280 
30304 
30293 
30320 
30389 
30402 
30374 
30341 
30322 
30276 
30256 
30274 
30268 
30271 
30269 
30273 
30265 
30265 
30281 
30272 
30225 
30155 
30142 
30155 
30172 
30157 
30135 
30121 
30139 
30142 
30128 
30112 
30117 
30124 
30121 
30131 
30132 
30106 
30141 
30142 
30123 
30161 
30145 
30171 
30187 
30205 
30213 
30231 
30215 
30210 
30236 
30280 
30243 
30242 
30255 
30219 
30182 
30170 
30178 
30210 
30181 
30096 
30058 
30110 
30175 
30199 
30219 
30228 
30159 
30125 
30147 
30172 
30185 
30207 
30175 
30161 
30186 
30192 
30163 
30124 
30068 
30048 
30108 
30132 
30121 
30101 
30130 
30148 
30183 
30199 
30175 
30179 
30183 
30181 
30189 
30238 
30228 
30210 
30200 
30148 
30109 
30077 
30093 
30121 
30148 
30150 
30118 
30143 
30179 
30167 
30156 
30163 
30206 
30190 
30107 
30120 
30184 
30137 
30130 
30177 
30190 
30158 
30192 
30255 
30269 
30233 
30187 
30177 
30200 
30214 
30226 
30292 
30287 
30281 
30276 
30210 
30198 
30182 
30177 
30160 
30102 
30101 
30076 
30069 
30117 
30103 
30055 
30039 
30034 
30026 
30047 
30107 
30061 
30027 
30094 
30156 
30158 
30176 
30167 
30156 
30143 
30092 
30125 
30165 
30150 
30101 
30131 
30077 
30014 
30024 
30066 
30043 
30021 
30033 
30017 
30022 
30052 
30053 
30016 
29986 
30014 
30002 
29978 
29972 
29980 
29948 
29893 
29914 
29965 
29959 
29903 
29869 
29898 
29930 
29968 
29982 
30006 
29953 
29907 
29960 
30012 
30041 
30068 
30066 
30006 
29986 
29933 
29933 
29981 
29951 
29930 
29951 
29986 
30031 
30044 
30045 
30034 
29967 
29905 
29923 
29988 
30057 
30074 
30040 
30003 
29999 
29955 
29929 
29914 
29861 
29864 
29907 
30006 
30039 
30011 
29991 
29976 
29953 
29938 
29948 
29955 
29930 
29955 
30025 
30100 
30062 
30029 
30026 
29982 
29981 
29998 
29985 
29966 
29957 
29934 
29898 
29890 
29932 
29957 
29953 
29972 
29963 
29879 
29869 
29883 
29871 
29860 
29891 
29933 
29916 
29897 
29860 
29859 
29865 
29797 
29775 
29823 
29840 
29832 
29817 
29816 
29825 
29833 
29802 
29803 
29841 
29855 
29783 
29819 
29840 
29854 
29839 
29801 
29821 
29882 
29845 
29810 
29828 
29916 
29937 
29891 
29872 
29889 
29917 
29926 
29900 
29858 
29872 
29881 
29878 
29869 
29855 
29840 
29869 
29838 
29782 
29777 
29770 
29795 
29819 
29835 
29851 
29847 
29851 
29876 
29888 
29905 
29907 
29948 
29894 
29810 
29831 
29883 
29878 
29847 
29810 
29813 
29885 
29989 
29978 
29974 
30009 
30032 
29998 
29973 
29952 
29930 
29898 
29902 
29969 
30053 
30072 
30051 
29990 
29929 
29917 
29970 
29991 
30007 
30011 
29984 
29987 
29987 
29984 
29994 
30009 
30009 
30076 
30112 
30091 
30057 
30022 
30004 
29963 
29911 
29906 
29948 
29945 
29923 
29903 
29875 
29838 
29866 
29880 
29892 
29954 
30007 
29956 
29853 
29797 
29839 
29814 
29798 
29817 
29850 
29881 
29850 
29819 
29818 
29794 
29794 
29830 
29856 
29905 
29871 
29856 
29859 
29850 
29789 
29694 
29691 
29759 
29803 
29808 
29792 
29750 
29827 
29899 
29894 
29840 
29788 
29776 
29767 
29757 
29732 
29689 
29701 
29720 
29749 
29749 
29734 
29742 
29755 
29747 
29777 
29805 
29783 
29757 
29709 
29715 
29751 
29792 
29822 
29835 
29778 
29695 
29646 
29609 
29578 
29621 
29681 
29678 
29653 
29662 
29637 
29651 
29675 
29638 
29626 
29680 
29682 
29644 
29682 
29719 
29697 
29666 
29592 
29564 
29620 
29643 
29642 
29639 
29633 
29652 
29681 
29694 
29693 
29677 
29691 
29674 
29698 
29765 
29758 
29760 
29777 
29786 
29747 
29707 
29717 
29741 
29728 
29718 
29748 
29735 
29793 
29786 
29683 
29655 
29655 
29621 
29661 
29692 
29645 
29622 
29660 
29704 
29717 
29648 
29611 
29607 
29586 
29556 
29529 
29559 
29606 
29595 
29545 
29570 
29601 
29584 
29561 
29566 
29552 
29553 
29582 
29566 
29527 
29520 
29532 
29502 
29521 
29570 
29598 
29569 
29539 
29582 
29577 
29535 
29549 
29562 
29553 
29592 
29609 
29618 
29631 
29600 
29556 
29470 
29421 
29461 
29512 
29549 
29558 
29537 
29515 
29461 
29465 
29514 
29527 
29461 
29453 
29484 
29520 
29556 
29535 
29519 
29586 
29554 
29490 
29497 
29527 
29517 
29519 
29480 
29446 
29508 
29495 
29446 
29429 
29435 
29434 
29406 
29430 
29475 
29484 
29455 
29396 
29385 
29434 
29432 
29422 
29405 
29414 
29410 
29442 
29481 
29444 
29457 
29466 
29462 
29477 
29466 
29480 
29480 
29468 
29455 
29454 
29478 
29495 
29502 
29510 
29511 
29448 
29381 
29327 
29363 
29404 
29378 
29367 
29390 
29442 
29467 
29481 
29461 
29405 
29385 
29394 
29426 
29434 
29425 
29388 
29360 
29314 
29275 
29294 
29317 
29378 
29392 
29389 
29377 
29391 
29395 
29425 
29429 
29398 
29406 
29418 
29391 
29368 
29352 
29337 
29367 
29376 
29362 
29386 
29392 
29434 
29495 
29503 
29481 
29511 
29555 
29537 
29508 
29491 
29460 
29417 
29361 
29372 
29404 
29407 
29393 
29391 
29431 
29427 
29431 
29422 
29425 
29427 
29462 
29481 
29455 
29441 
29433 
29408 
29384 
29396 
29395 
29401 
29374 
29351 
29312 
29331 
29325 
29278 
29259 
29272 
29322 
29395 
29387 
29374 
29391 
29414 
29376 
29313 
29288 
29285 
29313 
29281 
29228 
29248 
29261 
29300 
29321 
29387 
29449 
29459 
29393 
29372 
29409 
29432 
29449 
29454 
29464 
29474 
29459 
29402 
29420 
29467 
29476 
29446 
29458 
29465 
29384 
29370 
29385 
29380 
29401 
29388 
29362 
29292 
29295 
29386 
29430 
29446 
29447 
29416 
29365 
29373 
29391 
29367 
29402 
29443 
29456 
29470 
29451 
29454 
29399 
29367 
29428 
29474 
29493 
29460 
29418 
29387 
29373 
29366 
29356 
29360 
29396 
29378 
29381 
29418 
29392 
29362 
29348 
29376 
29420 
29417 
29389 
29397 
29412 
29423 
29382 
29323 
29337 
29300 
29292 
29296 
29289 
29252 
29208 
29180 
29203 
29214 
29187 
29242 
29308 
29317 
29278 
29245 
29202 
29180 
29206 
29219 
29187 
29219 
29207 
29185 
29224 
29212 
29198 
29219 
29253 
29294 
29336 
29304 
29279 
29297 
29293 
29249 
29207 
29204 
29199 
29173 
29163 
29146 
29163 
29211 
29243 
29291 
29310 
29350 
29328 
29290 
29338 
29381 
29382 
29350 
29303 
29301 
29303 
29279 
29260 
29297 
29362 
29363 
29301 
29229 
29225 
29286 
29287 
29259 
29258 
29190 
29153 
29144 
29204 
29223 
29252 
29275 
29254 
29172 
29173 
29213 
29181 
29188 
29207 
29230 
29224 
29225 
29235 
29262 
29274 
29257 
29265 
29277 
29276 
29231 
29230 
29196 
29214 
29221 
29226 
29241 
29226 
29262 
29268 
29233 
29214 
29163 
29151 
29193 
29241 
29275 
29268 
29248 
29227 
29246 
29207 
29235 
29271 
29272 
29206 
29151 
29157 
29171 
29139 
29116 
29123 
29141 
29125 
29140 
29198 
29165 
29169 
29199 
29218 
29235 
29253 
29225 
29240 
29258 
29218 
29190 
29194 
29228 
29232 
29188 
29146 
29128 
29194 
29257 
29221 
29191 
29207 
29226 
29266 
29246 
29173 
29199 
29235 
29227 
29213 
29192 
29163 
29130 
29142 
29178 
29228 
29285 
29312 
29246 
29192 
29205 
29236 
29241 
29212 
29178 
29189 
29180 
29164 
29160 
29105 
29093 
29098 
29039 
28999 
29019 
29067 
29059 
29102 
29126 
29132 
29135 
29141 
29157 
29171 
29138 
29080 
29102 
29129 
29118 
29126 
29157 
29176 
29165 
29204 
29203 
29179 
29207 
29210 
29207 
29182 
29147 
29165 
29139 
29119 
29132 
29164 
29065 
29032 
29083 
29094 
29154 
29178 
29191 
29186 
29168 
29164 
29216 
29224 
29210 
29230 
29259 
29266 
29252 
29201 
29191 
29189 
29204 
29195 
29246 
29239 
29203 
29230 
29239 
29260 
29355 
29366 
29294 
29249 
29230 
29150 
29126 
29170 
29188 
29185 
29130 
29107 
29147 
29194 
29180 
29109 
29115 
29105 
29059 
29132 
29206 
29192 
29156 
29132 
29140 
29124 
29114 
29077 
29018 
29045 
29055 
29073 
29013 
29004 
29032 
29094 
29139 
29136 
29112 
29071 
29099 
29105 
29098 
29101 
29141 
29200 
29221 
29229 
29205 
29175 
29156 
29168 
29175 
29130 
29073 
29088 
29131 
29130 
29124 
29091 
29020 
29044 
29082 
29074 
29020 
29018 
29063 
29101 
29101 
29088 
29078 
29064 
29076 
29071 
29100 
29085 
29036 
29070 
29093 
29071 
29057 
29063 
29071 
29095 
29141 
29117 
29090 
29133 
29126 
29120 
29117 
29124 
29086 
29031 
29012 
29025 
29061 
29059 
29091 
29106 
29107 
29117 
29119 
29095 
29074 
29042 
29049 
29081 
29080 
29077 
29111 
29133 
29080 
29056 
29071 
29084 
29106 
29119 
29115 
29100 
29074 
29040 
29009 
29048 
29053 
29086 
29119 
29089 
29077 
29076 
29058 
29044 
29031 
29011 
29038 
29069 
29087 
29094 
29112 
29111 
29113 
29098 
29085 
29150 
29161 
29113 
29115 
29098 
29079 
29076 
29035 
29016 
29026 
29062 
29086 
29102 
29125 
29114 
29053 
29018 
29033 
29025 
29082 
29108 
29046 
29021 
28976 
28955 
28972 
28966 
28949 
28927 
28935 
29016 
29048 
29010 
29017 
29028 
29013 
29003 
29052 
29061 
29118 
29148 
29069 
29040 
29049 
29039 
29051 
29032 
29028 
29080 
29065 
29035 
29028 
29059 
29102 
29116 
29125 
29144 
29125 
29119 
29073 
29040 
28988 
28961 
28978 
29006 
28996 
29007 
29047 
29029 
28985 
28994 
28999 
28980 
28964 
28978 
28990 
29011 
29065 
29116 
29125 
29128 
29098 
29057 
29008 
28925 
28889 
28944 
29014 
29056 
29047 
29031 
29045 
29103 
29165 
29172 
29138 
29107 
29071 
29006 
28951 
28976 
29004 
28982 
28980 
29013 
29015 
28943 
28922 
28926 
28959 
28986 
29002 
28997 
29003 
29016 
28965 
28947 
28967 
29004 
29046 
29048 
29022 
29045 
29074 
29036 
28973 
28974 
28988 
29022 
29028 
29028 
28989 
28942 
28938 
28961 
28943 
28909 
28904 
28955 
28994 
29025 
29039 
29032 
28984 
28924 
28931 
28870 
28844 
28863 
28907 
28984 
28998 
28987 
28920 
28926 
28982 
29033 
29063 
29035 
29024 
29049 
28993 
28967 
28964 
28941 
28939 
28948 
28913 
28957 
29022 
29077 
29082 
29109 
29096 
29045 
29040 
29026 
28977 
28944 
28946 
28965 
28945 
28918 
28943 
29000 
29019 
29005 
28947 
28926 
28972 
29018 
29018 
28984 
28949 
28903 
28917 
28961 
28971 
28982 
28990 
29001 
28996 
28978 
29003 
28995 
28957 
28950 
28929 
28971 
29005 
28956 
28902 
28908 
28877 
28840 
28846 
28860 
28863 
28902 
28932 
28930 
28908 
28863 
28880 
28866 
28814 
28810 
28857 
28850 
28886 
28923 
28926 
28917 
28906 
28863 
28887 
28959 
28978 
28940 
28912 
28879 
28883 
28904 
28940 
28979 
29014 
29023 
29032 
29015 
29040 
29076 
29089 
29047 
29044 
29044 
29050 
29045 
29021 
29008 
28962 
28948 
28966 
28974 
28984 
28971 
28974 
28963 
28925 
28917 
28961 
28934 
28864 
28885 
28924 
28949 
28968 
28979 
28961 
28943 
28963 
29006 
29050 
29056 
29037 
29012 
29022 
28966 
28923 
28942 
28989 
29012 
28967 
28947 
28965 
28972 
28924 
28898 
28950 
28957 
28980 
28986 
28990 
28944 
28913 
28952 
28973 
28968 
28974 
28981 
28965 
28926 
28919 
28953 
28923 
28877 
28905 
28938 
28965 
28962 
28947 
28937 
28924 
28926 
28904 
28919 
28904 
28905 
28914 
28916 
28922 
28931 
28917 
28950 
29045 
29036 
29008 
28951 
28917 
28929 
28956 
28950 
28941 
28948 
28961 
28929 
28873 
28893 
28918 
28892 
28897 
28886 
28926 
28962 
28925 
28917 
28935 
28921 
28926 
28911 
28913 
28933 
29005 
28988 
28964 
29027 
29036 
29014 
28982 
28961 
28951 
28968 
28988 
28977 
28979 
28991 
29004 
29017 
29007 
28987 
29003 
28984 
28932 
28959 
28975 
28966 
28928 
28889 
28870 
28885 
28915 
29005 
29010 
28976 
28938 
28838 
28812 
28874 
28859 
28885 
28945 
28962 
28975 
28965 
28959 
28917 
28896 
28846 
28873 
28958 
28973 
28934 
28886 
28901 
28927 
28918 
28887 
28849 
28883 
28916 
28878 
28894 
28911 
28927 
28971 
28965 
28929 
28881 
28883 
28868 
28823 
28802 
28811 
28817 
28825 
28838 
28836 
28880 
28950 
28960 
28918 
28907 
28870 
28817 
28746 
28687 
28649 
28619 
28603 
28609 
28639 
28644 
28657 
28670 
28632 
28586 
28535 
28518 
28482 
28487 
28514 
28516 
28510 
28523 
28505 
28480 
28434 
28413 
28393 
28419 
28459 
28415 
28386 
28375 
28338 
28353 
28343 
28325 
28340 
28338 
28378 
28448 
28444 
28351 
28362 
28428 
28480 
28503 
28451 
28426 
28428 
28435 
28445 
28432 
28456 
28454 
28467 
28461 
28448 
28445 
28422 
28432 
28474 
28495 
28526 
28507 
28527 
28527 
28512 
28530 
28566 
28560 
28542 
28507 
28453 
28428 
28469 
28450 
28437 
28440 
28499 
28537 
28609 
28612 
28610 
28614 
28644 
28690 
28721 
28700 
28675 
28680 
28739 
28775 
28757 
28770 
28761 
28745 
28720 
28743 
28757 
28755 
28751 
28768 
28748 
28763 
28758 
28766 
28783 
28819 
28863 
28867 
28866 
28895 
28901 
28886 
28864 
28834 
28814 
28862 
28904 
28955 
28950 
28957 
28928 
28914 
28913 
28906 
28911 
28908 
28909 
28950 
28968 
28957 
28920 
28885 
28887 
28906 
28899 
28923 
29010 
29012 
28942 
28930 
28987 
29029 
28970 
28946 
28996 
28996 
28984 
28982 
28978 
28968 
28959 
28985 
28984 
29011 
29015 
29053 
29096 
29097 
29088 
29070 
28999 
28986 
28979 
28915 
28939 
28969 
28937 
28925 
28905 
28931 
28969 
29017 
29043 
29075 
29055 
29062 
29054 
29043 
29036 
29096 
29151 
29149 
29158 
29191 
29165 
29120 
29121 
29144 
29213 
29253 
29225 
29165 
29148 
29162 
29118 
29054 
29066 
29114 
29103 
29054 
29092 
29095 
29059 
29059 
29112 
29106 
29086 
29118 
29212 
29230 
29219 
29222 
29193 
29159 
29081 
29068 
29060 
29036 
28999 
29008 
29036 
29019 
29019 
29010 
28962 
28966 
28909 
28785 
28650 
28534 
28473 
28421 
28386 
28336 
28287 
28226 
28205 
28147 
28099 
28046 
28023 
27975 
27900 
27808 
27712 
27660 
27625 
27539 
27467 
27474 
27511 
27536 
27470 
27371 
27312 
27278 
27254 
27263 
27234 
27211 
27186 
27120 
27093 
27111 
27095 
27075 
27019 
26958 
26938 
26959 
26961 
26970 
26977 
26962 
26995 
27095 
27184 
27232 
27243 
27258 
27211 
27176 
27200 
27226 
27225 
27232 
27279 
27331 
27367 
27391 
27428 
27459 
27518 
27579 
27641 
27703 
27700 
27674 
27680 
27741 
27783 
27791 
27790 
27859 
27938 
27919 
27973 
28047 
28096 
28127 
28159 
28216 
28269 
28290 
28324 
28333 
28390 
28440 
28459 
28464 
28471 
28483 
28496 
28510 
28575 
28599 
28609 
28667 
28759 
28821 
28840 
28891 
28905 
28909 
28947 
28935 
28921 
28958 
29026 
29172 
29205 
29194 
29214 
29187 
29192 
29264 
29266 
29285 
29383 
29378 
29354 
29342 
29306 
29301 
29333 
29356 
29355 
29351 
29393 
29442 
29423 
29420 
29443 
29490 
29525 
29558 
29598 
29590 
29592 
29588 
29613 
29657 
29646 
29658 
29670 
29698 
29721 
29721 
29721 
29709 
29709 
29714 
29711 
29735 
29718 
29768 
29849 
29916 
29930 
29914 
29920 
29941 
29962 
29926 
29967 
30027 
30067 
30073 
30067 
30070 
30080 
30050 
30071 
30132 
30138 
30138 
30127 
30110 
30073 
30055 
30067 
30064 
30085 
30102 
30084 
30064 
30063 
30082 
30061 
30110 
30133 
30114 
30091 
30087 
30094 
30066 
30067 
30107 
30070 
30024 
30043 
30021 
30010 
30020 
30052 
30072 
30064 
30017 
30037 
30024 
29986 
29964 
29966 
29931 
29910 
29902 
29903 
29964 
30022 
30016 
30010 
30044 
30052 
29996 
29980 
29992 
30022 
30033 
29971 
29924 
29944 
29933 
29911 
29926 
29917 
29942 
29969 
29942 
29899 
29865 
29826 
29797 
29738 
29641 
29501 
29362 
29233 
29076 
28986 
28901 
28732 
28587 
28419 
28285 
28224 
28115 
27997 
27861 
27786 
27702 
27570 
27399 
27226 
27145 
27107 
27023 
26890 
26766 
26724 
26592 
26435 
26351 
26303 
26218 
26125 
26040 
25969 
25864 
25804 
25755 
25699 
25674 
25654 
25633 
25602 
25607 
25603 
25548 
25530 
25507 
25494 
25512 
25493 
25539 
25539 
25485 
25451 
25490 
25469 
25477 
25469 
25470 
25521 
25553 
25532 
25567 
25645 
25704 
25768 
25825 
25894 
25924 
25936 
26053 
26115 
26134 
26147 
26208 
26288 
26346 
26450 
26537 
26581 
26588 
26641 
26661 
26722 
26820 
26914 
26952 
27015 
27097 
27135 
27209 
27366 
27482 
27534 
27582 
27634 
27713 
27800 
27863 
27944 
28027 
28072 
28117 
28199 
28319 
28430 
28486 
28551 
28633 
28728 
28800 
28911 
29053 
29117 
29135 
29165 
29236 
29296 
29331 
29398 
29435 
29456 
29516 
29596 
29696 
29842 
29926 
29955 
29982 
30011 
30065 
30088 
30146 
30217 
30279 
30339 
30395 
30449 
30508 
30582 
30621 
30671 
30762 
30860 
30888 
30894 
30853 
30774 
30821 
30935 
31019 
31056 
31057 
31041 
31092 
31200 
31280 
31297 
31300 
31336 
31412 
31471 
31537 
31615 
31630 
31646 
31668 
31654 
31642 
31707 
31726 
31744 
31760 
31788 
31838 
31846 
31822 
31866 
31868 
31910 
31917 
31883 
31880 
31895 
31895 
31870 
31843 
31925 
31973 
31971 
31969 
32011 
32066 
32091 
32086 
32059 
32081 
32058 
32047 
32045 
32013 
31999 
32009 
32016 
32016 
32039 
32072 
32081 
32085 
32143 
32199 
32221 
32183 
32165 
32189 
32189 
32207 
32217 
32181 
32140 
32113 
32098 
32091 
32108 
32097 
32085 
32092 
32055 
32003 
32029 
32016 
31972 
31991 
32012 
32045 
32056 
32056 
32018 
32044 
32021 
31972 
31929 
31918 
31871 
31834 
31830 
31813 
31789 
31769 
31713 
31631 
31532 
31471 
31351 
31167 
30952 
30733 
30480 
30218 
29991 
29761 
29538 
29326 
29097 
28921 
28769 
28649 
28540 
28371 
28201 
28076 
27987 
27865 
27667 
27498 
27329 
27167 
27046 
26961 
26868 
26733 
26615 
26526 
26452 
26392 
26306 
26198 
26092 
25993 
25928 
25897 
25854 
25772 
25708 
25641 
25644 
25655 
25694 
25715 
25720 
25736 
25698 
25665 
25710 
25768 
25789 
25781 
25798 
25785 
25750 
25676 
25686 
25715 
25740 
25800 
25816 
25853 
25818 
25802 
25810 
25787 
25848 
25912 
25954 
25964 
25975 
26025 
26034 
26017 
26070 
26216 
26312 
26379 
26495 
26595 
26616 
26586 
26655 
26773 
26810 
26845 
26918 
26939 
26969 
27032 
27084 
27125 
27179 
27235 
27296 
27413 
27560 
27680 
27756 
27835 
27888 
27920 
27970 
28049 
28163 
28273 
28381 
28470 
28564 
28613 
28693 
28807 
28871 
28968 
29067 
29173 
29199 
29237 
29313 
29387 
29461 
29579 
29704 
29771 
29826 
29894 
29960 
30058 
30094 
30173 
30262 
30330 
30444 
30515 
30597 
30675 
30779 
30864 
30954 
31086 
31168 
31182 
31232 
31289 
31323 
31365 
31477 
31612 
31673 
31685 
31736 
31805 
31899 
31975 
32045 
32084 
32184 
32292 
32359 
32397 
32404 
32367 
32409 
32466 
32502 
32517 
32542 
32599 
32601 
32614 
32724 
32786 
32779 
32795 
32817 
32856 
32916 
32943 
33008 
33073 
33132 
33167 
33217 
33299 
33385 
33409 
33433 
33501 
33519 
33518 
33510 
33508 
33527 
33508 
33500 
33539 
33611 
33659 
33666 
33635 
33594 
33609 
33617 
33653 
33746 
33794 
33855 
33852 
33893 
33926 
33933 
33914 
33927 
33978 
33971 
33975 
33997 
34003 
34030 
34037 
34094 
34113 
34061 
33953 
33843 
33698 
33537 
33318 
33095 
32910 
32698 
32528 
32332 
32102 
31839 
31622 
31494 
31393 
31270 
31093 
30930 
30755 
30560 
30416 
30270 
30105 
29962 
29909 
29892 
29779 
29626 
29484 
29367 
29189 
29088 
29031 
28982 
28889 
28820 
28766 
28727 
28668 
28588 
28515 
28530 
28553 
28524 
28469 
28457 
28439 
28463 
28491 
28522 
28605 
28687 
28775 
28833 
28866 
28886 
28865 
28879 
28890 
28870 
28942 
29065 
29081 
29045 
29066 
29088 
29067 
29100 
29186 
29266 
29360 
29447 
29428 
29458 
29533 
29574 
29582 
29604 
29618 
29692 
29796 
29855 
29891 
29951 
30052 
30102 
30151 
30271 
30389 
30460 
30492 
30540 
30588 
30702 
30802 
30952 
31057 
31092 
31163 
31208 
31260 
31353 
31451 
31590 
31692 
31805 
31890 
31944 
32056 
32221 
32291 
32305 
32381 
32459 
32522 
32607 
32674 
32781 
32899 
32950 
32977 
33007 
33059 
33133 
33257 
33324 
33394 
33453 
33550 
33632 
33675 
33752 
33838 
33915 
33955 
34015 
34055 
34091 
34147 
34196 
34268 
34329 
34420 
34504 
34487 
34457 
34497 
34509 
34557 
34673 
34771 
34708 
34663 
34705 
34725 
34769 
34773 
34858 
34931 
34966 
34982 
34986 
35006 
35016 
34953 
34880 
34885 
34918 
34968 
34996 
35018 
35068 
35101 
35108 
35099 
35146 
35154 
35118 
35098 
35118 
35185 
35207 
35201 
35198 
35165 
35133 
35117 
35151 
35160 
35117 
35103 
35079 
35055 
35011 
35013 
35037 
35077 
35120 
35083 
35048 
34997 
34969 
34911 
34878 
34928 
34925 
34979 
35002 
34932 
34925 
34888 
34823 
34756 
34767 
34843 
34811 
34794 
34798 
34760 
34727 
34731 
34737 
34698 
34657 
34621 
34609 
34552 
34490 
34395 
34251 
34055 
33850 
33656 
33394 
33153 
32854 
32526 
32205 
31900 
31587 
31252 
30968 
30695 
30393 
30190 
29975 
29732 
29497 
29268 
29015 
28779 
28594 
28407 
28191 
28014 
27837 
27667 
27533 
27345 
27163 
27064 
26935 
26802 
26697 
26668 
26658 
26630 
26569 
26556 
26528 
26454 
26412 
26428 
26472 
26524 
26548 
26560 
26605 
26647 
26697 
26728 
26807 
26867 
26944 
27010 
27089 
27217 
27325 
27435 
27562 
27630 
27692 
27804 
27888 
27990 
28187 
28306 
28368 
28445 
28553 
28732 
28967 
29111 
29194 
29309 
29434 
29566 
29684 
29815 
29896 
30012 
30099 
30178 
30266 
30359 
30446 
30551 
30709 
30809 
30912 
31011 
31075 
31118 
31207 
31357 
31503 
31634 
31712 
31856 
31984 
32074 
32164 
32236 
32353 
32493 
32606 
32703 
32821 
32938 
33018 
33080 
33200 
33357 
33422 
33464 
33534 
33649 
33759 
33863 
33935 
33984 
34046 
34138 
34182 
34172 
34226 
34339 
34441 
34512 
34543 
34606 
34682 
34835 
34929 
35003 
34990 
34971 
34996 
35045 
35132 
35220 
35313 
35383 
35402 
35451 
35473 
35530 
35532 
35549 
35600 
35623 
35615 
35634 
35686 
35719 
35723 
35735 
35711 
35737 
35748 
35760 
35826 
35842 
35831 
35853 
35838 
35861 
35899 
35919 
35914 
35941 
35987 
36038 
36026 
36022 
36038 
35999 
35981 
35987 
35989 
35928 
35868 
35884 
35915 
35923 
35879 
35881 
35878 
35925 
35930 
35888 
35806 
35794 
35818 
35794 
35792 
35795 
35758 
35702 
35653 
35647 
35633 
35640 
35612 
35580 
35564 
35538 
35545 
35535 
35510 
35508 
35463 
35410 
35373 
35338 
35279 
35315 
35298 
35325 
35283 
35291 
35286 
35242 
35218 
35208 
35166 
35182 
35137 
35067 
34996 
35029 
35035 
34947 
34890 
34896 
34894 
34900 
34922 
34880 
34811 
34779 
34739 
34718 
34650 
34550 
34459 
34414 
34356 
34274 
34156 
33946 
33706 
33373 
33072 
32750 
32384 
32020 
31667 
31288 
30862 
30481 
30156 
29866 
29555 
29252 
28984 
28701 
28409 
28145 
27903 
27681 
27474 
27248 
27019 
26786 
26573 
26458 
26373 
26239 
26124 
25999 
25866 
25779 
25717 
25613 
25550 
25531 
25519 
25516 
25537 
25527 
25502 
25524 
25521 
25496 
25547 
25658 
25703 
25762 
25823 
25910 
26003 
26119 
26250 
26423 
26665 
26852 
27029 
27201 
27348 
27537 
27621 
27773 
27933 
28110 
28315 
28462 
28542 
28598 
28714 
28885 
29086 
29309 
29533 
29679 
29801 
29930 
30056 
30190 
30316 
30409 
30511 
30647 
30791 
30936 
31024 
31175 
31284 
31418 
31486 
31545 
31647 
31844 
31991 
32098 
32171 
32318 
32520 
32635 
32651 
32706 
32801 
32882 
32994 
33116 
33223 
33285 
33304 
33406 
33577 
33738 
33871 
33939 
33976 
34009 
34040 
34161 
34316 
34359 
34419 
34485 
34574 
34691 
34781 
34865 
34937 
35012 
35080 
35125 
35163 
35210 
35299 
35392 
35485 
35545 
35524 
35541 
35569 
35609 
35636 
35661 
35684 
35723 
35784 
35865 
35906 
35940 
35998 
36067 
36005 
35955 
36000 
36088 
36095 
36093 
36121 
36095 
36076 
36096 
36136 
36132 
36101 
36107 
36192 
36193 
36174 
36191 
36206 
36179 
36147 
36143 
36124 
36098 
36104 
36083 
36070 
36105 
36109 
36094 
36097 
36057 
36011 
36057 
36054 
36063 
36129 
36053 
35979 
35915 
35902 
35927 
35931 
35950 
35981 
35993 
35958 
35931 
35898 
35910 
35915 
35902 
35857 
35833 
35876 
35867 
35830 
35764 
35746 
35724 
35643 
35600 
35579 
35536 
35570 
35578 
35549 
35555 
35528 
35492 
35432 
35456 
35426 
35379 
35356 
35336 
35314 
35350 
35331 
35242 
35168 
35124 
35098 
35108 
35088 
35044 
34988 
34925 
34817 
34663 
34528 
34414 
34220 
34000 
33772 
33466 
33155 
32812 
32503 
32168 
31832 
31498 
31128 
30776 
30479 
30079 
29751 
29482 
29135 
28882 
28712 
28500 
28252 
28037 
27846 
27652 
27431 
27224 
27077 
26943 
26841 
26810 
26739 
26654 
26610 
26598 
26609 
26578 
26474 
26451 
26467 
26501 
26593 
26704 
26714 
26675 
26696 
26751 
26842 
27007 
27170 
27303 
27429 
27548 
27678 
27783 
27905 
28020 
28115 
28233 
28456 
28685 
28829 
28951 
29076 
29175 
29327 
29450 
29588 
29728 
29822 
29945 
30081 
30213 
30369 
30449 
30497 
30517 
30616 
30710 
30829 
30960 
31047 
31218 
31328 
31408 
31479 
31518 
31491 
31560 
31679 
31758 
31835 
31896 
31909 
31939 
32008 
32116 
32230 
32352 
32419 
32469 
32546 
32608 
32686 
32686 
32672 
32740 
32856 
32979 
33101 
33198 
33301 
33425 
33579 
33635 
33630 
33664 
33731 
33797 
33830 
33922 
34019 
34135 
34223 
34289 
34307 
34384 
34554 
34660 
34645 
34625 
34645 
34700 
34728 
34799 
34881 
34936 
34951 
35012 
35052 
35025 
35019 
34987 
35001 
35076 
35162 
35181 
35188 
35257 
35338 
35299 
35253 
35277 
35385 
35429 
35438 
35421 
35389 
35445 
35441 
35482 
35481 
35460 
35428 
35437 
35409 
35365 
35393 
35420 
35379 
35349 
35363 
35377 
35325 
35286 
35272 
35290 
35284 
35243 
35181 
35113 
35108 
35178 
35258 
35302 
35272 
35209 
35160 
35142 
35158 
35121 
35086 
35119 
35056 
34982 
34946 
34887 
34858 
34821 
34832 
34833 
34807 
34785 
34778 
34778 
34745 
34733 
34743 
34747 
34781 
34750 
34727 
34690 
34607 
34519 
34491 
34486 
34481 
34480 
34420 
34277 
34150 
34070 
33908 
33706 
33510 
33250 
32965 
32718 
32432 
32058 
31674 
31351 
31034 
30705 
30396 
30092 
29805 
29554 
29170 
28802 
28571 
28313 
28068 
27878 
27681 
27458 
27258 
27052 
26876 
26729 
26515 
26323 
26202 
26141 
26106 
26097 
26071 
26027 
25981 
25970 
25985 
26056 
26128 
26114 
26189 
26290 
26356 
26389 
26500 
26665 
26797 
26876 
26989 
27150 
27279 
27448 
27600 
27766 
27977 
28149 
28262 
28403 
28545 
28695 
28835 
29035 
29230 
29371 
29517 
29658 
29737 
29813 
29915 
30053 
30236 
30361 
30447 
30541 
30669 
30825 
30917 
30991 
31115 
31255 
31394 
31481 
31548 
31622 
31672 
31732 
31789 
31858 
31946 
32018 
32126 
32206 
32223 
32290 
32391 
32450 
32520 
32563 
32656 
32788 
32901 
32947 
33029 
33107 
33236 
33362 
33497 
33629 
33736 
33795 
33868 
33968 
34021 
34062 
34147 
34172 
34206 
34315 
34470 
34630 
34725 
34820 
34956 
35097 
35231 
35292 
35360 
35468 
35565 
35595 
35632 
35732 
35805 
35843 
35841 
35929 
35991 
36033 
36048 
36111 
36191 
36233 
36267 
36324 
36422 
36495 
36507 
36519 
36540 
36604 
36677 
36730 
36834 
36842 
36795 
36770 
36751 
36773 
36856 
36924 
37023 
37131 
37123 
37065 
36972 
36892 
36876 
36875 
36879 
36891 
36904 
36877 
36920 
36933 
36990 
37056 
37036 
37001 
36992 
36943 
36942 
36915 
36888 
36899 
36957 
37009 
36992 
36947 
36865 
36824 
36789 
36769 
36682 
36649 
36691 
36717 
36710 
36658 
36624 
36573 
36539 
36540 
36512 
36477 
36448 
36427 
36421 
36407 
36476 
36460 
36392 
36361 
36329 
36301 
36287 
36275 
36269 
36247 
36218 
36229 
36153 
36103 
36079 
36124 
36127 
36061 
36012 
35968 
35865 
35745 
35614 
35486 
35348 
35208 
34956 
34661 
34359 
34068 
33776 
33457 
33105 
32716 
32331 
31944 
31538 
31149 
30750 
30357 
29953 
29593 
29238 
28852 
28539 
28238 
28024 
27749 
27482 
27233 
26967 
26693 
26457 
26289 
26151 
26018 
25845 
25718 
25597 
25463 
25412 
25362 
25271 
25228 
25278 
25305 
25352 
25444 
25545 
25631 
25714 
25753 
25788 
25900 
25978 
26091 
26162 
26277 
26426 
26541 
26728 
26901 
26991 
27171 
27408 
27600 
27810 
27904 
28089 
28351 
28536 
28711 
28897 
29095 
29241 
29372 
29526 
29700 
29893 
30039 
30141 
30283 
30481 
30626 
30735 
30863 
31017 
31145 
31261 
31400 
31521 
31666 
31865 
31972 
32052 
32191 
32265 
32335 
32367 
32462 
32597 
32743 
32794 
32833 
32867 
32953 
32989 
33053 
33154 
33175 
33233 
33320 
33319 
33385 
33566 
33615 
33636 
33705 
33761 
33819 
33916 
34033 
34103 
34184 
34253 
34305 
34385 
34438 
34549 
34654 
34694 
34754 
34825 
34926 
35000 
35055 
35104 
35107 
35165 
35222 
35306 
35371 
35398 
35431 
35506 
35577 
35687 
35811 
35821 
35815 
35885 
35920 
35883 
35955 
36027 
36040 
36026 
36029 
36040 
36028 
35994 
36010 
36076 
36069 
36015 
36024 
36038 
36041 
36032 
36050 
36093 
36166 
36154 
36103 
36114 
36096 
36039 
36058 
36067 
36016 
35996 
35983 
35965 
35985 
35960 
35930 
35936 
35885 
35819 
35799 
35767 
35743 
35788 
35729 
35693 
35727 
35693 
35663 
35651 
35665 
35606 
35577 
35514 
35449 
35378 
35363 
35366 
35314 
35298 
35310 
35228 
35103 
35021 
35039 
35017 
34973 
34956 
34887 
34821 
34845 
34812 
34835 
34833 
34780 
34729 
34670 
34617 
34620 
34595 
34505 
34503 
34565 
34598 
34588 
34570 
34526 
34411 
34382 
34401 
34404 
34372 
34306 
34237 
34192 
34134 
33990 
33842 
33807 
33805 
33704 
33481 
33278 
33016 
32712 
32370 
32034 
31735 
31387 
30985 
30612 
30224 
29841 
29412 
28956 
28533 
28142 
27765 
27403 
27056 
26738 
26439 
26124 
25818 
25558 
25313 
25148 
24913 
24665 
24412 
24268 
24141 
23989 
23911 
23796 
23658 
23604 
23576 
23566 
23540 
23519 
23562 
23654 
23699 
23710 
23813 
23977 
24048 
24057 
24084 
24154 
24342 
24493 
24610 
24780 
24938 
25115 
25278 
25407 
25588 
25753 
25904 
26063 
26193 
26386 
26625 
26885 
27099 
27257 
27350 
27520 
27770 
28033 
28201 
28338 
28466 
28572 
28702 
28899 
29093 
29175 
29254 
29353 
29492 
29613 
29689 
29703 
29778 
29870 
29930 
29993 
30076 
30185 
30242 
30306 
30427 
30469 
30482 
30502 
30534 
30610 
30701 
30766 
30858 
30909 
30904 
30958 
31038 
31070 
31126 
31263 
31400 
31529 
31646 
31694 
31787 
31942 
32014 
32098 
32232 
32341 
32413 
32576 
32727 
32807 
32883 
32947 
33054 
33173 
33242 
33320 
33478 
33637 
33800 
33871 
33914 
33992 
34064 
34142 
34231 
34344 
34439 
34448 
34471 
34558 
34672 
34748 
34771 
34816 
34813 
34798 
34838 
34911 
35023 
35068 
35044 
35073 
35138 
35179 
35164 
35084 
35051 
35052 
35034 
35022 
35013 
35017 
35002 
34965 
34973 
34961 
34933 
34946 
34907 
34838 
34766 
34718 
34705 
34659 
34625 
34600 
34509 
34423 
34354 
34330 
34340 
34303 
34267 
34307 
34315 
34344 
34388 
34333 
34226 
34196 
34223 
34172 
34125 
34077 
34048 
34021 
33984 
34007 
34034 
34055 
34048 
34015 
33943 
33901 
33878 
33870 
33909 
33931 
33816 
33720 
33726 
33706 
33685 
33671 
33620 
33502 
33404 
33328 
33179 
32957 
32729 
32493 
32269 
32027 
31789 
31458 
31142 
30861 
30511 
30150 
29793 
29428 
29108 
28775 
28412 
28054 
27696 
27320 
27026 
26762 
26455 
26182 
25916 
25657 
25509 
25362 
25219 
25062 
24855 
24707 
24569 
24470 
24455 
24421 
24437 
24461 
24445 
24473 
24530 
24550 
24613 
24718 
24826 
24930 
25027 
25134 
25256 
25317 
25394 
25593 
25765 
25897 
26021 
26152 
26290 
26523 
26735 
26923 
27124 
27322 
27515 
27666 
27820 
27993 
28193 
28331 
28456 
28569 
28708 
28864 
29084 
29213 
29351 
29513 
29629 
29681 
29758 
29857 
29946 
30031 
30141 
30234 
30323 
30405 
30511 
30576 
30674 
30749 
30800 
30821 
30922 
30987 
31062 
31089 
31117 
31257 
31352 
31410 
31500 
31574 
31616 
31665 
31750 
31795 
31832 
31883 
31979 
32039 
32116 
32253 
32353 
32427 
32479 
32533 
32554 
32663 
32804 
32902 
32996 
33081 
33120 
33201 
33314 
33402 
33463 
33603 
33668 
33744 
33864 
33989 
34101 
34133 
34198 
34253 
34278 
34284 
34321 
34328 
34352 
34379 
34397 
34475 
34551 
34610 
34633 
34657 
34702 
34693 
34797 
34866 
34855 
34916 
34997 
34948 
34912 
34942 
34997 
35105 
35137 
35169 
35180 
35202 
35202 
35201 
35210 
35264 
35272 
35175 
35159 
35207 
35233 
35219 
35155 
35070 
35018 
35053 
35095 
35072 
35076 
35068 
35002 
34971 
34986 
34978 
34930 
34861 
34832 
34855 
34848 
34801 
34742 
34716 
34704 
34680 
34709 
34764 
34775 
34769 
34803 
34736 
34674 
34628 
34591 
34553 
34540 
34544 
34563 
34544 
34502 
34467 
34436 
34432 
34441 
34441 
34396 
34319 
34212 
34157 
34036 
33843 
33625 
33391 
33074 
32746 
32427 
32035 
31689 
31336 
30949 
30570 
30142 
29713 
29282 
28879 
28469 
28062 
27690 
27286 
26840 
26439 
26066 
25775 
25457 
25109 
24810 
24532 
24337 
24185 
24011 
23805 
23640 
23564 
23431 
23243 
23100 
23051 
23069 
23074 
23073 
23088 
23097 
23103 
23199 
23279 
23356 
23430 
23511 
23559 
23601 
23718 
23846 
23997 
24153 
24324 
24450 
24538 
24714 
24918 
25074 
25213 
25423 
25661 
25843 
26040 
26230 
26421 
26639 
26851 
27080 
27322 
27572 
27794 
27976 
28184 
28390 
28485 
28624 
28772 
28880 
29030 
29221 
29382 
29525 
29655 
29764 
29915 
29998 
30109 
30185 
30271 
30391 
30531 
30666 
30773 
30855 
30885 
31036 
31212 
31310 
31395 
31516 
31653 
31765 
31852 
31936 
32029 
32136 
32244 
32397 
32478 
32576 
32635 
32695 
32806 
32955 
33109 
33206 
33307 
33426 
33552 
33665 
33755 
33855 
34008 
34161 
34304 
34391 
34417 
34504 
34610 
34715 
34827 
34926 
35002 
35149 
35281 
35359 
35385 
35392 
35457 
35543 
35568 
35628 
35778 
35899 
35986 
36033 
36054 
36087 
36177 
36239 
36294 
36327 
36280 
36275 
36273 
36239 
36267 
36268 
36287 
36367 
36464 
36503 
36478 
36444 
36433 
36433 
36424 
36433 
36452 
36496 
36543 
36562 
36591 
36631 
36641 
36612 
36527 
36484 
36471 
36418 
36423 
36444 
36435 
36433 
36404 
36381 
36412 
36403 
36314 
36308 
36299 
36251 
36200 
36112 
36077 
36016 
35946 
35912 
35866 
35853 
35840 
35809 
35772 
35706 
35675 
35688 
35621 
35510 
35436 
35398 
35384 
35387 
35381 
35394 
35408 
35354 
35347 
35311 
35282 
35232 
35228 
35232 
35153 
35184 
35180 
35117 
35022 
34919 
34818 
34739 
34585 
34377 
34174 
34016 
33833 
33574 
33272 
32965 
32630 
32293 
31951 
31582 
31178 
30739 
30269 
29864 
29514 
29096 
28646 
28246 
27897 
27505 
27139 
26791 
26453 
26143 
25842 
25508 
25240 
25059 
24880 
24679 
24442 
24226 
24080 
23975 
23946 
23914 
23914 
23889 
23832 
23804 
23803 
23808 
23795 
23813 
23852 
23985 
24152 
24272 
24358 
24406 
24475 
24545 
24568 
24685 
24891 
25096 
25212 
25320 
25531 
25750 
25949 
26163 
26308 
26474 
26680 
26919 
27123 
27290 
27411 
27526 
27674 
27845 
28017 
28214 
28412 
28607 
28753 
28962 
29158 
29309 
29348 
29413 
29530 
29670 
29841 
29994 
30071 
30187 
30340 
30453 
30612 
30726 
30781 
30831 
30882 
30941 
31073 
31241 
31285 
31300 
31423 
31539 
31628 
31688 
31749 
31805 
31911 
31987 
32084 
32179 
32251 
32345 
32395 
32488 
32627 
32761 
32865 
32863 
32914 
33029 
33211 
33365 
33477 
33574 
33673 
33757 
33877 
33946 
33995 
34054 
34135 
34212 
34299 
34396 
34519 
34570 
34623 
34686 
34765 
34783 
34801 
34886 
34925 
35015 
35114 
35135 
35172 
35196 
35302 
35332 
35280 
35258 
35292 
35317 
35329 
35380 
35391 
35429 
35480 
35516 
35534 
35608 
35644 
35657 
35736 
35747 
35748 
35655 
35588 
35598 
35592 
35523 
35528 
35555 
35555 
35552 
35525 
35502 
35494 
35495 
35418 
35391 
35396 
35426 
35440 
35444 
35422 
35400 
35395 
35385 
35330 
35311 
35317 
35297 
35209 
35163 
35098 
35073 
35037 
35048 
35066 
35062 
35007 
34960 
34949 
34910 
34874 
34793 
34705 
34630 
34602 
34561 
34454 
34313 
34134 
33885 
33674 
33537 
33383 
33142 
32840 
32547 
32211 
31864 
31522 
31186 
30854 
30538 
30193 
29820 
29445 
29103 
28796 
28510 
28241 
27944 
27638 
27325 
27007 
26713 
26514 
26343 
26196 
26042 
25856 
25680 
25515 
25386 
25355 
25304 
25228 
25158 
25150 
25133 
25132 
25176 
25211 
25269 
25333 
25392 
25490 
25617 
25698 
25778 
25860 
25953 
26105 
26259 
26371 
26497 
26664 
26860 
27062 
27299 
27503 
27640 
27810 
28031 
28181 
28324 
28478 
28655 
28854 
28993 
29158 
29332 
29518 
29683 
29802 
29946 
30043 
30062 
30211 
30346 
30423 
30535 
30683 
30762 
30824 
30870 
30880 
30917 
30975 
31067 
31154 
31232 
31318 
31385 
31426 
31401 
31415 
31470 
31565 
31571 
31552 
31521 
31568 
31666 
31703 
31788 
31865 
31979 
32068 
32089 
32107 
32153 
32234 
32305 
32371 
32451 
32514 
32543 
32593 
32693 
32771 
32827 
32916 
32994 
33060 
33115 
33207 
33267 
33325 
33443 
33485 
33513 
33573 
33611 
33641 
33693 
33766 
33810 
33886 
33976 
34087 
34112 
34116 
34146 
34158 
34161 
34211 
34349 
34413 
34416 
34378 
34355 
34356 
34413 
34471 
34490 
34511 
34529 
34574 
34613 
34645 
34673 
34684 
34715 
34773 
34780 
34748 
34731 
34740 
34736 
34698 
34708 
34736 
34709 
34648 
34586 
34514 
34512 
34567 
34579 
34533 
34435 
34368 
34287 
34226 
34197 
34142 
34078 
33997 
33929 
33857 
33764 
33704 
33640 
33536 
33425 
33375 
33361 
33313 
33233 
33140 
33130 
33125 
33058 
32954 
32881 
32834 
32743 
32636 
32544 
32392 
32234 
32097 
31965 
31802 
31638 
31486 
31317 
31133 
30866 
30574 
30277 
29986 
29681 
29419 
29173 
28927 
28654 
28441 
28272 
28068 
27756 
27530 
27387 
27224 
27048 
26887 
26744 
26635 
26515 
26431 
26400 
26324 
26146 
25992 
25898 
25968 
26032 
26019 
25960 
25945 
25993 
26095 
26153 
26151 
26188 
26263 
26343 
26439 
26548 
26595 
26663 
26745 
26834 
26887 
26986 
27113 
27247 
27398 
27577 
27790 
27989 
28089 
28193 
28326 
28444 
28582 
28769 
28859 
29025 
29227 
29405 
29580 
29715 
29815 
29930 
30017 
30075 
30192 
30296 
30397 
30490 
30655 
30823 
30912 
30947 
31049 
31147 
31260 
31374 
31435 
31475 
31587 
31703 
31797 
31902 
31998 
32095 
32155 
32221 
32328 
32465 
32533 
32589 
32662 
32776 
32820 
32867 
32975 
33080 
33159 
33168 
33161 
33233 
33390 
33515 
33638 
33681 
33719 
33808 
33888 
33926 
33996 
34073 
34210 
34295 
34282 
34374 
34543 
34582 
34647 
34703 
34702 
34776 
34860 
34857 
34904 
34949 
34969 
34959 
34952 
34956 
34953 
34931 
34879 
34824 
34730 
34612 
34549 
34511 
34476 
34410 
34340 
34225 
34157 
34113 
34005 
33925 
33867 
33829 
33720 
33562 
33467 
33391 
33305 
33270 
33204 
33128 
33003 
32858 
32823 
32819 
32768 
32689 
32631 
32579 
32531 
32506 
32484 
32442 
32392 
32346 
32342 
32374 
32374 
32319 
32285 
32243 
32232 
32244 
32222 
32180 
32204 
32242 
32301 
32296 
32265 
32291 
32379 
32417 
32368 
32431 
32448 
32458 
32573 
32603 
32574 
32550 
32595 
32640 
32671 
32712 
32721 
32712 
32684 
32697 
32708 
32712 
32765 
32809 
32795 
32801 
32823 
32868 
32880 
32944 
32961 
32897 
32888 
32929 
32973 
33005 
33052 
33058 
33085 
33120 
33096 
33070 
33035 
33024 
33015 
33024 
33062 
33077 
33020 
32841 
32673 
32536 
32370 
32139 
31920 
31703 
31514 
31331 
31113 
30880 
30745 
30623 
30492 
30362 
30201 
30001 
29852 
29719 
29589 
29465 
29353 
29244 
29124 
29036 
28948 
28864 
28812 
28782 
28733 
28667 
28666 
28624 
28541 
28482 
28437 
28472 
28477 
28462 
28473 
28490 
28493 
28483 
28541 
28600 
28587 
28599 
28611 
28660 
28762 
28857 
28926 
29023 
29108 
29221 
29275 
29328 
29413 
29477 
29599 
29693 
29745 
29882 
29957 
30028 
30102 
30131 
30193 
30199 
30219 
30200 
30188 
30165 
30126 
30101 
30080 
30106 
30146 
30146 
30075 
30011 
29955 
29971 
29992 
29962 
29937 
29914 
29878 
29871 
29895 
29927 
29968 
30047 
30049 
30045 
30070 
30084 
30029 
29961 
29961 
30038 
30135 
30200 
30218 
30235 
30253 
30224 
30224 
30285 
30398 
30494 
30555 
30653 
30727 
30799 
30836 
30879 
30978 
31054 
31101 
31244 
31389 
31510 
31606 
31717 
31768 
31804 
31879 
31981 
32083 
32172 
32220 
32268 
32367 
32490 
32660 
32746 
32836 
32898 
32936 
33035 
33089 
33108 
33184 
33254 
33343 
33416 
33535 
33647 
33677 
33777 
33904 
33976 
34071 
34072 
34044 
34090 
34187 
34272 
34398 
34498 
34558 
34588 
34627 
34676 
34778 
34830 
34812 
34901 
34937 
34971 
35043 
35065 
35086 
35154 
35224 
35283 
35325 
35376 
35468 
35527 
35574 
35627 
35657 
35720 
35760 
35788 
35820 
35873 
35903 
35907 
35917 
35947 
35941 
35947 
35967 
35999 
35970 
35950 
35932 
35890 
35867 
35898 
35945 
35974 
35969 
35925 
35881 
35780 
35731 
35675 
35627 
35576 
35559 
35505 
35455 
35474 
35478 
35467 
35442 
35420 
35358 
35299 
35289 
35274 
35258 
35249 
35274 
35225 
35203 
35195 
35155 
35122 
35130 
35110 
35100 
35115 
35115 
35133 
35222 
35273 
35284 
35283 
35261 
35271 
35255 
35223 
35208 
35208 
35223 
35183 
35147 
35151 
35173 
35218 
35241 
35165 
35116 
35079 
35071 
35110 
35129 
35080 
35071 
35115 
35105 
35117 
35124 
35127 
35073 
35033 
35031 
35011 
34978 
34956 
34963 
34933 
34929 
34967 
34927 
34868 
34842 
34889 
34940 
34992 
34967 
34923 
34909 
34872 
34857 
34838 
34816 
34766 
34735 
34740 
34751 
34695 
34601 
34560 
34543 
34566 
34553 
34527 
34466 
34409 
34386 
34357 
34311 
34235 
34167 
34127 
34149 
34122 
34100 
34094 
34079 
34070 
34052 
34065 
34007 
33977 
33963 
33956 
33911 
33812 
33793 
33769 
33796 
33786 
33774 
33766 
33757 
33730 
33689 
33674 
33661 
33586 
33524 
33521 
33493 
33498 
33460 
33364 
33317 
33250 
33263 
33280 
33276 
33302 
33316 
33303 
33283 
33272 
33255 
33199 
33112 
33105 
33195 
33158 
33110 
33053 
33031 
33027 
32988 
32999 
32898 
32784 
32700 
32682 
32675 
32640 
32666 
32658 
32529 
32481 
32530 
32535 
32543 
32594 
32537 
32509 
32560 
32567 
32534 
32505 
32446 
32381 
32392 
32430 
32429 
32428 
32437 
32410 
32342 
32270 
32240 
32209 
32162 
32117 
32068 
32046 
32041 
32014 
31964 
31917 
31923 
31916 
31901 
31916 
31943 
31924 
31897 
31826 
31800 
31768 
31770 
31775 
31803 
31858 
31812 
31744 
31742 
31762 
31745 
31693 
31670 
31597 
31558 
31631 
31687 
31654 
31615 
31592 
31561 
31482 
31453 
31430 
31394 
31404 
31419 
31350 
31297 
31302 
31322 
31352 
31324 
31313 
31386 
31398 
31355 
31351 
31313 
31302 
31315 
31284 
31246 
31290 
31304 
31264 
31234 
31190 
31148 
31107 
31109 
31115 
31158 
31151 
31140 
31147 
31113 
31063 
31028 
30982 
30967 
30976 
30984 
30970 
30916 
30885 
30838 
30859 
30852 
30861 
30926 
30961 
30972 
30952 
30912 
30892 
30884 
30893 
30881 
30898 
30925 
30943 
30961 
30948 
30950 
30940 
30861 
30799 
30795 
30775 
30753 
30739 
30713 
30701 
30659 
30674 
30721 
30758 
30769 
30814 
30815 
30840 
30865 
30848 
30856 
30834 
30787 
30727 
30667 
30638 
30626 
30556 
30552 
30616 
30659 
30687 
30649 
30693 
30780 
30765 
30709 
30710 
30700 
30657 
30671 
30678 
30652 
30649 
30729 
30694 
30646 
30620 
30592 
30526 
30512 
30560 
30575 
30608 
30689 
30697 
30591 
30539 
30532 
30517 
30449 
30420 
30454 
30475 
30532 
30599 
30608 
30592 
30650 
30667 
30670 
30669 
30649 
30668 
30677 
30650 
30673 
30705 
30683 
30664 
30607 
30563 
30587 
30627 
30664 
30689 
30712 
30679 
30670 
30651 
30668 
30699 
30678 
30665 
30700 
30738 
30755 
30725 
30732 
30736 
30720 
30684 
30656 
30637 
30635 
30609 
30580 
30606 
30648 
30702 
30696 
30693 
30763 
30799 
30778 
30807 
30830 
30824 
30886 
30839 
30800 
30781 
30817 
30833 
30854 
30831 
30796 
30791 
30842 
30834 
30799 
30774 
30760 
30716 
30722 
30754 
30802 
30839 
30842 
30866 
30834 
30808 
30840 
30885 
30903 
30870 
30818 
30817 
30862 
30808 
30788 
30794 
30795 
30828 
30859 
30870 
30863 
30806 
30803 
30836 
30842 
30813 
30815 
30818 
30785 
30744 
30728 
30749 
30775 
30797 
30839 
30922 
30928 
30865 
30887 
30892 
30871 
30898 
30910 
30883 
30878 
30862 
30859 
30830 
30800 
30779 
30802 
30754 
30705 
30742 
30768 
30781 
30796 
30773 
30745 
30747 
30752 
30785 
30837 
30844 
30835 
30838 
30825 
30795 
30821 
30849 
30868 
30859 
30788 
30738 
30744 
30751 
30748 
30757 
30797 
30802 
30805 
30823 
30816 
30809 
30777 
30825 
30839 
30835 
30806 
30801 
30823 
30845 
30819 
30783 
30796 
30781 
30784 
30802 
30797 
30797 
30803 
30825 
30762 
30752 
30738 
30710 
30744 
30748 
30730 
30749 
30725 
30756 
30791 
30743 
30679 
30675 
30710 
30721 
30671 
30630 
30647 
30661 
30675 
30733 
30772 
30749 
30751 
30735 
30687 
30692 
30729 
30676 
30641 
30655 
30664 
30662 
30607 
30618 
30666 
30702 
30639 
30602 
30684 
30682 
30633 
30631 
30612 
30604 
30595 
30578 
30571 
30569 
30625 
30648 
30615 
30646 
30698 
30680 
30584 
30505 
30506 
30583 
30588 
30571 
30622 
30655 
30648 
30583 
30552 
30583 
30591 
30573 
30577 
30590 
30619 
30619 
30596 
30538 
30489 
30490 
30514 
30503 
30494 
30464 
30481 
30483 
30468 
30495 
30547 
30603 
30642 
30673 
30706 
30754 
30760 
30738 
30663 
30613 
30601 
30568 
30523 
30500 
30516 
30503 
30522 
30566 
30498 
30493 
30564 
30575 
30583 
30549 
30519 
30516 
30464 
30460 
30496 
30528 
30486 
30412 
30369 
30356 
30414 
30476 
30496 
30501 
30437 
30425 
30419 
30480 
30485 
30417 
30470 
30524 
30535 
30586 
30576 
30515 
30474 
30498 
30518 
30518 
30521 
30521 
30553 
30545 
30529 
30513 
30502 
30472 
30468 
30473 
30485 
30470 
30421 
30437 
30477 
30445 
30461 
30498 
30513 
30452 
30465 
30515 
30471 
30448 
30460 
30504 
30527 
30520 
30471 
30425 
30381 
30433 
30452 
30368 
30350 
30351 
30377 
30392 
30418 
30412 
30399 
30355 
30350 
30356 
30368 
30372 
30375 
30452 
30468 
30509 
30494 
30490 
30511 
30515 
30502 
30446 
30449 
30433 
30416 
30401 
30428 
30431 
30476 
30478 
30430 
30374 
30361 
30345 
30297 
30319 
30367 
30440 
30477 
30469 
30460 
30431 
30337 
30308 
30290 
30287 
30335 
30427 
30461 
30481 
30473 
30441 
30460 
30429 
30375 
30409 
30419 
30400 
30360 
30314 
30323 
30321 
30350 
30383 
30434 
30447 
30424 
30402 
30370 
30341 
30364 
30404 
30442 
30413 
30353 
30355 
30411 
30439 
30379 
30341 
30380 
30364 
30393 
30414 
30399 
30367 
30344 
30338 
30353 
30338 
30328 
30369 
30418 
30426 
30430 
30466 
30468 
30466 
30421 
30374 
30335 
30361 
30419 
30407 
30404 
30395 
30368 
30337 
30352 
30392 
30415 
30421 
30440 
30477 
30425 
30376 
30337 
30299 
30257 
30289 
30336 
30368 
30346 
30316 
30344 
30392 
30401 
30388 
30353 
30344 
30324 
30282 
30241 
30180 
30170 
30157 
30207 
30266 
30297 
30292 
30282 
30310 
30321 
30288 
30236 
30208 
30252 
30283 
30322 
30306 
30261 
30289 
30380 
30392 
30362 
30347 
30298 
30242 
30222 
30273 
30300 
30297 
30297 
30299 
30285 
30261 
30269 
30270 
30292 
30255 
30205 
30191 
30240 
30232 
30184 
30213 
30225 
30223 
30221 
30199 
30222 
30259 
30281 
30237 
30218 
30217 
30234 
30253 
30276 
30282 
30305 
30272 
30298 
30381 
30385 
30330 
30299 
30361 
30454 
30465 
30442 
30362 
30297 
30279 
30298 
30317 
30314 
30340 
30351 
30353 
30398 
30438 
30441 
30461 
30463 
30433 
30372 
30323 
30318 
30330 
30359 
30365 
30349 
30355 
30312 
30391 
30425 
30394 
30389 
30387 
30357 
30372 
30365 
30412 
30412 
30349 
30331 
30341 
30348 
30403 
30452 
30472 
30415 
30373 
30388 
30403 
30399 
30380 
30372 
30369 
30373 
30362 
30381 
30411 
30418 
30375 
30329 
30270 
30276 
30295 
30309 
30347 
30344 
30403 
30397 
30309 
30297 
30268 
30312 
30314 
30357 
30368 
30379 
30371 
30360 
30378 
30349 
30329 
30378 
30389 
30403 
30447 
30448 
30415 
30400 
30411 
30384 
30363 
30394 
30424 
30440 
30385 
30311 
30263 
30276 
30316 
30335 
30341 
30339 
30359 
30353 
30365 
30375 
30373 
30309 
30222 
30184 
30200 
30232 
30238 
30252 
30264 
30247 
30196 
30192 
30242 
30304 
30313 
30301 
30299 
30273 
30248 
30231 
30236 
30245 
30245 
30241 
30214 
30247 
30252 
30206 
30217 
30273 
30226 
30275 
30327 
30262 
30206 
30221 
30263 
30231 
30186 
30182 
30152 
30093 
30093 
30163 
30194 
30171 
30153 
30175 
30197 
30218 
30185 
30185 
30160 
30180 
30210 
30252 
30229 
30237 
30228 
30232 
30270 
30251 
30248 
30238 
30226 
30234 
30259 
30270 
30258 
30218 
30176 
30167 
30182 
30175 
30234 
30296 
30289 
30257 
30218 
30193 
30189 
30186 
30163 
30142 
30175 
30201 
30208 
30239 
30257 
30216 
30166 
30142 
30136 
30160 
30146 
30163 
30177 
30208 
30168 
30151 
30203 
30215 
30266 
30310 
30320 
30287 
30264 
30200 
30122 
30111 
30116 
30134 
30148 
30175 
30202 
30200 
30225 
30260 
30211 
30131 
30126 
30134 
30112 
30122 
30188 
30161 
30158 
30197 
30180 
30113 
30108 
30135 
30142 
30132 
30156 
30203 
30205 
30177 
30182 
30216 
30193 
30175 
30172 
30192 
30161 
30126 
30131 
30135 
30175 
30210 
30198 
30180 
30196 
30178 
30181 
30138 
30131 
30152 
30150 
30147 
30181 
30225 
30226 
30176 
30110 
30117 
30139 
30097 
30138 
30193 
30169 
30118 
30097 
30115 
30128 
30061 
30055 
30061 
30096 
30161 
30228 
30250 
30237 
30204 
30116 
30065 
30100 
30162 
30151 
30091 
30051 
30101 
30150 
30105 
30104 
30046 
30021 
29993 
30001 
30003 
30026 
30032 
30054 
30065 
30101 
30115 
30077 
30048 
30054 
30051 
30054 
30029 
30000 
29938 
29889 
29875 
29942 
29986 
30053 
30069 
30049 
30013 
29994 
30032 
30041 
29999 
30015 
30066 
30087 
30052 
30020 
29994 
30000 
30015 
30004 
30088 
30141 
30113 
30098 
30060 
30062 
30093 
30099 
30124 
30113 
30096 
30122 
30139 
30115 
30069 
30015 
30056 
30150 
30174 
30191 
30173 
30126 
30116 
30089 
30065 
30091 
30064 
30037 
30005 
30011 
29974 
29982 
30010 
30011 
30057 
30092 
30090 
30118 
30108 
30093 
30065 
30052 
30070 
30083 
30144 
30125 
30126 
30141 
30115 
30065 
30076 
30062 
30023 
29967 
29951 
29988 
30045 
30051 
30048 
30059 
30053 
30063 
30050 
30040 
30048 
30064 
30057 
30008 
29988 
29994 
29963 
29930 
29911 
29924 
29941 
29953 
29972 
29988 
30011 
30017 
30028 
30000 
29943 
29937 
29974 
29971 
29959 
29980 
29976 
29936 
30019 
30061 
30093 
30064 
29993 
29969 
29961 
29978 
29985 
29929 
29879 
29871 
29889 
29910 
29961 
29963 
29955 
29987 
29949 
29904 
29888 
29916 
29946 
29939 
29949 
30004 
30031 
30048 
30002 
29991 
29988 
30004 
29999 
29981 
29943 
29889 
29885 
29946 
29998 
29987 
30006 
30024 
30019 
30007 
29990 
29922 
29887 
29945 
29955 
29920 
29866 
29821 
29837 
29857 
29838 
29826 
29823 
29858 
29916 
29892 
29869 
29854 
29857 
29795 
29787 
29844 
29900 
29934 
29954 
29926 
29911 
29880 
29838 
29866 
29921 
29897 
29887 
29900 
29869 
29868 
29892 
29905 
29897 
29942 
29960 
29990 
29959 
29910 
29879 
29886 
29891 
29937 
30008 
30029 
30014 
29971 
29897 
29861 
29842 
29891 
29957 
29954 
29911 
29939 
29958 
29900 
29867 
29850 
29828 
29785 
29799 
29870 
29899 
29906 
29945 
29924 
29872 
29812 
29804 
29820 
29849 
29827 
29827 
29849 
29864 
29907 
29895 
29876 
29839 
29896 
29933 
29891 
29874 
29827 
29836 
29837 
29830 
29828 
29851 
29859 
29842 
29824 
29791 
29735 
29714 
29732 
29731 
29735 
29790 
29800 
29773 
29765 
29794 
29787 
29777 
29774 
29832 
29919 
29899 
29862 
29859 
29831 
29879 
29905 
29884 
29814 
29771 
29770 
29767 
29763 
29804 
29856 
29829 
29791 
29762 
29807 
29853 
29858 
29815 
29776 
29767 
29790 
29799 
29841 
29858 
29868 
29834 
29864 
29911 
29911 
29895 
29863 
29824 
29772 
29785 
29874 
29893 
29854 
29827 
29800 
29781 
29749 
29793 
29837 
29915 
29990 
29960 
29912 
29844 
29827 
29855 
29906 
29931 
29959 
29999 
29974 
29988 
30019 
29984 
29886 
29817 
29854 
29923 
29961 
29986 
29969 
29921 
29903 
29862 
29863 
29837 
29749 
29734 
29826 
29838 
29826 
29850 
29847 
29804 
29750 
29664 
29648 
29691 
29755 
29727 
29731 
29778 
29791 
29786 
29815 
29799 
29792 
29777 
29722 
29703 
29706 
29692 
29635 
29651 
29697 
29669 
29644 
29626 
29617 
29635 
29650 
29614 
29572 
29601 
29657 
29712 
29728 
29728 
29654 
29640 
29641 
29661 
29678 
29657 
29649 
29642 
29696 
29713 
29680 
29678 
29680 
29594 
29553 
29613 
29672 
29655 
29606 
29580 
29586 
29570 
29568 
29603 
29619 
29624 
29623 
29680 
29673 
29647 
29603 
29567 
29562 
29584 
29634 
29629 
29614 
29581 
29562 
29604 
29655 
29713 
29697 
29641 
29610 
29607 
29640 
29669 
29721 
29759 
29753 
29729 
29657 
29632 
29620 
29693 
29757 
29750 
29746 
29714 
29740 
29758 
29717 
29618 
29591 
29566 
29539 
29538 
29556 
29573 
29665 
29690 
29713 
29714 
29730 
29755 
29713 
29641 
29708 
29779 
29774 
29732 
29735 
29779 
29790 
29763 
29769 
29764 
29782 
29755 
29748 
29765 
29730 
29693 
29698 
29693 
29708 
29698 
29673 
29674 
29673 
29688 
29738 
29748 
29731 
29749 
29732 
29688 
29633 
29628 
29678 
29694 
29673 
29663 
29714 
29747 
29708 
29709 
29703 
29695 
29738 
29746 
29733 
29681 
29718 
29679 
29618 
29575 
29610 
29693 
29709 
29707 
29726 
29751 
29757 
29762 
29779 
29771 
29741 
29737 
29769 
29785 
29732 
29672 
29655 
29646 
29623 
29628 
29693 
29673 
29627 
29645 
29700 
29732 
29776 
29756 
29698 
29687 
29656 
29687 
29628 
29581 
29653 
29714 
29750 
29713 
29693 
29651 
29645 
29636 
29658 
29730 
29743 
29771 
29800 
29802 
29771 
29754 
29725 
29687 
29715 
29789 
29799 
29781 
29712 
29659 
29637 
29673 
29667 
29629 
29646 
29705 
29712 
29739 
29716 
29712 
29726 
29682 
29614 
29643 
29672 
29685 
29664 
29694 
29734 
29752 
29736 
29690 
29660 
29646 
29640 
29661 
29694 
29716 
29736 
29754 
29780 
29802 
29850 
29846 
29792 
29730 
29712 
29718 
29734 
29747 
29740 
29679 
29650 
29611 
29668 
29676 
29641 
29644 
29631 
29652 
29652 
29656 
29651 
29610 
29637 
29659 
29631 
29599 
29623 
29658 
29623 
29550 
29553 
29565 
29623 
29706 
29705 
29632 
29626 
29648 
29641 
29620 
29603 
29603 
29590 
29582 
29600 
29604 
29594 
29585 
29610 
29659 
29675 
29641 
29609 
29589 
29580 
29582 
29550 
29562 
29532 
29485 
29469 
29475 
29511 
29540 
29602 
29608 
29603 
29628 
29672 
29695 
29667 
29633 
29598 
29577 
29598 
29641 
29670 
29708 
29721 
29716 
29719 
29651 
29589 
29569 
29595 
29595 
29553 
29534 
29510 
29482 
29536 
29522 
29481 
29507 
29501 
29496 
29451 
29431 
29459 
29536 
29598 
29651 
29632 
29625 
29664 
29650 
29644 
29632 
29679 
29758 
29745 
29697 
29677 
29646 
29638 
29633 
29609 
29575 
29579 
29616 
29658 
29670 
29670 
29597 
29573 
29620 
29673 
29702 
29682 
29640 
29592 
29590 
29606 
29618 
29628 
29645 
29660 
29691 
29730 
29744 
29751 
29696 
29651 
29614 
29628 
29623 
29618 
29647 
29666 
29659 
29617 
29577 
29597 
29613 
29638 
29683 
29684 
29687 
29668 
29640 
29624 
29603 
29643 
29687 
29627 
29540 
29517 
29566 
29577 
29605 
29710 
29740 
29706 
29687 
29658 
29618 
29610 
29586 
29564 
29514 
29505 
29588 
29608 
29590 
29621 
29662 
29671 
29661 
29636 
29594 
29611 
29618 
29627 
29636 
29624 
29584 
29549 
29556 
29562 
29548 
29611 
29586 
29551 
29534 
29522 
29561 
29580 
29554 
29564 
29598 
29589 
29587 
29615 
29593 
29560 
29565 
29559 
29580 
29588 
29579 
29581 
29566 
29535 
29564 
29579 
29574 
29591 
29590 
29564 
29471 
29397 
29376 
29392 
29453 
29525 
29540 
29553 
29559 
29517 
29501 
29547 
29609 
29594 
29629 
29651 
29601 
29576 
29545 
29538 
29555 
29532 
29541 
29590 
29627 
29583 
29609 
29635 
29652 
29626 
29557 
29532 
29541 
29565 
29606 
29588 
29547 
29515 
29588 
29654 
29651 
29716 
29733 
29667 
29606 
29649 
29665 
29616 
29598 
29618 
29573 
29581 
29629 
29603 
29641 
29637 
29652 
29637 
29596 
29526 
29541 
29573 
29645 
29666 
29651 
29573 
29558 
29573 
29539 
29533 
29594 
29609 
29621 
29631 
29626 
29624 
29599 
29540 
29540 
29614 
29677 
29651 
29597 
29616 
29676 
29651 
29610 
29567 
29551 
29565 
29558 
29484 
29424 
29440 
29485 
29462 
29457 
29478 
29559 
29603 
29589 
29613 
29621 
29566 
29522 
29537 
29615 
29622 
29638 
29630 
29598 
29552 
29499 
29523 
29546 
29591 
29634 
29641 
29598 
29591 
29595 
29611 
29631 
29621 
29630 
29668 
29648 
29666 
29655 
29642 
29578 
29560 
29521 
29497 
29514 
29531 
29517 
29491 
29465 
29437 
29399 
29367 
29409 
29490 
29547 
29513 
29494 
29519 
29515 
29497 
29543 
29589 
29540 
29513 
29507 
29487 
29480 
29451 
29470 
29548 
29663 
29669 
29592 
29588 
29534 
29547 
29609 
29632 
29609 
29580 
29589 
29625 
29637 
29566 
29526 
29534 
29594 
29582 
29512 
29499 
29533 
29581 
29592 
29596 
29614 
29587 
29571 
29556 
29571 
29627 
29601 
29594 
29572 
29536 
29473 
29445 
29482 
29546 
29605 
29536 
29448 
29418 
29474 
29510 
29500 
29482 
29475 
29498 
29514 
29572 
29549 
29487 
29479 
29491 
29523 
29541 
29555 
29561 
29541 
29539 
29529 
29502 
29533 
29499 
29457 
29462 
29413 
29373 
29411 
29479 
29514 
29571 
29566 
29545 
29542 
29529 
29512 
29462 
29436 
29409 
29441 
29439 
29422 
29439 
29445 
29479 
29474 
29494 
29532 
29551 
29553 
29540 
29504 
29520 
29535 
29509 
29474 
29453 
29446 
29477 
29493 
29458 
29423 
29425 
29417 
29457 
29499 
29478 
29467 
29515 
29519 
29502 
29516 
29526 
29510 
29467 
29447 
29446 
29433 
29430 
29415 
29428 
29461 
29440 
29412 
29450 
29459 
29454 
29510 
29530 
29501 
29450 
29438 
29407 
29403 
29396 
29419 
29417 
29408 
29455 
29483 
29443 
29389 
29387 
29373 
29384 
29454 
29467 
29519 
29504 
29486 
29467 
29426 
29391 
29362 
29370 
29416 
29453 
29461 
29476 
29468 
29439 
29456 
29444 
29421 
29463 
29520 
29578 
29604 
29608 
29598 
29589 
29586 
29551 
29535 
29520 
29505 
29547 
29613 
29570 
29472 
29411 
29414 
29389 
29346 
29357 
29361 
29411 
29467 
29506 
29520 
29473 
29428 
29419 
29434 
29502 
29540 
29550 
29580 
29586 
29547 
29496 
29438 
29419 
29398 
29379 
29351 
29337 
29372 
29397 
29388 
29417 
29456 
29397 
29351 
29340 
29382 
29414 
29393 
29390 
29401 
29365 
29388 
29398 
29384 
29368 
29365 
29380 
29397 
29389 
29325 
29218 
29157 
29173 
29185 
29167 
29236 
29225 
29199 
29231 
29272 
29264 
29228 
29164 
29131 
29192 
29229 
29214 
29213 
29166 
29203 
29202 
29171 
29093 
29082 
29114 
29179 
29197 
29155 
29161 
29217 
29254 
29287 
29279 
29241 
29143 
29077 
29093 
29091 
29094 
29147 
29123 
29111 
29122 
29147 
29143 
29184 
29240 
29220 
29215 
29193 
29173 
29210 
29236 
29211 
29219 
29268 
29262 
29242 
29248 
29283 
29275 
29228 
29221 
29205 
29240 
29309 
29316 
29273 
29181 
29114 
29147 
29259 
29336 
29347 
29392 
29398 
29440 
29514 
29507 
29509 
29453 
29363 
29290 
29279 
29278 
29252 
29239 
29289 
29367 
29421 
29428 
29442 
29463 
29463 
29380 
29352 
29416 
29446 
29475 
29486 
29466 
29458 
29479 
29547 
29549 
29498 
29487 
29516 
29512 
29509 
29538 
29549 
29582 
29514 
29468 
29508 
29537 
29506 
29429 
29448 
29467 
29442 
29435 
29440 
29470 
29575 
29658 
29623 
29597 
29638 
29660 
29642 
29662 
29679 
29673 
29662 
29630 
29581 
29598 
29592 
29601 
29630 
29602 
29613 
29610 
29607 
29600 
29604 
29578 
29547 
29617 
29650 
29604 
29608 
29605 
29624 
29648 
29632 
29615 
29563 
29557 
29583 
29574 
29595 
29580 
29573 
29593 
29568 
29538 
29556 
29551 
29570 
29580 
29536 
29494 
29544 
29559 
29522 
29525 
29524 
29512 
29523 
29512 
29522 
29549 
29584 
29578 
29550 
29524 
29470 
29462 
29509 
29548 
29532 
29563 
29669 
29672 
29655 
29643 
29608 
29612 
29615 
29591 
29528 
29508 
29488 
29513 
29578 
29571 
29548 
29566 
29561 
29535 
29515 
29512 
29542 
29508 
29523 
29509 
29492 
29502 
29522 
29545 
29583 
29600 
29631 
29622 
29597 
29578 
29557 
29549 
29506 
29469 
29451 
29439 
29432 
29374 
29335 
29323 
29324 
29312 
29271 
29242 
29211 
29142 
29074 
29055 
28990 
28905 
28867 
28862 
28851 
28872 
28940 
28911 
28833 
28778 
28760 
28740 
28721 
28746 
28745 
28762 
28791 
28794 
28749 
28722 
28740 
28725 
28723 
28734 
28762 
28817 
28847 
28774 
28711 
28684 
28684 
28674 
28667 
28703 
28730 
28719 
28731 
28714 
28723 
28708 
28660 
28668 
28706 
28752 
28786 
28767 
28767 
28760 
28803 
28831 
28843 
28878 
28937 
28947 
28940 
28927 
28916 
28982 
29098 
29143 
29212 
29194 
29198 
29156 
29123 
29095 
29116 
29140 
29136 
29114 
29092 
29126 
29168 
29168 
29178 
29194 
29249 
29327 
29385 
29393 
29354 
29302 
29330 
29382 
29418 
29453 
29458 
29460 
29515 
29482 
29453 
29473 
29470 
29508 
29533 
29597 
29624 
29653 
29614 
29583 
29608 
29642 
29663 
29676 
29669 
29711 
29719 
29699 
29623 
29587 
29561 
29606 
29639 
29625 
29641 
29659 
29609 
29574 
29602 
29656 
29736 
29778 
29733 
29706 
29667 
29689 
29719 
29721 
29769 
29849 
29851 
29858 
29862 
29838 
29834 
29814 
29809 
29868 
29903 
29936 
29944 
29929 
29918 
29940 
29936 
29931 
29953 
29948 
29938 
29921 
29874 
29872 
29873 
29858 
29854 
29844 
29862 
29914 
29965 
29951 
29914 
29927 
29919 
29879 
29827 
29841 
29842 
29856 
29880 
29823 
29771 
29752 
29710 
29753 
29835 
29925 
29953 
29902 
29858 
29826 
29868 
29871 
29845 
29867 
29906 
29925 
29958 
29921 
29882 
29925 
29981 
29943 
29901 
29929 
29932 
29881 
29838 
29817 
29805 
29815 
29815 
29838 
29848 
29859 
29881 
29955 
29927 
29926 
29935 
29938 
29916 
29975 
30027 
29984 
29914 
29869 
29830 
29840 
29869 
29913 
29955 
29966 
29943 
29958 
29938 
29862 
29869 
29912 
29899 
29853 
29818 
29741 
29660 
29642 
29546 
29498 
29530 
29482 
29386 
29317 
29297 
29248 
29210 
29151 
29094 
29036 
28958 
28927 
28893 
28796 
28739 
28669 
28602 
28588 
28598 
28539 
28470 
28414 
28367 
28324 
28277 
28281 
28287 
28287 
28349 
28353 
28276 
28209 
28179 
28155 
28167 
28201 
28286 
28354 
28300 
28227 
28183 
28192 
28265 
28283 
28339 
28344 
28357 
28307 
28210 
28153 
28186 
28245 
28324 
28376 
28320 
28285 
28274 
28328 
28377 
28418 
28462 
28439 
28439 
28449 
28460 
28473 
28506 
28534 
28568 
28576 
28604 
28660 
28670 
28747 
28776 
28772 
28808 
28850 
28854 
28897 
28977 
29055 
29056 
29042 
29119 
29172 
29160 
29197 
29271 
29265 
29314 
29375 
29374 
29344 
29309 
29362 
29466 
29499 
29516 
29505 
29516 
29536 
29618 
29677 
29757 
29793 
29792 
29753 
29752 
29739 
29724 
29699 
29692 
29719 
29706 
29682 
29783 
29865 
29883 
29907 
29935 
29911 
29872 
29882 
29881 
29897 
29982 
30038 
30111 
30128 
30141 
30109 
30089 
30118 
30178 
30173 
30222 
30255 
30281 
30350 
30384 
30416 
30379 
30382 
30345 
30295 
30306 
30298 
30319 
30352 
30329 
30321 
30325 
30383 
30435 
30434 
30430 
30431 
30424 
30403 
30434 
30380 
30385 
30442 
30485 
30471 
30464 
30480 
30463 
30466 
30501 
30559 
30585 
30582 
30624 
30649 
30624 
30603 
30582 
30588 
30656 
30676 
30672 
30642 
30591 
30566 
30605 
30591 
30602 
30646 
30684 
30686 
30686 
30658 
30649 
30664 
30644 
30602 
30536 
30576 
30607 
30620 
30638 
30661 
30673 
30655 
30607 
30556 
30532 
30556 
30539 
30450 
30330 
30155 
29929 
29715 
29503 
29306 
29117 
28924 
28710 
28511 
28320 
28163 
28031 
27878 
27705 
27575 
27484 
27321 
27123 
27025 
26937 
26771 
26639 
26508 
26347 
26213 
26062 
25934 
25816 
25772 
25719 
25638 
25554 
25450 
25374 
25292 
25216 
25139 
25091 
25049 
24997 
24946 
24950 
24966 
24990 
24989 
25003 
24974 
24914 
24929 
24940 
24931 
24954 
25006 
24994 
24956 
24981 
25007 
25015 
25030 
25078 
25102 
25130 
25150 
25209 
25285 
25324 
25370 
25428 
25472 
25499 
25523 
25587 
25654 
25658 
25660 
25715 
25768 
25818 
25895 
25986 
26091 
26158 
26222 
26311 
26366 
26448 
26574 
26653 
26707 
26795 
26850 
26879 
26950 
27071 
27183 
27337 
27454 
27537 
27615 
27768 
27925 
28026 
28118 
28233 
28350 
28484 
28609 
28681 
28748 
28884 
29012 
29123 
29260 
29344 
29441 
29534 
29619 
29689 
29795 
29894 
29962 
30125 
30243 
30307 
30418 
30493 
30574 
30664 
30676 
30729 
30810 
30894 
30975 
31079 
31121 
31137 
31222 
31324 
31408 
31424 
31487 
31583 
31628 
31710 
31808 
31851 
31922 
31993 
32025 
32099 
32185 
32253 
32325 
32399 
32441 
32539 
32643 
32674 
32697 
32723 
32771 
32841 
32844 
32864 
32909 
32979 
33013 
33098 
33156 
33151 
33115 
33107 
33153 
33211 
33275 
33363 
33361 
33342 
33322 
33263 
33278 
33320 
33313 
33349 
33376 
33423 
33503 
33502 
33516 
33477 
33486 
33535 
33558 
33565 
33580 
33614 
33604 
33595 
33592 
33578 
33593 
33635 
33647 
33626 
33604 
33575 
33587 
33605 
33604 
33621 
33623 
33640 
33648 
33635 
33613 
33617 
33661 
33687 
33668 
33639 
33641 
33619 
33548 
33493 
33444 
33286 
33081 
32876 
32651 
32386 
32162 
31911 
31661 
31393 
31100 
30825 
30554 
30319 
30135 
29976 
29785 
29571 
29420 
29257 
29053 
28810 
28640 
28537 
28425 
28275 
28132 
28000 
27894 
27782 
27690 
27596 
27496 
27416 
27417 
27349 
27283 
27255 
27234 
27241 
27263 
27312 
27326 
27292 
27232 
27144 
27072 
27103 
27115 
27169 
27307 
27367 
27451 
27536 
27636 
27731 
27842 
27911 
27941 
27991 
28112 
28215 
28282 
28348 
28467 
28530 
28565 
28618 
28724 
28847 
28962 
29035 
29118 
29171 
29233 
29322 
29438 
29516 
29561 
29641 
29722 
29776 
29830 
29889 
29953 
30070 
30191 
30269 
30297 
30402 
30591 
30731 
30866 
30992 
31087 
31115 
31145 
31160 
31131 
31168 
31325 
31440 
31515 
31648 
31722 
31817 
31951 
32027 
32069 
32179 
32305 
32340 
32399 
32483 
32518 
32522 
32634 
32760 
32833 
32840 
32887 
32945 
32998 
33077 
33141 
33226 
33361 
33484 
33541 
33510 
33505 
33584 
33737 
33787 
33780 
33809 
33923 
34003 
34012 
34116 
34177 
34174 
34232 
34289 
34336 
34391 
34452 
34523 
34606 
34618 
34647 
34696 
34680 
34654 
34653 
34695 
34700 
34685 
34686 
34683 
34691 
34769 
34822 
34867 
34930 
34912 
34889 
34892 
34861 
34826 
34833 
34900 
34960 
34976 
34964 
35021 
35002 
34950 
34971 
35000 
34998 
34999 
34989 
34969 
34957 
34942 
34887 
34844 
34901 
34941 
34959 
34939 
34933 
34963 
34997 
34939 
34912 
34959 
34955 
34986 
34998 
35002 
35003 
34981 
34941 
34932 
34921 
34866 
34889 
34941 
34917 
34871 
34867 
34881 
34868 
34891 
34900 
34924 
34950 
34933 
34942 
34931 
34942 
34943 
34982 
35008 
34994 
34972 
34969 
34938 
34915 
34874 
34855 
34857 
34784 
34740 
34734 
34684 
34543 
34336 
34059 
33771 
33504 
33224 
32925 
32604 
32275 
31951 
31629 
31295 
30997 
30716 
30469 
30183 
29941 
29734 
29534 
29316 
29122 
28921 
28751 
28553 
28339 
28185 
28081 
28003 
27939 
27915 
27841 
27773 
27729 
27697 
27691 
27654 
27648 
27554 
27488 
27467 
27485 
27570 
27638 
27627 
27650 
27686 
27719 
27726 
27761 
27900 
28037 
28151 
28224 
28311 
28378 
28491 
28592 
28679 
28758 
28875 
29043 
29204 
29318 
29415 
29515 
29619 
29757 
29887 
29950 
30063 
30168 
30305 
30450 
30549 
30585 
30662 
30751 
30854 
30945 
31073 
31192 
31184 
31285 
31369 
31435 
31580 
31711 
31747 
31777 
31816 
31878 
31952 
32053 
32174 
32229 
32268 
32378 
32492 
32545 
32649 
32719 
32723 
32744 
32799 
32845 
32911 
33018 
33144 
33201 
33264 
33267 
33315 
33387 
33416 
33480 
33547 
33634 
33671 
33763 
33828 
33896 
33947 
34000 
34074 
34129 
34161 
34245 
34333 
34421 
34486 
34520 
34568 
34596 
34572 
34561 
34633 
34704 
34736 
34758 
34811 
34849 
34877 
34917 
34920 
34955 
35023 
35109 
35125 
35185 
35279 
35247 
35229 
35214 
35162 
35103 
35108 
35087 
35089 
35170 
35229 
35208 
35182 
35254 
35319 
35327 
35346 
35368 
35379 
35408 
35433 
35422 
35404 
35331 
35237 
35245 
35275 
35305 
35302 
35305 
35357 
35350 
35291 
35269 
35267 
35318 
35362 
35393 
35355 
35300 
35288 
35258 
35241 
35185 
35113 
35113 
35163 
35130 
35087 
35067 
35087 
35049 
34984 
34944 
34929 
34903 
34857 
34842 
34898 
34917 
34926 
34898 
34895 
34922 
34890 
34899 
34929 
34931 
34903 
34838 
34825 
34842 
34830 
34839 
34865 
34851 
34814 
34783 
34739 
34711 
34681 
34665 
34632 
34599 
34587 
34560 
34443 
34290 
34126 
33958 
33839 
33663 
33448 
33166 
32881 
32636 
32367 
32105 
31878 
31596 
31357 
31136 
30913 
30725 
30442 
30183 
30014 
29836 
29616 
29398 
29198 
28999 
28839 
28649 
28501 
28437 
28357 
28191 
28154 
28178 
28137 
28066 
28054 
28010 
28000 
27985 
27956 
27983 
28059 
28165 
28268 
28307 
28382 
28487 
28572 
28606 
28732 
28942 
29062 
29132 
29261 
29361 
29425 
29546 
29761 
29957 
30124 
30276 
30400 
30544 
30644 
30743 
30884 
31010 
31099 
31231 
31371 
31489 
31554 
31637 
31743 
31825 
31896 
31997 
32098 
32234 
32305 
32387 
32509 
32596 
32632 
32687 
32779 
32868 
32956 
33068 
33106 
33113 
33117 
33164 
33239 
33257 
33361 
33443 
33462 
33488 
33563 
33622 
33656 
33704 
33757 
33795 
33822 
33863 
33939 
34037 
34161 
34247 
34322 
34434 
34508 
34503 
34577 
34646 
34717 
34829 
34961 
35041 
35062 
35070 
35118 
35210 
35283 
35335 
35429 
35492 
35522 
35541 
35620 
35707 
35803 
35857 
35872 
35908 
35939 
36014 
36100 
36131 
36125 
36156 
36166 
36171 
36202 
36226 
36178 
36188 
36261 
36263 
36274 
36337 
36362 
36395 
36439 
36494 
36517 
36463 
36439 
36464 
36497 
36488 
36430 
36381 
36362 
36336 
36269 
36210 
36198 
36185 
36200 
36212 
36208 
36160 
36088 
36063 
36079 
36085 
36095 
36086 
36031 
35999 
35916 
35837 
35878 
35874 
35845 
35847 
35865 
35891 
35798 
35717 
35717 
35724 
35672 
35679 
35653 
35628 
35578 
35534 
35484 
35427 
35332 
35267 
35311 
35339 
35309 
35275 
35264 
35224 
35145 
35115 
35070 
34998 
34929 
34847 
34715 
34580 
34437 
34299 
34097 
33900 
33724 
33538 
33319 
33046 
32784 
32527 
32248 
31950 
31647 
31377 
31146 
30844 
30545 
30303 
30031 
29784 
29562 
29333 
29122 
28936 
28773 
28648 
28460 
28284 
28181 
28112 
28016 
27901 
27820 
27753 
27663 
27629 
27640 
27672 
27682 
27679 
27679 
27681 
27673 
27686 
27757 
27831 
27901 
28039 
28133 
28248 
28364 
28387 
28453 
28599 
28712 
28828 
28986 
29113 
29169 
29266 
29360 
29475 
29541 
29651 
29781 
29973 
30109 
30218 
30329 
30360 
30412 
30523 
30630 
30652 
30747 
30874 
30937 
31015 
31124 
31180 
31205 
31248 
31261 
31323 
31466 
31493 
31452 
31455 
31500 
31537 
31538 
31599 
31700 
31713 
31829 
31951 
31964 
31942 
31987 
32006 
31969 
32024 
32047 
32075 
32080 
32120 
32226 
32303 
32321 
32319 
32416 
32476 
32529 
32626 
32681 
32724 
32737 
32785 
32872 
32898 
32858 
32878 
32922 
32972 
33041 
33101 
33127 
33190 
33309 
33352 
33310 
33325 
33423 
33514 
33554 
33597 
33651 
33665 
33689 
33700 
33678 
33699 
33786 
33847 
33884 
33896 
33902 
33937 
33946 
33922 
33920 
33966 
34072 
34153 
34135 
34140 
34140 
34213 
34232 
34183 
34156 
34112 
34095 
34134 
34143 
34188 
34190 
34131 
34025 
33931 
33951 
33958 
33978 
33987 
34004 
33999 
34010 
34059 
34014 
33965 
33977 
33937 
33922 
33928 
33925 
33914 
33889 
33858 
33839 
33842 
33832 
33797 
33736 
33700 
33736 
33720 
33733 
33747 
33684 
33649 
33623 
33625 
33612 
33540 
33565 
33583 
33536 
33532 
33447 
33340 
33303 
33267 
33285 
33267 
33281 
33287 
33252 
33148 
33097 
33023 
32917 
32805 
32690 
32510 
32255 
31975 
31666 
31436 
31194 
30879 
30565 
30280 
29943 
29608 
29271 
28958 
28700 
28459 
28099 
27721 
27401 
27152 
26882 
26666 
26440 
26284 
26145 
25941 
25762 
25623 
25521 
25425 
25300 
25178 
25048 
24986 
24985 
24914 
24848 
24803 
24798 
24756 
24716 
24749 
24792 
24844 
24864 
24933 
25023 
25098 
25160 
25192 
25247 
25395 
25523 
25637 
25777 
25862 
25989 
26169 
26344 
26484 
26573 
26694 
26840 
26972 
27172 
27340 
27467 
27608 
27685 
27822 
27999 
28127 
28304 
28452 
28619 
28756 
28857 
28983 
29072 
29147 
29275 
29425 
29527 
29589 
29684 
29761 
29826 
29893 
29911 
29980 
30062 
30108 
30149 
30187 
30253 
30309 
30379 
30459 
30537 
30577 
30622 
30698 
30794 
30882 
30910 
30897 
30933 
31041 
31161 
31268 
31344 
31392 
31451 
31508 
31554 
31677 
31768 
31790 
31840 
31890 
31924 
32023 
32171 
32303 
32425 
32441 
32436 
32508 
32632 
32647 
32646 
32701 
32765 
32784 
32840 
32959 
33028 
33061 
33097 
33155 
33201 
33267 
33274 
33282 
33332 
33446 
33504 
33473 
33449 
33486 
33551 
33564 
33598 
33607 
33608 
33606 
33701 
33787 
33785 
33756 
33688 
33637 
33633 
33670 
33729 
33722 
33681 
33667 
33675 
33670 
33671 
33700 
33736 
33764 
33740 
33720 
33700 
33666 
33679 
33677 
33688 
33701 
33598 
33466 
33435 
33411 
33356 
33379 
33443 
33477 
33490 
33413 
33302 
33215 
33177 
33234 
33212 
33163 
33175 
33137 
33079 
33039 
32983 
32923 
32857 
32861 
32869 
32886 
32868 
32824 
32768 
32776 
32735 
32688 
32688 
32715 
32755 
32742 
32722 
32651 
32581 
32515 
32427 
32371 
32324 
32228 
32104 
31899 
31720 
31548 
31324 
31047 
30739 
30496 
30277 
30003 
29698 
29373 
29052 
28751 
28472 
28195 
27894 
27584 
27277 
26967 
26659 
26401 
26165 
25928 
25692 
25493 
25310 
25124 
24941 
24807 
24704 
24628 
24526 
24416 
24342 
24239 
24170 
24174 
24205 
24245 
24190 
24123 
24074 
24067 
24078 
24143 
24232 
24333 
24415 
24474 
24590 
24816 
24935 
24983 
25080 
25180 
25310 
25445 
25648 
25782 
25878 
25997 
26145 
26289 
26420 
26557 
26694 
26817 
26999 
27166 
27290 
27361 
27438 
27553 
27713 
27853 
27952 
28021 
28089 
28240 
28403 
28500 
28621 
28689 
28791 
28874 
28940 
29025 
29107 
29190 
29217 
29295 
29413 
29487 
29506 
29509 
29530 
29601 
29681 
29777 
29870 
29893 
29913 
29952 
29996 
30077 
30159 
30209 
30290 
30365 
30453 
30543 
30620 
30643 
30713 
30833 
30961 
31046 
31101 
31175 
31267 
31372 
31469 
31559 
31611 
31586 
31630 
31758 
31925 
32007 
32105 
32161 
32216 
32194 
32166 
32202 
32275 
32351 
32433 
32521 
32544 
32585 
32704 
32743 
32784 
32851 
32863 
32863 
32930 
33003 
33001 
32996 
33013 
33007 
33030 
33006 
33039 
33079 
33068 
33029 
33015 
33017 
33033 
33030 
33079 
33146 
33125 
33125 
33162 
33095 
33064 
33069 
33079 
33069 
33062 
33075 
33134 
33136 
33144 
33149 
33174 
33251 
33314 
33299 
33205 
33111 
33109 
33167 
33215 
33164 
33167 
33152 
33090 
33087 
33107 
33056 
33073 
33075 
33060 
32999 
32991 
32983 
32969 
32904 
32838 
32752 
32646 
32561 
32466 
32326 
32136 
31889 
31627 
31375 
31148 
30865 
30578 
30310 
30060 
29801 
29554 
29269 
28984 
28722 
28449 
28157 
27892 
27672 
27444 
27221 
27009 
26865 
26677 
26497 
26354 
26199 
26070 
25947 
25856 
25755 
25639 
25563 
25537 
25545 
25519 
25509 
25507 
25505 
25519 
25523 
25539 
25583 
25596 
25654 
25733 
25810 
25868 
25965 
26077 
26178 
26316 
26468 
26628 
26816 
27004 
27147 
27292 
27421 
27550 
27709 
27864 
28047 
28235 
28428 
28598 
28638 
28703 
28844 
28937 
28977 
29129 
29280 
29365 
29433 
29565 
29600 
29645 
29757 
29786 
29804 
29846 
29845 
29851 
29911 
29978 
30082 
30129 
30160 
30229 
30307 
30325 
30295 
30264 
30250 
30291 
30352 
30383 
30430 
30569 
30666 
30715 
30758 
30838 
30948 
31005 
31046 
31108 
31206 
31345 
31442 
31479 
31623 
31755 
31821 
31884 
31949 
31999 
32047 
32137 
32169 
32219 
32307 
32428 
32543 
32641 
32671 
32677 
32662 
32722 
32837 
32918 
32947 
32954 
32952 
32981 
33008 
33103 
33187 
33238 
33238 
33238 
33246 
33282 
33364 
33380 
33449 
33454 
33453 
33497 
33485 
33517 
33517 
33478 
33513 
33587 
33595 
33573 
33528 
33490 
33523 
33566 
33623 
33680 
33675 
33701 
33734 
33705 
33673 
33642 
33644 
33616 
33576 
33587 
33605 
33678 
33666 
33627 
33668 
33704 
33662 
33634 
33605 
33561 
33544 
33494 
33490 
33493 
33461 
33430 
33337 
33267 
33214 
33152 
33028 
32850 
32675 
32497 
32280 
32019 
31718 
31456 
31149 
30783 
30470 
30154 
29798 
29435 
29104 
28776 
28484 
28215 
27975 
27631 
27322 
27025 
26725 
26418 
26152 
25959 
25770 
25545 
25360 
25216 
25056 
24916 
24797 
24679 
24577 
24521 
24482 
24431 
24404 
24430 
24442 
24420 
24464 
24474 
24470 
24525 
24614 
24715 
24799 
24905 
25043 
25166 
25296 
25395 
25514 
25632 
25748 
25844 
26010 
26182 
26397 
26543 
26660 
26837 
27052 
27301 
27477 
27653 
27814 
28008 
28227 
28415 
28579 
28672 
28753 
28886 
29069 
29231 
29357 
29449 
29522 
29569 
29669 
29712 
29736 
29782 
29785 
29786 
29772 
29782 
29872 
29967 
30010 
30087 
30098 
30106 
30154 
30158 
30222 
30302 
30346 
30357 
30390 
30414 
30449 
30500 
30544 
30548 
30597 
30682 
30774 
30870 
30964 
31021 
31091 
31155 
31199 
31169 
31203 
31357 
31447 
31501 
31662 
31817 
31865 
31909 
31993 
32100 
32190 
32265 
32327 
32422 
32530 
32637 
32694 
32748 
32830 
32922 
32986 
33062 
33117 
33191 
33282 
33357 
33413 
33512 
33603 
33658 
33702 
33722 
33748 
33810 
33865 
33877 
33953 
34016 
34064 
34140 
34205 
34271 
34317 
34314 
34286 
34288 
34321 
34288 
34210 
34177 
34200 
34240 
34297 
34303 
34367 
34417 
34387 
34365 
34354 
34325 
34301 
34284 
34269 
34226 
34184 
34180 
34220 
34210 
34167 
34151 
34160 
34128 
34078 
34003 
33963 
33972 
33958 
33926 
33940 
33925 
33936 
33933 
33887 
33851 
33828 
33791 
33785 
33817 
33783 
33687 
33608 
33555 
33526 
33476 
33417 
33345 
33194 
33029 
32941 
32777 
32572 
32338 
32058 
31717 
31385 
30956 
30601 
30274 
29980 
29636 
29235 
28854 
28507 
28160 
27778 
27421 
27095 
26773 
26434 
26087 
25769 
25456 
25209 
24985 
24777 
24571 
24363 
24171 
23971 
23815 
23654 
23583 
23483 
23401 
23362 
23307 
23284 
23341 
23396 
23394 
23357 
23376 
23403 
23456 
23515 
23557 
23634 
23753 
23870 
23908 
23988 
24096 
24230 
24418 
24600 
24766 
24961 
25089 
25190 
25337 
25543 
25746 
25941 
26177 
26307 
26487 
26694 
26873 
27129 
27362 
27523 
27701 
27896 
28135 
28327 
28490 
28610 
28774 
29037 
29190 
29299 
29435 
29631 
29840 
29981 
30117 
30274 
30420 
30541 
30717 
30885 
30977 
31101 
31244 
31380 
31492 
31636 
31733 
31802 
31874 
31989 
32045 
32152 
32254 
32389 
32463 
32584 
32702 
32789 
32862 
32915 
32953 
33028 
33060 
33147 
33239 
33317 
33404 
33524 
33595 
33638 
33714 
33803 
33941 
34075 
34170 
34201 
34246 
34285 
34303 
34327 
34392 
34440 
34470 
34580 
34660 
34705 
34737 
34765 
34766 
34765 
34821 
34930 
35002 
35062 
35065 
35095 
35142 
35156 
35208 
35270 
35316 
35362 
35356 
35345 
35410 
35399 
35388 
35460 
35502 
35527 
35514 
35520 
35543 
35607 
35579 
35548 
35573 
35596 
35589 
35572 
35537 
35513 
35484 
35478 
35462 
35495 
35528 
35526 
35471 
35403 
35386 
35376 
35334 
35316 
35241 
35172 
35135 
35032 
34923 
34791 
34658 
34592 
34514 
34417 
34343 
34265 
34174 
34050 
33968 
33878 
33782 
33716 
33646 
33528 
33465 
33363 
33225 
33177 
33114 
33014 
32962 
32918 
32806 
32668 
32578 
32532 
32447 
32464 
32420 
32325 
32252 
32216 
32206 
32163 
32120 
32098 
32065 
32018 
32021 
32051 
32032 
32032 
31980 
31962 
31943 
31950 
31984 
32002 
32000 
31978 
31954 
31943 
31923 
31870 
31804 
31774 
31702 
31574 
31401 
31201 
30964 
30767 
30622 
30486 
30346 
30133 
29919 
29761 
29583 
29416 
29278 
29099 
28926 
28772 
28583 
28430 
28287 
28145 
28022 
27857 
27690 
27545 
27441 
27300 
27222 
27197 
27122 
27062 
26991 
26869 
26746 
26664 
26613 
26564 
26535 
26512 
26531 
26577 
26610 
26623 
26619 
26647 
26681 
26654 
26639 
26665 
26803 
27000 
27124 
27152 
27182 
27273 
27340 
27415 
27505 
27550 
27619 
27751 
27848 
27907 
28009 
28131 
28223 
28278 
28322 
28398 
28552 
28647 
28700 
28794 
28940 
29039 
29183 
29273 
29346 
29477 
29574 
29678 
29791 
29892 
29999 
30080 
30151 
30304 
30406 
30438 
30547 
30601 
30645 
30714 
30798 
30909 
30920 
30905 
30975 
31063 
31075 
31085 
31133 
31186 
31126 
31031 
30989 
30952 
30960 
30983 
30932 
30855 
30826 
30778 
30730 
30778 
30786 
30766 
30727 
30726 
30729 
30776 
30856 
30892 
30965 
30981 
30961 
30956 
30939 
30904 
30883 
30868 
30838 
30813 
30796 
30827 
30833 
30800 
30808 
30941 
30992 
31017 
31052 
31117 
31140 
31156 
31178 
31239 
31275 
31343 
31335 
31319 
31346 
31345 
31381 
31413 
31508 
31637 
31662 
31653 
31684 
31731 
31795 
31887 
31979 
32029 
32066 
32105 
32150 
32215 
32319 
32352 
32332 
32382 
32432 
32474 
32520 
32596 
32628 
32623 
32662 
32770 
32829 
32875 
32938 
32931 
32939 
32915 
32946 
32993 
33089 
33146 
33176 
33216 
33312 
33409 
33457 
33511 
33533 
33562 
33566 
33614 
33638 
33693 
33742 
33735 
33797 
33883 
33897 
33934 
33945 
34014 
34047 
34061 
34064 
34040 
34024 
34080 
34119 
34109 
34156 
34252 
34269 
34206 
34166 
34182 
34223 
34238 
34267 
34279 
34263 
34282 
34307 
34290 
34289 
34324 
34388 
34397 
34433 
34378 
34344 
34319 
34169 
34103 
34021 
33897 
33763 
33598 
33420 
33253 
33138 
33044 
32899 
32762 
32640 
32536 
32394 
32246 
32144 
32049 
31946 
31847 
31714 
31538 
31398 
31264 
31231 
31195 
31092 
30996 
30987 
30956 
30856 
30743 
30741 
30747 
30652 
30585 
30590 
30599 
30597 
30571 
30579 
30642 
30647 
30606 
30577 
30561 
30541 
30540 
30561 
30637 
30745 
30720 
30700 
30730 
30779 
30853 
30842 
30890 
30993 
31034 
31056 
31066 
31142 
31260 
31357 
31421 
31385 
31401 
31418 
31466 
31538 
31554 
31545 
31617 
31646 
31700 
31744 
31767 
31824 
31891 
31974 
32094 
32124 
32116 
32103 
32152 
32241 
32306 
32373 
32359 
32364 
32427 
32471 
32542 
32582 
32617 
32672 
32667 
32691 
32731 
32775 
32816 
32818 
32884 
32906 
32901 
32877 
32851 
32898 
32943 
32986 
33072 
33098 
33090 
33039 
32985 
33045 
33102 
33091 
33157 
33229 
33228 
33248 
33279 
33279 
33277 
33266 
33288 
33302 
33334 
33309 
33311 
33362 
33403 
33381 
33343 
33345 
33347 
33341 
33331 
33327 
33333 
33351 
33355 
33314 
33264 
33205 
33218 
33201 
33157 
33157 
33149 
33138 
33193 
33199 
33214 
33263 
33264 
33237 
33206 
33163 
33106 
33082 
33064 
33038 
32984 
32996 
33035 
33022 
33044 
33046 
32985 
32956 
32962 
32968 
32979 
32928 
32915 
32898 
32873 
32856 
32839 
32833 
32826 
32775 
32783 
32760 
32746 
32728 
32769 
32817 
32788 
32743 
32703 
32737 
32759 
32732 
32678 
32587 
32515 
32476 
32479 
32503 
32483 
32505 
32507 
32516 
32510 
32504 
32495 
32503 
32494 
32409 
32341 
32314 
32283 
32246 
32195 
32190 
32249 
32226 
32171 
32106 
32101 
32091 
32081 
32069 
32001 
31953 
31942 
31964 
31912 
31872 
31827 
31794 
31755 
31716 
31690 
31713 
31686 
31659 
31636 
31592 
31601 
31624 
31573 
31527 
31521 
31466 
31411 
31403 
31410 
31426 
31458 
31460 
31474 
31436 
31409 
31396 
31380 
31345 
31274 
31242 
31251 
31323 
31322 
31286 
31230 
31204 
31181 
31192 
31241 
31261 
31232 
31188 
31177 
31158 
31108 
31036 
31046 
31058 
31062 
31072 
31065 
31047 
30986 
30955 
30929 
30921 
30904 
30870 
30853 
30854 
30888 
30928 
30918 
30866 
30856 
30891 
30927 
30870 
30865 
30876 
30840 
30802 
30793 
30772 
30722 
30715 
30713 
30680 
30684 
30691 
30646 
30669 
30661 
30555 
30526 
30516 
30475 
30445 
30505 
30523 
30462 
30473 
30478 
30449 
30441 
30400 
30401 
30428 
30493 
30520 
30515 
30518 
30501 
30462 
30474 
30504 
30525 
30477 
30405 
30337 
30314 
30284 
30264 
30275 
30330 
30409 
30440 
30433 
30343 
30296 
30312 
30329 
30336 
30360 
30355 
30285 
30294 
30318 
30303 
30272 
30250 
30208 
30196 
30198 
30207 
30220 
30250 
30254 
30239 
30208 
30136 
30130 
30111 
30059 
30076 
30122 
30151 
30200 
30249 
30245 
30210 
30142 
30074 
30081 
30102 
30063 
30002 
30035 
30075 
30065 
30056 
30045 
30070 
30098 
30127 
30068 
30027 
30020 
30041 
30024 
30046 
30043 
30060 
30058 
30041 
30018 
30013 
30036 
30059 
30038 
29956 
29959 
30008 
30004 
30034 
30039 
30055 
30027 
29993 
29965 
29979 
30009 
30010 
29982 
29940 
29944 
29939 
29979 
29992 
30025 
30037 
30040 
30045 
30107 
30063 
30013 
30005 
29970 
29963 
30012 
30033 
30044 
30025 
29990 
29990 
29971 
29995 
30013 
30072 
30109 
30112 
30080 
30091 
30134 
30052 
30012 
30064 
30064 
30087 
30102 
30078 
30080 
30115 
30121 
30091 
30052 
30020 
30024 
30032 
30076 
30097 
30053 
30013 
30060 
30121 
30145 
30167 
30196 
30193 
30148 
30129 
30118 
30114 
30127 
30133 
30117 
30147 
30153 
30094 
30077 
30135 
30222 
30246 
30249 
30197 
30169 
30118 
30059 
30023 
30043 
30116 
30195 
30221 
30231 
30205 
30188 
30159 
30131 
30111 
30159 
30206 
30210 
30207 
30250 
30198 
30165 
30181 
30191 
30139 
30126 
30134 
30138 
30141 
30106 
30079 
30080 
30084 
30103 
30092 
30056 
30056 
30049 
30062 
30084 
30167 
30151 
30140 
30164 
30156 
30144 
30112 
30102 
30087 
30095 
30100 
30150 
30181 
30128 
30102 
30092 
30036 
30023 
30080 
30057 
30038 
30002 
29973 
29997 
30010 
30027 
30085 
30153 
30171 
30172 
30161 
30171 
30165 
30155 
30165 
30169 
30128 
30147 
30144 
30100 
30084 
30060 
30016 
30000 
30027 
30036 
30004 
30040 
30111 
30135 
30134 
30123 
30109 
30113 
30067 
30119 
30119 
30084 
30089 
30080 
30054 
30031 
30089 
30136 
30140 
30175 
30174 
30169 
30135 
30134 
30073 
30050 
30113 
30088 
30059 
30071 
30093 
30084 
30066 
30082 
30130 
30145 
30106 
30062 
30042 
30082 
30132 
30144 
30126 
30083 
30028 
29938 
29966 
29982 
29977 
29935 
29934 
29914 
29960 
30027 
30052 
29985 
29966 
29969 
29868 
29847 
29852 
29905 
29953 
29943 
29909 
29878 
29871 
29913 
29939 
29937 
29987 
30039 
30029 
30005 
30019 
30017 
29982 
29945 
29904 
29935 
29963 
29976 
29984 
29965 
29938 
29984 
29986 
29976 
29972 
29976 
29961 
29937 
29942 
29896 
29864 
29868 
29892 
29931 
29982 
29997 
29999 
30028 
30071 
30080 
30055 
30043 
30041 
29993 
30002 
30015 
29981 
29948 
29922 
29900 
29840 
29807 
29787 
29786 
29766 
29798 
29889 
29944 
29959 
29998 
30059 
30015 
29959 
29932 
29916 
29892 
29894 
29931 
29934 
29954 
29932 
29914 
29896 
29891 
29902 
29849 
29827 
29859 
29916 
30028 
30012 
29936 
29884 
29892 
29881 
29879 
29919 
29893 
29846 
29863 
29899 
29828 
29791 
29783 
29792 
29823 
29833 
29826 
29851 
29935 
29962 
29921 
29913 
29927 
29911 
29918 
29919 
29911 
29933 
29965 
29978 
29972 
29969 
29965 
29901 
29834 
29840 
29836 
29895 
29925 
29895 
29853 
29812 
29885 
29915 
29897 
29876 
29833 
29808 
29819 
29839 
29892 
29977 
29977 
30004 
29977 
29945 
29906 
29907 
29904 
29904 
29933 
29955 
29950 
29912 
29879 
29899 
29923 
29929 
29879 
29858 
29870 
29892 
29897 
29835 
29798 
29804 
29811 
29816 
29786 
29750 
29772 
29820 
29809 
29794 
29797 
29803 
29796 
29792 
29842 
29854 
29838 
29869 
29839 
29800 
29762 
29761 
29751 
29701 
29712 
29783 
29802 
29757 
29778 
29785 
29772 
29741 
29767 
29770 
29778 
29758 
29726 
29719 
29682 
29658 
29663 
29723 
29789 
29794 
29816 
29781 
29736 
29759 
29785 
29789 
29797 
29809 
29805 
29803 
29766 
29744 
29761 
29744 
29734 
29737 
29803 
29841 
29796 
29815 
29801 
29774 
29744 
29758 
29764 
29773 
29777 
29786 
29807 
29795 
29747 
29705 
29720 
29716 
29647 
29629 
29660 
29735 
29779 
29779 
29814 
29836 
29807 
29725 
29666 
29627 
29609 
29645 
29652 
29685 
29707 
29699 
29730 
29752 
29780 
29789 
29723 
29704 
29697 
29652 
29619 
29635 
29641 
29661 
29737 
29705 
29660 
29606 
29635 
29633 
29587 
29590 
29602 
29616 
29652 
29664 
29670 
29680 
29704 
29719 
29713 
29758 
29746 
29731 
29768 
29793 
29766 
29748 
29739 
29709 
29737 
29745 
29731 
29725 
29767 
29756 
29684 
29673 
29690 
29715 
29701 
29651 
29645 
29630 
29646 
29711 
29738 
29791 
29814 
29784 
29729 
29701 
29666 
29621 
29625 
29586 
29573 
29625 
29675 
29714 
29741 
29754 
29802 
29794 
29781 
29708 
29646 
29661 
29673 
29721 
29757 
29797 
29849 
29840 
29803 
29783 
29787 
29740 
29748 
29793 
29849 
29815 
29726 
29677 
29739 
29803 
29761 
29743 
29742 
29663 
29598 
29567 
29603 
29622 
29661 
29682 
29677 
29727 
29711 
29653 
29618 
29608 
29606 
29629 
29684 
29699 
29686 
29684 
29671 
29643 
29584 
29591 
29644 
29622 
29564 
29530 
29532 
29512 
29533 
29558 
29579 
29646 
29636 
29619 
29633 
29643 
29699 
29712 
29701 
29703 
29663 
29705 
29748 
29705 
29656 
29679 
29692 
29714 
29709 
29757 
29744 
29682 
29673 
29706 
29728 
29785 
29757 
29693 
29705 
29766 
29814 
29818 
29801 
29813 
29839 
29774 
29717 
29708 
29728 
29762 
29805 
29795 
29753 
29715 
29713 
29725 
29747 
29828 
29896 
29844 
29765 
29712 
29708 
29722 
29714 
29695 
29681 
29663 
29703 
29712 
29693 
29667 
29650 
29671 
29693 
29691 
29670 
29657 
29662 
29670 
29653 
29640 
29634 
29580 
29576 
29574 
29580 
29558 
29522 
29569 
29605 
29607 
29603 
29593 
29613 
29625 
29602 
29581 
29551 
29594 
29645 
29631 
29542 
29504 
29570 
29619 
29604 
29612 
29601 
29598 
29597 
29574 
29504 
29498 
29529 
29548 
29591 
29610 
29629 
29680 
29663 
29610 
29586 
29611 
29614 
29588 
29573 
29522 
29536 
29558 
29550 
29535 
29498 
29547 
29600 
29608 
29617 
29661 
29656 
29586 
29629 
29657 
29641 
29588 
29537 
29543 
29584 
29600 
29564 
29575 
29544 
29512 
29544 
29512 
29472 
29444 
29462 
29486 
29486 
29524 
29557 
29570 
29545 
29496 
29511 
29522 
29540 
29588 
29641 
29661 
29586 
29533 
29548 
29550 
29537 
29542 
29527 
29535 
29562 
29612 
29583 
29552 
29519 
29528 
29595 
29591 
29616 
29579 
29501 
29493 
29469 
29429 
29415 
29453 
29494 
29527 
29548 
29588 
29572 
29533 
29553 
29547 
29509 
29547 
29579 
29612 
29597 
29592 
29618 
29615 
29571 
29534 
29540 
29540 
29529 
29515 
29448 
29418 
29459 
29463 
29487 
29471 
29501 
29596 
29625 
29579 
29544 
29509 
29484 
29485 
29502 
29496 
29516 
29502 
29547 
29539 
29528 
29535 
29529 
29544 
29570 
29520 
29511 
29556 
29584 
29572 
29615 
29643 
29626 
29581 
29513 
29499 
29454 
29407 
29404 
29455 
29478 
29517 
29500 
29482 
29485 
29470 
29443 
29448 
29486 
29486 
29518 
29545 
29522 
29553 
29570 
29584 
29555 
29490 
29462 
29430 
29429 
29437 
29464 
29469 
29462 
29439 
29428 
29453 
29419 
29437 
29445 
29450 
29456 
29453 
29426 
29425 
29438 
29413 
29471 
29492 
29471 
29526 
29545 
29533 
29486 
29475 
29448 
29482 
29535 
29510 
29487 
29509 
29500 
29492 
29473 
29440 
29445 
29473 
29514 
29513 
29513 
29464 
29473 
29476 
29466 
29485 
29499 
29441 
29391 
29364 
29355 
29384 
29416 
29410 
29455 
29533 
29560 
29536 
29523 
29461 
29411 
29386 
29381 
29415 
29431 
29461 
29440 
29454 
29484 
29524 
29506 
29478 
29478 
29530 
29536 
29495 
29494 
29519 
29535 
29532 
29541 
29521 
29504 
29517 
29513 
29485 
29449 
29399 
29414 
29467 
29449 
29449 
29464 
29483 
29490 
29486 
29486 
29491 
29492 
29462 
29405 
29408 
29394 
29391 
29392 
29397 
29434 
29459 
29442 
29424 
29415 
29390 
29401 
29383 
29365 
29393 
29416 
29452 
29456 
29470 
29459 
29416 
29405 
29405 
29417 
29458 
29484 
29451 
29364 
29378 
29401 
29375 
29393 
29451 
29429 
29345 
29272 
29286 
29274 
29283 
29312 
29313 
29309 
29267 
29279 
29313 
29299 
29281 
29317 
29328 
29344 
29363 
29367 
29390 
29383 
29322 
29327 
29369 
29400 
29421 
29349 
29323 
29342 
29404 
29433 
29430 
29419 
29416 
29422 
29451 
29437 
29426 
29350 
29325 
29322 
29351 
29369 
29325 
29260 
29262 
29301 
29358 
29406 
29414 
29357 
29346 
29384 
29433 
29470 
29502 
29526 
29519 
29509 
29487 
29431 
29370 
29378 
29441 
29462 
29442 
29418 
29401 
29379 
29348 
29328 
29292 
29252 
29291 
29364 
29370 
29355 
29373 
29391 
29393 
29344 
29322 
29327 
29306 
29314 
29333 
29339 
29295 
29308 
29383 
29406 
29422 
29398 
29358 
29380 
29410 
29413 
29394 
29403 
29421 
29420 
29384 
29369 
29391 
29387 
29411 
29451 
29468 
29473 
29470 
29459 
29455 
29474 
29455 
29447 
29395 
29336 
29303 
29317 
29318 
29328 
29341 
29412 
29447 
29420 
29421 
29450 
29446 
29400 
29362 
29356 
29356 
29382 
29383 
29355 
29350 
29390 
29383 
29366 
29397 
29375 
29346 
29291 
29259 
29314 
29371 
29356 
29382 
29410 
29395 
29422 
29452 
29413 
29381 
29411 
29413 
29388 
29407 
29398 
29370 
29343 
29326 
29315 
29298 
29303 
29274 
29223 
29293 
29314 
29310 
29308 
29275 
29260 
29270 
29239 
29242 
29247 
29281 
29265 
29274 
29248 
29259 
29250 
29238 
29295 
29287 
29326 
29346 
29309 
29251 
29202 
29201 
29294 
29330 
29322 
29341 
29315 
29267 
29291 
29283 
29307 
29350 
29315 
29307 
29354 
29389 
29330 
29265 
29222 
29180 
29182 
29206 
29178 
29152 
29217 
29268 
29248 
29231 
29222 
29231 
29194 
29180 
29197 
29173 
29157 
29234 
29266 
29238 
29201 
29190 
29154 
29143 
29138 
29140 
29116 
29067 
29065 
29060 
29106 
29114 
29149 
29161 
29186 
29177 
29127 
29103 
29152 
29194 
29207 
29190 
29181 
29205 
29223 
29205 
29173 
29151 
29133 
29114 
29145 
29183 
29178 
29143 
29109 
29137 
29141 
29133 
29221 
29310 
29300 
29271 
29291 
29282 
29307 
29318 
29309 
29280 
29271 
29223 
29268 
29284 
29277 
29276 
29286 
29275 
29235 
29226 
29206 
29216 
29241 
29260 
29283 
29245 
29245 
29273 
29256 
29246 
29255 
29288 
29300 
29324 
29379 
29342 
29302 
29352 
29427 
29391 
29361 
29371 
29367 
29362 
29354 
29403 
29384 
29399 
29414 
29385 
29328 
29318 
29343 
29409 
29444 
29418 
29382 
29395 
29377 
29383 
29429 
29427 
29414 
29408 
29419 
29423 
29383 
29377 
29396 
29384 
29358 
29323 
29347 
29371 
29378 
29435 
29491 
29517 
29487 
29471 
29509 
29477 
29455 
29477 
29459 
29414 
29380 
29354 
29349 
29354 
29390 
29475 
29473 
29445 
29414 
29406 
29398 
29413 
29428 
29476 
29498 
29451 
29436 
29443 
29399 
29338 
29347 
29407 
29441 
29446 
29428 
29400 
29432 
29436 
29400 
29379 
29373 
29355 
29389 
29426 
29432 
29463 
29475 
29441 
29409 
29428 
29454 
29492 
29493 
29481 
29474 
29461 
29485 
29490 
29463 
29505 
29528 
29509 
29522 
29523 
29525 
29517 
29516 
29499 
29488 
29477 
29445 
29404 
29434 
29435 
29461 
29447 
29391 
29418 
29416 
29400 
29434 
29480 
29500 
29518 
29510 
29479 
29484 
29469 
29446 
29417 
29376 
29391 
29418 
29422 
29349 
29321 
29315 
29335 
29367 
29348 
29274 
29263 
29270 
29262 
29251 
29271 
29223 
29188 
29121 
29069 
29057 
29077 
29082 
29048 
29056 
29086 
29118 
29081 
